Data from Rubpy_EV_1500_EDTA_Absorbance_13-14-59-990.txt Node
Date: Mon Jun 29 13:14:59 BST 2026
User: fpm-admin
Spectrometer: OFX00224
Trigger mode: 0
Integration Time (sec): 7.000000E-2
Scans to average: 3
Nonlinearity correction enabled: false
Boxcar width: 0
Storing dark spectrum: false
XAxis mode: Wavelengths
Number of Pixels in Spectrum: 2136
>>>>>Begin Spectral Data<<<<<
154.91	0.23
155.289	-0.13
155.669	-0
156.048	-0.11
156.428	0.56
156.807	0.07
157.186	0.02
157.566	-0
157.945	-0
158.325	-0
158.704	0.31
159.083	0.53
159.462	-0.71
159.842	0.02
160.221	0.12
160.6	-0.61
160.979	0.16
161.359	0.48
161.738	-0.25
162.117	-0.38
162.496	-0.58
162.875	0.1
163.254	-0
163.633	-0.08
164.012	-0
164.391	0.22
164.77	-0.85
165.149	-0
165.528	-1.08
165.907	-0
166.286	0.27
166.665	-0
167.044	-0
167.423	-0
167.802	-0.42
168.181	-0
168.559	-0.19
168.938	-0
169.317	-0.12
169.696	0.07
170.074	-0.22
170.453	0.16
170.832	-0
171.21	0.11
171.589	0.18
171.968	0.46
172.346	-0.14
172.725	0.18
173.103	-0
173.482	-0
173.861	0.23
174.239	-0.53
174.617	0.48
174.996	0.06
175.374	-0
175.753	-0.63
176.131	0.1
176.51	-0
176.888	-0.09
177.266	-0.17
177.645	0.12
178.023	0.13
178.401	-0.06
178.779	-0.22
179.158	0.11
179.536	-0.25
179.914	-0.07
180.292	0.3
180.67	0.92
181.048	-0
181.427	-0
181.805	-0.23
182.183	-0.23
182.561	0.1
182.939	-0.1
183.317	-0
183.695	-0
184.073	-0.2
184.451	-0
184.829	-0
185.206	0.57
185.584	-0
185.962	-0
186.34	-0
186.718	0.04
187.096	0.8
187.473	0.13
187.851	-0
188.229	1.15
188.607	0.03
188.984	-0.05
189.362	0.08
189.74	-0.08
190.117	0.03
190.495	0.04
190.872	0.08
191.25	0.04
191.627	0.12
192.005	0.03
192.382	-0.04
192.76	0.13
193.137	0.17
193.515	0.04
193.892	-0.1
194.269	0.08
194.647	0.29
195.024	0.09
195.401	0.07
195.779	-0.01
196.156	0.1
196.533	-0.04
196.91	0.1
197.288	0.04
197.665	-0.08
198.042	-0.06
198.419	-0.06
198.796	-0.1
199.173	-0.03
199.55	0.04
199.927	0.12
200.304	0.12
200.681	-0
201.058	0.05
201.435	0.14
201.812	-0.05
202.189	-0.01
202.566	0.02
202.943	0.04
203.32	-0.06
203.697	-0.07
204.073	-0.01
204.45	0.08
204.827	0.07
205.204	-0.02
205.58	0.13
205.957	-0.03
206.334	-0.07
206.71	-0.06
207.087	0.19
207.464	-0
207.84	0.07
208.217	-0.03
208.593	0.12
208.97	0.01
209.346	0.17
209.723	0.08
210.099	0.03
210.476	0.18
210.852	0.14
211.228	0.02
211.605	0.02
211.981	-0.01
212.357	0.05
212.733	0.06
213.11	0.07
213.486	-0.05
213.862	0.08
214.238	0.06
214.614	0.1
214.991	-0.12
215.367	0.13
215.743	0.1
216.119	0.05
216.495	0.07
216.871	-0
217.247	0.02
217.623	0.02
217.999	0.08
218.375	0.02
218.751	0.04
219.127	0.12
219.502	0.11
219.878	0.11
220.254	0.1
220.63	-0.09
221.006	0.11
221.381	0.08
221.757	0.15
222.133	0
222.508	0.07
222.884	0.04
223.26	0.11
223.635	0.1
224.011	0.14
224.386	0.06
224.762	0.05
225.137	0.05
225.513	0.22
225.888	0.36
226.264	0.01
226.639	0.04
227.014	0.05
227.39	0.18
227.765	0.02
228.14	0.05
228.516	0.01
228.891	0.09
229.266	-0.04
229.641	-0.08
230.017	0.1
230.392	0.1
230.767	0.15
231.142	-0.12
231.517	-0.03
231.892	0.03
232.267	0.05
232.642	-0.01
233.017	0.03
233.392	-0.02
233.767	-0.02
234.142	0.08
234.517	0.12
234.892	0.14
235.267	0.18
235.641	-0.03
236.016	0.08
236.391	-0.01
236.766	-0.08
237.14	0.03
237.515	0.03
237.89	0.07
238.264	-0.03
238.639	0.06
239.014	0.06
239.388	0.11
239.763	0.22
240.137	0.1
240.512	0
240.886	0.01
241.261	0.14
241.635	0.13
242.009	0.04
242.384	-0.05
242.758	0.12
243.132	-0.05
243.507	0.13
243.881	0.05
244.255	0.02
244.629	0.06
245.004	-0.1
245.378	-0.09
245.752	0.11
246.126	-0.02
246.5	0.15
246.874	0.07
247.248	0.1
247.622	0.09
247.996	0
248.37	0.06
248.744	0.08
249.118	0.02
249.492	0.04
249.866	0.09
250.24	-0.02
250.613	0.12
250.987	0.03
251.361	0.03
251.735	-0
252.108	0.06
252.482	0.07
252.856	0.09
253.229	-0.03
253.603	0.05
253.977	0.05
254.35	0.09
254.724	0.08
255.097	0.08
255.471	0.04
255.844	0.14
256.218	0.12
256.591	0.07
256.964	0.01
257.338	0.06
257.711	0.12
258.084	0.14
258.458	-0.01
258.831	0.06
259.204	0.03
259.577	0.14
259.95	0.07
260.323	0.02
260.697	0.16
261.07	-0.03
261.443	0.11
261.816	0.07
262.189	0.04
262.562	0.2
262.935	0.06
263.308	0.08
263.68	0.05
264.053	0.11
264.426	0.03
264.799	0.08
265.172	0.13
265.545	0.17
265.917	-0.01
266.29	0.05
266.663	0.03
267.035	0.05
267.408	0.08
267.781	0.15
268.153	0.17
268.526	0.11
268.898	0.01
269.271	0.04
269.643	0.11
270.016	0.03
270.388	0.08
270.76	0.09
271.133	0.02
271.505	0.12
271.877	0.07
272.25	0.08
272.622	0.09
272.994	0.12
273.366	0.02
273.739	0.08
274.111	0.1
274.483	0.11
274.855	0.12
275.227	0
275.599	0.14
275.971	0.12
276.343	0.06
276.715	0.06
277.087	0.09
277.459	0.01
277.831	-0.01
278.203	0.04
278.574	0.13
278.946	0.16
279.318	0.17
279.69	0.02
280.061	0.07
280.433	0.03
280.805	0.01
281.176	0.11
281.548	0.01
281.92	0.1
282.291	0.03
282.663	0.08
283.034	0.04
283.406	0.08
283.777	0.1
284.148	0.06
284.52	0.1
284.891	0.07
285.262	0.01
285.634	0.07
286.005	0.01
286.376	0.11
286.747	0.06
287.119	0.14
287.49	0.05
287.861	0.03
288.232	0.07
288.603	0.07
288.974	0.12
289.345	0.09
289.716	0.11
290.087	0.06
290.458	0
290.829	0.03
291.2	0.07
291.571	0.04
291.941	0.08
292.312	0.02
292.683	0.05
293.054	0.12
293.424	0.07
293.795	0.07
294.166	0.07
294.536	0.09
294.907	0.08
295.277	0.08
295.648	0.1
296.018	0.01
296.389	0.11
296.759	0.07
297.13	0.1
297.5	0.11
297.871	0.04
298.241	0.05
298.611	0.06
298.981	0.07
299.352	0.02
299.722	0.08
300.092	0.07
300.462	0.08
300.832	0.03
301.202	0.03
301.573	0.05
301.943	0.04
302.313	0.04
302.683	0.01
303.053	0.03
303.422	0.02
303.792	0.04
304.162	0.04
304.532	0.05
304.902	0.03
305.272	0.03
305.641	0.04
306.011	0.02
306.381	0.02
306.75	0.02
307.12	0.04
307.49	0.04
307.859	0.03
308.229	0.03
308.598	0.03
308.968	0.03
309.337	0.03
309.707	0.04
310.076	0.04
310.445	0.03
310.815	0.03
311.184	0.04
311.553	0.04
311.923	0.04
312.292	0.04
312.661	0.04
313.03	0.03
313.399	0.04
313.768	0.04
314.137	0.03
314.506	0.03
314.875	0.03
315.244	0.04
315.613	0.04
315.982	0.04
316.351	0.04
316.72	0.03
317.089	0.04
317.458	0.03
317.826	0.04
318.195	0.04
318.564	0.03
318.933	0.03
319.301	0.03
319.67	0.03
320.038	0.03
320.407	0.04
320.775	0.03
321.144	0.03
321.512	0.03
321.881	0.04
322.249	0.03
322.618	0.03
322.986	0.03
323.354	0.03
323.723	0.04
324.091	0.03
324.459	0.03
324.827	0.02
325.195	0.03
325.564	0.03
325.932	0.03
326.3	0.03
326.668	0.03
327.036	0.03
327.404	0.03
327.772	0.03
328.14	0.03
328.508	0.03
328.875	0.04
329.243	0.03
329.611	0.03
329.979	0.03
330.346	0.03
330.714	0.02
331.082	0.03
331.449	0.03
331.817	0.03
332.185	0.03
332.552	0.04
332.92	0.04
333.287	0.04
333.655	0.04
334.022	0.04
334.389	0.03
334.757	0.03
335.124	0.03
335.491	0.03
335.859	0.03
336.226	0.04
336.593	0.03
336.96	0.03
337.327	0.04
337.695	0.04
338.062	0.03
338.429	0.03
338.796	0.03
339.163	0.03
339.53	0.03
339.897	0.04
340.263	0.04
340.63	0.03
340.997	0.04
341.364	0.03
341.731	0.03
342.097	0.04
342.464	0.04
342.831	0.04
343.197	0.04
343.564	0.04
343.931	0.04
344.297	0.04
344.664	0.05
345.03	0.04
345.396	0.04
345.763	0.04
346.129	0.04
346.496	0.05
346.862	0.05
347.228	0.05
347.594	0.05
347.961	0.05
348.327	0.05
348.693	0.05
349.059	0.05
349.425	0.05
349.791	0.05
350.157	0.05
350.523	0.05
350.889	0.05
351.255	0.05
351.621	0.06
351.987	0.05
352.353	0.06
352.719	0.06
353.084	0.06
353.45	0.06
353.816	0.06
354.181	0.06
354.547	0.06
354.913	0.06
355.278	0.06
355.644	0.06
356.009	0.07
356.375	0.07
356.74	0.07
357.106	0.08
357.471	0.07
357.836	0.07
358.202	0.07
358.567	0.08
358.932	0.08
359.297	0.08
359.663	0.08
360.028	0.08
360.393	0.09
360.758	0.09
361.123	0.08
361.488	0.08
361.853	0.09
362.218	0.09
362.583	0.09
362.948	0.09
363.312	0.09
363.677	0.09
364.042	0.09
364.407	0.1
364.772	0.09
365.136	0.09
365.501	0.1
365.865	0.1
366.23	0.1
366.595	0.11
366.959	0.11
367.324	0.11
367.688	0.11
368.052	0.12
368.417	0.11
368.781	0.12
369.145	0.12
369.51	0.11
369.874	0.12
370.238	0.12
370.602	0.12
370.967	0.12
371.331	0.12
371.695	0.12
372.059	0.12
372.423	0.12
372.787	0.12
373.151	0.12
373.515	0.11
373.878	0.12
374.242	0.12
374.606	0.12
374.97	0.12
375.334	0.12
375.697	0.12
376.061	0.12
376.425	0.12
376.788	0.13
377.152	0.13
377.515	0.13
377.879	0.12
378.242	0.13
378.606	0.13
378.969	0.13
379.333	0.13
379.696	0.13
380.059	0.13
380.422	0.14
380.786	0.14
381.149	0.14
381.512	0.15
381.875	0.15
382.238	0.15
382.601	0.15
382.964	0.16
383.327	0.16
383.69	0.17
384.053	0.17
384.416	0.18
384.779	0.18
385.142	0.19
385.504	0.19
385.867	0.19
386.23	0.19
386.593	0.19
386.955	0.19
387.318	0.19
387.68	0.19
388.043	0.19
388.405	0.19
388.768	0.19
389.13	0.19
389.493	0.18
389.855	0.19
390.217	0.18
390.58	0.18
390.942	0.18
391.304	0.19
391.666	0.19
392.028	0.19
392.391	0.2
392.753	0.2
393.115	0.21
393.477	0.21
393.839	0.22
394.201	0.23
394.563	0.25
394.924	0.25
395.286	0.26
395.648	0.27
396.01	0.28
396.371	0.29
396.733	0.29
397.095	0.29
397.456	0.29
397.818	0.3
398.18	0.3
398.541	0.29
398.903	0.28
399.264	0.28
399.625	0.27
399.987	0.26
400.348	0.24
400.709	0.23
401.071	0.22
401.432	0.21
401.793	0.2
402.154	0.18
402.515	0.17
402.876	0.16
403.238	0.15
403.599	0.14
403.96	0.13
404.32	0.12
404.681	0.12
405.042	0.11
405.403	0.1
405.764	0.1
406.125	0.09
406.485	0.09
406.846	0.08
407.207	0.08
407.567	0.07
407.928	0.07
408.288	0.06
408.649	0.06
409.009	0.06
409.37	0.06
409.73	0.05
410.091	0.05
410.451	0.06
410.811	0.05
411.171	0.05
411.532	0.05
411.892	0.05
412.252	0.05
412.612	0.05
412.972	0.04
413.332	0.05
413.692	0.05
414.052	0.05
414.412	0.04
414.772	0.04
415.132	0.04
415.492	0.04
415.851	0.05
416.211	0.04
416.571	0.04
416.931	0.04
417.29	0.04
417.65	0.04
418.009	0.04
418.369	0.03
418.728	0.03
419.088	0.03
419.447	0.04
419.807	0.03
420.166	0.03
420.525	0.03
420.884	0.03
421.244	0.04
421.603	0.03
421.962	0.03
422.321	0.04
422.68	0.03
423.039	0.03
423.398	0.04
423.757	0.04
424.116	0.02
424.475	0.03
424.834	0.03
425.193	0.03
425.551	0.03
425.91	0.03
426.269	0.03
426.628	0.03
426.986	0.03
427.345	0.03
427.703	0.04
428.062	0.02
428.42	0.04
428.779	0.02
429.137	0.04
429.496	0.03
429.854	0.03
430.212	0.03
430.57	0.03
430.929	0.03
431.287	0.03
431.645	0.04
432.003	0.02
432.361	0.03
432.719	0.03
433.077	0.03
433.435	0.03
433.793	0.02
434.151	0.03
434.509	0.03
434.866	0.03
435.224	0.02
435.582	0.04
435.94	0.03
436.297	0.03
436.655	0.02
437.012	0.03
437.37	0.03
437.727	0.02
438.085	0.02
438.442	0.02
438.8	0.03
439.157	0.02
439.514	0.02
439.872	0.03
440.229	0.03
440.586	0.03
440.943	0.03
441.3	0.02
441.657	0.03
442.014	0.03
442.371	0.03
442.728	0.02
443.085	0.03
443.442	0.02
443.799	0.02
444.156	0.03
444.513	0.03
444.869	0.03
445.226	0.02
445.583	0.02
445.939	0.02
446.296	0.03
446.652	0.03
447.009	0.03
447.365	0.01
447.722	0.03
448.078	0.02
448.434	0.02
448.791	0.01
449.147	0.04
449.503	0.02
449.859	0.02
450.215	0.02
450.571	0.02
450.928	0.03
451.284	0.02
451.64	0.03
451.995	0.03
452.351	0.02
452.707	0.02
453.063	0.02
453.419	0.02
453.775	0.01
454.13	0.01
454.486	0.02
454.842	0.02
455.197	0.02
455.553	0.02
455.908	0.01
456.264	0.01
456.619	0.01
456.975	0
457.33	0.01
457.685	0.01
458.04	0.01
458.396	0.02
458.751	0.01
459.106	0.02
459.461	0.01
459.816	0.02
460.171	0.01
460.526	0
460.881	0.01
461.236	0
461.591	0
461.946	-0
462.301	0
462.655	0
463.01	0
463.365	0
463.719	0
464.074	-0
464.428	-0.01
464.783	-0
465.137	-0
465.492	-0.01
465.846	-0.01
466.201	-0
466.555	-0.01
466.909	-0.01
467.263	-0.01
467.618	-0
467.972	0
468.326	-0.01
468.68	-0.01
469.034	-0
469.388	-0.01
469.742	-0.01
470.096	-0.01
470.45	-0.01
470.804	-0.01
471.157	-0.02
471.511	-0.01
471.865	-0.01
472.218	-0.01
472.572	-0.01
472.926	-0.01
473.279	-0.01
473.633	-0.01
473.986	-0
474.34	-0
474.693	-0.01
475.046	0
475.4	0
475.753	0.01
476.106	-0
476.459	0
476.812	0
477.165	0.01
477.519	0.01
477.872	0.01
478.224	0.01
478.577	0.01
478.93	0.01
479.283	0.02
479.636	0.02
479.989	0.02
480.341	0.02
480.694	0.01
481.047	0.02
481.399	0.02
481.752	0.02
482.104	0.02
482.457	0.02
482.809	0.02
483.162	0.03
483.514	0.02
483.866	0.02
484.219	0.02
484.571	0.02
484.923	0.02
485.275	0.03
485.627	0.03
485.979	0.03
486.331	0.03
486.683	0.03
487.035	0.03
487.387	0.03
487.739	0.03
488.091	0.03
488.443	0.03
488.794	0.03
489.146	0.03
489.498	0.03
489.849	0.03
490.201	0.03
490.552	0.03
490.904	0.03
491.255	0.03
491.607	0.03
491.958	0.04
492.309	0.03
492.661	0.04
493.012	0.04
493.363	0.04
493.714	0.03
494.065	0.03
494.416	0.03
494.767	0.03
495.118	0.03
495.469	0.03
495.82	0.03
496.171	0.03
496.522	0.03
496.872	0.03
497.223	0.04
497.574	0.04
497.924	0.04
498.275	0.04
498.626	0.04
498.976	0.03
499.327	0.03
499.677	0.03
500.027	0.03
500.378	0.04
500.728	0.04
501.078	0.04
501.428	0.04
501.779	0.04
502.129	0.04
502.479	0.04
502.829	0.05
503.179	0.05
503.529	0.04
503.879	0.04
504.229	0.04
504.578	0.04
504.928	0.04
505.278	0.04
505.628	0.05
505.977	0.05
506.327	0.05
506.676	0.05
507.026	0.05
507.375	0.05
507.725	0.04
508.074	0.04
508.424	0.05
508.773	0.05
509.122	0.05
509.471	0.04
509.82	0.05
510.17	0.05
510.519	0.05
510.868	0.04
511.217	0.04
511.566	0.05
511.915	0.04
512.263	0.05
512.612	0.05
512.961	0.05
513.31	0.05
513.659	0.05
514.007	0.05
514.356	0.05
514.704	0.05
515.053	0.06
515.401	0.05
515.75	0.05
516.098	0.06
516.447	0.05
516.795	0.06
517.143	0.06
517.491	0.05
517.839	0.06
518.188	0.06
518.536	0.06
518.884	0.05
519.232	0.06
519.58	0.06
519.928	0.06
520.275	0.06
520.623	0.06
520.971	0.06
521.319	0.06
521.666	0.06
522.014	0.06
522.362	0.06
522.709	0.06
523.057	0.06
523.404	0.06
523.752	0.07
524.099	0.06
524.446	0.07
524.794	0.06
525.141	0.06
525.488	0.07
525.835	0.06
526.182	0.06
526.529	0.07
526.876	0.06
527.223	0.07
527.57	0.06
527.917	0.06
528.264	0.07
528.611	0.07
528.958	0.07
529.304	0.07
529.651	0.06
529.998	0.07
530.344	0.06
530.691	0.07
531.037	0.07
531.384	0.07
531.73	0.07
532.076	0.07
532.423	0.07
532.769	0.07
533.115	0.07
533.461	0.07
533.807	0.07
534.154	0.07
534.5	0.07
534.846	0.07
535.192	0.07
535.537	0.07
535.883	0.07
536.229	0.07
536.575	0.08
536.921	0.07
537.266	0.07
537.612	0.07
537.957	0.07
538.303	0.07
538.649	0.07
538.994	0.08
539.339	0.08
539.685	0.08
540.03	0.08
540.375	0.08
540.721	0.08
541.066	0.08
541.411	0.08
541.756	0.08
542.101	0.08
542.446	0.08
542.791	0.08
543.136	0.08
543.481	0.08
543.825	0.09
544.17	0.09
544.515	0.08
544.86	0.08
545.204	0.09
545.549	0.09
545.893	0.09
546.238	0.09
546.582	0.09
546.927	0.09
547.271	0.09
547.615	0.09
547.96	0.09
548.304	0.09
548.648	0.09
548.992	0.09
549.336	0.09
549.68	0.09
550.024	0.09
550.368	0.09
550.712	0.09
551.056	0.09
551.4	0.09
551.743	0.1
552.087	0.1
552.431	0.09
552.774	0.1
553.118	0.1
553.462	0.09
553.805	0.1
554.148	0.09
554.492	0.09
554.835	0.09
555.178	0.09
555.522	0.09
555.865	0.09
556.208	0.09
556.551	0.1
556.894	0.1
557.237	0.1
557.58	0.1
557.923	0.1
558.266	0.09
558.609	0.1
558.952	0.1
559.294	0.1
559.637	0.1
559.98	0.1
560.322	0.1
560.665	0.1
561.007	0.1
561.35	0.1
561.692	0.1
562.034	0.1
562.377	0.1
562.719	0.1
563.061	0.1
563.403	0.1
563.745	0.1
564.088	0.1
564.43	0.1
564.772	0.1
565.113	0.1
565.455	0.1
565.797	0.1
566.139	0.1
566.481	0.1
566.822	0.1
567.164	0.1
567.506	0.1
567.847	0.1
568.189	0.1
568.53	0.1
568.872	0.1
569.213	0.1
569.554	0.1
569.895	0.1
570.237	0.1
570.578	0.1
570.919	0.1
571.26	0.1
571.601	0.1
571.942	0.1
572.283	0.1
572.624	0.1
572.965	0.1
573.306	0.1
573.646	0.1
573.987	0.1
574.328	0.09
574.668	0.1
575.009	0.1
575.349	0.1
575.69	0.1
576.03	0.1
576.37	0.1
576.711	0.1
577.051	0.1
577.391	0.1
577.731	0.1
578.072	0.1
578.412	0.1
578.752	0.1
579.092	0.1
579.431	0.1
579.771	0.09
580.111	0.09
580.451	0.09
580.791	0.09
581.13	0.09
581.47	0.09
581.81	0.09
582.149	0.1
582.489	0.1
582.828	0.1
583.167	0.1
583.507	0.1
583.846	0.09
584.185	0.09
584.525	0.09
584.864	0.09
585.203	0.1
585.542	0.1
585.881	0.1
586.22	0.11
586.559	0.1
586.898	0.1
587.236	0.1
587.575	0.1
587.914	0.1
588.252	0.1
588.591	0.1
588.93	0.1
589.268	0.1
589.607	0.1
589.945	0.1
590.283	0.1
590.622	0.1
590.96	0.1
591.298	0.11
591.636	0.11
591.974	0.11
592.313	0.11
592.651	0.11
592.989	0.11
593.326	0.11
593.664	0.11
594.002	0.11
594.34	0.11
594.678	0.11
595.015	0.11
595.353	0.11
595.691	0.11
596.028	0.11
596.366	0.11
596.703	0.11
597.04	0.11
597.378	0.11
597.715	0.11
598.052	0.11
598.389	0.11
598.726	0.11
599.064	0.11
599.401	0.12
599.738	0.11
600.074	0.11
600.411	0.11
600.748	0.11
601.085	0.11
601.422	0.11
601.758	0.11
602.095	0.11
602.432	0.11
602.768	0.11
603.105	0.11
603.441	0.11
603.777	0.12
604.114	0.12
604.45	0.12
604.786	0.12
605.122	0.12
605.459	0.12
605.795	0.12
606.131	0.12
606.467	0.12
606.803	0.12
607.139	0.12
607.474	0.12
607.81	0.12
608.146	0.12
608.482	0.12
608.817	0.12
609.153	0.12
609.488	0.12
609.824	0.12
610.159	0.12
610.495	0.11
610.83	0.12
611.165	0.12
611.5	0.12
611.836	0.12
612.171	0.12
612.506	0.12
612.841	0.12
613.176	0.11
613.511	0.12
613.845	0.12
614.18	0.12
614.515	0.11
614.85	0.11
615.184	0.11
615.519	0.11
615.854	0.11
616.188	0.11
616.523	0.11
616.857	0.11
617.191	0.11
617.526	0.11
617.86	0.11
618.194	0.11
618.528	0.11
618.862	0.11
619.196	0.12
619.53	0.11
619.864	0.11
620.198	0.12
620.532	0.11
620.866	0.11
621.2	0.11
621.533	0.12
621.867	0.11
622.201	0.11
622.534	0.11
622.868	0.11
623.201	0.11
623.534	0.12
623.868	0.12
624.201	0.11
624.534	0.11
624.868	0.11
625.201	0.11
625.534	0.11
625.867	0.11
626.2	0.11
626.533	0.11
626.865	0.11
627.198	0.1
627.531	0.1
627.864	0.1
628.196	0.1
628.529	0.1
628.862	0.1
629.194	0.11
629.527	0.11
629.859	0.11
630.191	0.1
630.524	0.1
630.856	0.11
631.188	0.11
631.52	0.11
631.852	0.1
632.184	0.1
632.516	0.1
632.848	0.1
633.18	0.1
633.512	0.1
633.844	0.1
634.175	0.1
634.507	0.1
634.839	0.1
635.17	0.1
635.502	0.1
635.833	0.1
636.165	0.1
636.496	0.1
636.827	0.1
637.159	0.1
637.49	0.1
637.821	0.1
638.152	0.1
638.483	0.1
638.814	0.09
639.145	0.1
639.476	0.09
639.807	0.1
640.137	0.09
640.468	0.09
640.799	0.09
641.129	0.09
641.46	0.09
641.791	0.09
642.121	0.09
642.451	0.09
642.782	0.09
643.112	0.09
643.442	0.09
643.773	0.09
644.103	0.09
644.433	0.09
644.763	0.09
645.093	0.09
645.423	0.09
645.753	0.1
646.082	0.09
646.412	0.09
646.742	0.1
647.072	0.1
647.401	0.09
647.731	0.09
648.06	0.09
648.39	0.09
648.719	0.09
649.048	0.09
649.378	0.09
649.707	0.09
650.036	0.09
650.365	0.09
650.694	0.08
651.023	0.08
651.352	0.08
651.681	0.08
652.01	0.08
652.339	0.09
652.668	0.09
652.996	0.09
653.325	0.09
653.654	0.09
653.982	0.09
654.311	0.09
654.639	0.09
654.967	0.09
655.296	0.09
655.624	0.09
655.952	0.09
656.28	0.09
656.609	0.09
656.937	0.09
657.265	0.09
657.593	0.09
657.92	0.01
658.248	-0
658.576	0
658.904	0.06
659.231	0.06
659.559	0.07
659.887	0.08
660.214	0.08
660.542	0.08
660.869	0.08
661.196	0.08
661.524	0.08
661.851	0.09
662.178	0.09
662.505	0.09
662.832	0.08
663.159	0.09
663.486	0.09
663.813	0.09
664.14	0.09
664.467	0.09
664.794	0.09
665.12	0.09
665.447	0.09
665.774	0.09
666.1	0.09
666.427	0.09
666.753	0.09
667.079	0.09
667.406	0.09
667.732	0.08
668.058	0.08
668.384	0.09
668.71	0.09
669.036	0.09
669.362	0.09
669.688	0.09
670.014	0.09
670.34	0.09
670.666	0.09
670.991	0.09
671.317	0.09
671.643	0.08
671.968	0.09
672.294	0.09
672.619	0.09
672.945	0.09
673.27	0.09
673.595	0.09
673.92	0.09
674.246	0.09
674.571	0.08
674.896	0.08
675.221	0.09
675.546	0.09
675.87	0.08
676.195	0.08
676.52	0.08
676.845	0.08
677.169	0.08
677.494	0.08
677.819	0.08
678.143	0.08
678.468	0.08
678.792	0.08
679.116	0.08
679.44	0.08
679.765	0.08
680.089	0.09
680.413	0.08
680.737	0.09
681.061	0.09
681.385	0.08
681.709	0.08
682.033	0.08
682.356	0.08
682.68	0.08
683.004	0.08
683.327	0.08
683.651	0.08
683.974	0.07
684.298	0.08
684.621	0.08
684.944	0.07
685.268	0.08
685.591	0.07
685.914	0.08
686.237	0.08
686.56	0.07
686.883	0.07
687.206	0.07
687.529	0.07
687.852	0.07
688.175	0.07
688.497	0.07
688.82	0.08
689.142	0.07
689.465	0.07
689.787	0.07
690.11	0.07
690.432	0.07
690.755	0.07
691.077	0.07
691.399	0.07
691.721	0.07
692.043	0.07
692.365	0.07
692.687	0.07
693.009	0.07
693.331	0.07
693.653	0.07
693.974	0.07
694.296	0.07
694.618	0.07
694.939	0.07
695.261	0.07
695.582	0.07
695.904	0.07
696.225	0.07
696.546	0.08
696.868	0.08
697.189	0.08
697.51	0.07
697.831	0.07
698.152	0.07
698.473	0.07
698.794	0.07
699.114	0.07
699.435	0.07
699.756	0.07
700.077	0.07
700.397	0.07
700.718	0.07
701.038	0.07
701.359	0.07
701.679	0.07
701.999	0.07
702.32	0.07
702.64	0.07
702.96	0.06
703.28	0.07
703.6	0.06
703.92	0.07
704.24	0.07
704.56	0.07
704.879	0.06
705.199	0.07
705.519	0.07
705.838	0.06
706.158	0.07
706.478	0.07
706.797	0.07
707.116	0.07
707.436	0.07
707.755	0.07
708.074	0.07
708.393	0.07
708.712	0.07
709.031	0.06
709.35	0.06
709.669	0.06
709.988	0.06
710.307	0.06
710.626	0.06
710.944	0.06
711.263	0.06
711.582	0.06
711.9	0.06
712.219	0.06
712.537	0.06
712.855	0.06
713.174	0.06
713.492	0.06
713.81	0.07
714.128	0.07
714.446	0.07
714.764	0.06
715.082	0.07
715.4	0.07
715.718	0.07
716.035	0.07
716.353	0.07
716.671	0.07
716.988	0.06
717.306	0.07
717.623	0.07
717.941	0.07
718.258	0.07
718.575	0.07
718.893	0.07
719.21	0.07
719.527	0.07
719.844	0.07
720.161	0.07
720.478	0.06
720.795	0.06
721.112	0.07
721.428	0.07
721.745	0.07
722.062	0.07
722.378	0.07
722.695	0.07
723.011	0.07
723.328	0.07
723.644	0.07
723.96	0.06
724.276	0.06
724.593	0.06
724.909	0.06
725.225	0.06
725.541	0.06
725.857	0.06
726.173	0.06
726.488	0.06
726.804	0.07
727.12	0.07
727.435	0.07
727.751	0.07
728.067	0.07
728.382	0.07
728.697	0.07
729.013	0.07
729.328	0.07
729.643	0.07
729.958	0.07
730.273	0.07
730.588	0.07
730.903	0.07
731.218	0.07
731.533	0.07
731.848	0.07
732.163	0.06
732.477	0.06
732.792	0.06
733.107	0.06
733.421	0.06
733.736	0.07
734.05	0.07
734.364	0.07
734.678	0.07
734.993	0.07
735.307	0.07
735.621	0.07
735.935	0.07
736.249	0.07
736.563	0.07
736.877	0.07
737.19	0.07
737.504	0.07
737.818	0.07
738.131	0.07
738.445	0.08
738.758	0.07
739.072	0.07
739.385	0.07
739.698	0.07
740.012	0.08
740.325	0.07
740.638	0.08
740.951	0.08
741.264	0.07
741.577	0.07
741.89	0.07
742.203	0.07
742.515	0.06
742.828	0.06
743.141	0.06
743.453	0.07
743.766	0.07
744.078	0.07
744.391	0.07
744.703	0.07
745.015	0.07
745.327	0.07
745.639	0.07
745.952	0.07
746.264	0.07
746.575	0.08
746.887	0.07
747.199	0.08
747.511	0.08
747.823	0.08
748.134	0.07
748.446	0.07
748.757	0.07
749.069	0.07
749.38	0.07
749.692	0.07
750.003	0.07
750.314	0.07
750.625	0.07
750.936	0.07
751.248	0.07
751.559	0.07
751.869	0.07
752.18	0.07
752.491	0.07
752.802	0.07
753.112	0.07
753.423	0.07
753.734	0.07
754.044	0.07
754.355	0.07
754.665	0.07
754.975	0.06
755.285	0.07
755.596	0.07
755.906	0.07
756.216	0.07
756.526	0.07
756.836	0.07
757.146	0.07
757.455	0.07
757.765	0.07
758.075	0.07
758.385	0.07
758.694	0.07
759.004	0.06
759.313	0.06
759.622	0.07
759.932	0.06
760.241	0.07
760.55	0.07
760.859	0.06
761.168	0.06
761.477	0.06
761.786	0.06
762.095	0.06
762.404	0.06
762.713	0.06
763.021	0.06
763.33	0.06
763.639	0.06
763.947	0.06
764.256	0.05
764.564	0.06
764.872	0.06
765.181	0.06
765.489	0.05
765.797	0.05
766.105	0.05
766.413	0.06
766.721	0.06
767.029	0.05
767.337	0.06
767.644	0.06
767.952	0.06
768.26	0.06
768.567	0.06
768.875	0.06
769.182	0.06
769.49	0.06
769.797	0.06
770.104	0.06
770.411	0.06
770.718	0.06
771.026	0.06
771.333	0.06
771.639	0.07
771.946	0.07
772.253	0.07
772.56	0.07
772.867	0.07
773.173	0.06
773.48	0.07
773.786	0.06
774.093	0.06
774.399	0.06
774.705	0.06
775.012	0.06
775.318	0.06
775.624	0.06
775.93	0.06
776.236	0.06
776.542	0.06
776.848	0.06
777.154	0.06
777.459	0.06
777.765	0.06
778.071	0.06
778.376	0.06
778.682	0.06
778.987	0.06
779.292	0.06
779.598	0.06
779.903	0.05
780.208	0.05
780.513	0.06
780.818	0.06
781.123	0.06
781.428	0.06
781.733	0.06
782.038	0.05
782.343	0.05
782.647	0.06
782.952	0.06
783.256	0.06
783.561	0.06
783.865	0.06
784.17	0.06
784.474	0.06
784.778	0.06
785.082	0.06
785.386	0.06
785.69	0.06
785.994	0.05
786.298	0.05
786.602	0.05
786.906	0.05
787.209	0.05
787.513	0.05
787.817	0.05
788.12	0.05
788.424	0.05
788.727	0.05
789.03	0.05
789.333	0.04
789.637	0.04
789.94	0.04
790.243	0.04
790.546	0.04
790.849	0.04
791.152	0.04
791.454	0.05
791.757	0.05
792.06	0.04
792.362	0.05
792.665	0.05
792.967	0.05
793.27	0.05
793.572	0.05
793.874	0.05
794.177	0.05
794.479	0.05
794.781	0.05
795.083	0.05
795.385	0.05
795.687	0.04
795.989	0.04
796.29	0.05
796.592	0.04
796.894	0.04
797.195	0.04
797.497	0.04
797.798	0.04
798.1	0.04
798.401	0.04
798.702	0.05
799.003	0.05
799.304	0.05
799.605	0.04
799.906	0.04
800.207	0.05
800.508	0.04
800.809	0.04
801.11	0.05
801.41	0.04
801.711	0.04
802.011	0.04
802.312	0.05
802.612	0.04
802.913	0.05
803.213	0.05
803.513	0.05
803.813	0.04
804.113	0.04
804.413	0.04
804.713	0.04
805.013	0.04
805.313	0.04
805.613	0.04
805.912	0.04
806.212	0.04
806.511	0.04
806.811	0.04
807.11	0.04
807.41	0.04
807.709	0.04
808.008	0.03
808.307	0.04
808.606	0.04
808.905	0.04
809.204	0.04
809.503	0.04
809.802	0.04
810.101	0.04
810.399	0.04
810.698	0.04
810.997	0.04
811.295	0.05
811.593	0.04
811.892	0.04
812.19	0.04
812.488	0.04
812.786	0.04
813.084	0.04
813.383	0.05
813.68	0.05
813.978	0.05
814.276	0.05
814.574	0.05
814.872	0.05
815.169	0.04
815.467	0.04
815.764	0.04
816.062	0.04
816.359	0.04
816.656	0.03
816.954	0.03
817.251	0.03
817.548	0.04
817.845	0.04
818.142	0.03
818.439	0.03
818.735	0.04
819.032	0.03
819.329	0.03
819.626	0.03
819.922	0.04
820.219	0.03
820.515	0.03
820.811	0.03
821.108	0.02
821.404	0.03
821.7	0.03
821.996	0.03
822.292	0.03
822.588	0.03
822.884	0.03
823.18	0.04
823.475	0.04
823.771	0.03
824.067	0.03
824.362	0.03
824.658	0.03
824.953	0.04
825.249	0.04
825.544	0.04
825.839	0.04
826.134	0.03
826.429	0.04
826.724	0.03
827.019	0.04
827.314	0.04
827.609	0.04
827.904	0.03
828.198	0.03
828.493	0.03
828.787	0.03
829.082	0.03
829.376	0.02
829.671	0.02
829.965	0.02
830.259	0.03
830.553	0.02
830.847	0.02
831.141	0.02
831.435	0.02
831.729	0.01
832.023	0.02
832.317	0.01
832.61	0.01
832.904	0.02
833.197	0.01
833.491	0.01
833.784	0.02
834.077	0.01
834.371	0.02
834.664	0.02
834.957	0.02
835.25	0.02
835.543	0.03
835.836	0.03
836.129	0.02
836.421	0.02
836.714	0.02
837.007	0.02
837.299	0.02
837.592	0.01
837.884	0.02
838.177	0.01
838.469	0.02
838.761	0.02
839.053	0.01
839.345	0.01
839.637	0.01
839.929	-0.01
840.221	0
840.513	0
840.805	0.01
841.096	0
841.388	-0
841.68	0.01
841.971	0.01
842.262	0.01
842.554	0
842.845	0.01
843.136	-0
843.427	0.01
843.718	0.02
844.009	0
844.3	0.01
844.591	-0
844.882	0
845.173	0.01
845.463	-0
845.754	0
846.044	0.01
846.335	-0.01
846.625	-0
846.915	0.01
847.206	0
847.496	0.01
847.786	0
848.076	0.01
848.366	0.01
848.656	-0.02
848.945	-0
849.235	0.01
849.525	0
849.814	-0.01
850.104	-0.01
850.393	0
850.683	0.01
850.972	0.01
851.261	-0.01
851.551	0.01
851.84	0
852.129	0.01
852.418	0.01
852.707	0
852.995	-0.01
853.284	-0.01
853.573	0
853.862	-0.01
854.15	0
854.439	0.02
854.727	-0.01
855.015	0.01
855.304	0.01
855.592	0
855.88	-0.02
856.168	-0.02
856.456	0.02
856.744	0.01
857.032	-0.03
857.32	-0.01
857.607	-0.01
857.895	-0
858.183	-0.02
858.47	-0
858.757	-0
859.045	-0.01
859.332	-0.02
859.619	-0
859.907	0
860.194	0.02
860.481	-0.01
860.768	-0.01
861.054	-0.01
861.341	-0.01
861.628	-0.02
861.915	-0.02
862.201	0.01
862.488	-0.07
862.774	-0.01
863.061	-0.02
863.347	-0.03
863.633	-0.04
863.919	-0.01
864.205	-0.02
864.491	-0.06
864.777	-0.03
865.063	-0.04
865.349	-0.02
865.635	0.01
865.92	-0.01
866.206	0
866.492	-0.02
866.777	-0.07
867.062	-0.02
867.348	-0.06
867.633	-0.05
867.918	-0.03
868.203	-0.02
868.488	-0.05
868.773	-0
869.058	-0
869.343	-0.11
869.628	-0.02
869.912	-0.06
870.197	-0.07
870.482	-0.09
870.766	-0.05
871.05	0.01
871.335	-0.05
871.619	0.02
871.903	-0.03
872.187	-0.03
872.471	-0.01
872.755	0.03
873.039	-0
873.323	-0.08
873.607	-0.02
873.89	-0.15
874.174	-0.03
874.458	-0.04
874.741	0.01
875.024	0.09
875.308	0.07
875.591	0.09
875.874	-0.09
876.157	0.03
876.44	-0.01
876.723	-0.09
877.006	0.04
877.289	-0.06
877.572	-0.25
877.854	-0.06
878.137	0.01
878.42	-0.08
878.702	-0.04
878.984	-0.13
879.267	0.07
879.549	-0.16
879.831	-0.11
880.113	0.01
880.395	0.08
880.677	0.02
880.959	0.04
