Data from Rubpy_EV_900_EDTA_Buffered_Absorbance_13-39-13-794.txt Node
Date: Tue Jun 30 13:39:13 BST 2026
User: fpm-admin
Spectrometer: OFX00224
Trigger mode: 0
Integration Time (sec): 7.000000E-2
Scans to average: 3
Nonlinearity correction enabled: false
Boxcar width: 0
Storing dark spectrum: false
XAxis mode: Wavelengths
Number of Pixels in Spectrum: 2136
>>>>>Begin Spectral Data<<<<<
154.91	-0
155.289	-1.45
155.669	-0
156.048	-0.48
156.428	-0.46
156.807	-0.17
157.186	0.02
157.566	-0
157.945	0.11
158.325	-0
158.704	-0.77
159.083	0.87
159.462	-0.17
159.842	-0
160.221	-0.07
160.6	-0.17
160.979	-0.16
161.359	-0
161.738	0.36
162.117	-0.58
162.496	-0.11
162.875	-0
163.254	0.26
163.633	0.54
164.012	-0
164.391	0.68
164.77	-0.41
165.149	-0.05
165.528	-0
165.907	-0
166.286	-0
166.665	-1.1
167.044	-0
167.423	-0.07
167.802	-0
168.181	0.92
168.559	-0
168.938	-0
169.317	0.48
169.696	-0
170.074	-0.78
170.453	0.55
170.832	-0.1
171.21	0.41
171.589	-0
171.968	-0
172.346	-0.94
172.725	0.08
173.103	-0
173.482	-0.26
173.861	0.19
174.239	0.73
174.617	-0
174.996	-0
175.374	0.18
175.753	-0.23
176.131	-0
176.51	-0.46
176.888	-0
177.266	0.41
177.645	-0.06
178.023	0.23
178.401	-0.09
178.779	0.24
179.158	-0
179.536	-0.21
179.914	0.16
180.292	-0.67
180.67	-0
181.048	-0
181.427	-0.63
181.805	0.3
182.183	-0.85
182.561	0.21
182.939	-0.26
183.317	-0.23
183.695	-0.04
184.073	-0.64
184.451	-0.1
184.829	0.36
185.206	-0.39
185.584	-0
185.962	0.29
186.34	-0.45
186.718	0.19
187.096	-0.17
187.473	-0.08
187.851	-0.03
188.229	0.85
188.607	0
188.984	0.09
189.362	0.08
189.74	0.05
190.117	-0.01
190.495	0.09
190.872	0.06
191.25	0.06
191.627	0.15
192.005	0.06
192.382	0.14
192.76	0.06
193.137	0.02
193.515	0.09
193.892	0.07
194.269	0.09
194.647	0.07
195.024	0.11
195.401	0.16
195.779	0.16
196.156	0.12
196.533	0.11
196.91	0.03
197.288	0.23
197.665	-0.04
198.042	0.1
198.419	0.01
198.796	0.12
199.173	0.07
199.55	0.19
199.927	0.16
200.304	0.16
200.681	0.15
201.058	0.11
201.435	0.11
201.812	0.09
202.189	0.1
202.566	0.05
202.943	0.04
203.32	0.12
203.697	0.15
204.073	0.18
204.45	0.19
204.827	0.15
205.204	0.07
205.58	0.08
205.957	0.19
206.334	0.09
206.71	0.13
207.087	0.16
207.464	0.1
207.84	0.11
208.217	0.05
208.593	0.11
208.97	0.12
209.346	0.03
209.723	0.12
210.099	0.13
210.476	0.13
210.852	0.11
211.228	0.16
211.605	0.06
211.981	0.2
212.357	0.11
212.733	0.16
213.11	0.14
213.486	0.03
213.862	0.16
214.238	0.04
214.614	0.16
214.991	0.07
215.367	0.1
215.743	0.12
216.119	0.06
216.495	0.06
216.871	0.12
217.247	0.2
217.623	0.15
217.999	0.01
218.375	0.03
218.751	0.06
219.127	0.07
219.502	0.18
219.878	0.16
220.254	0.1
220.63	0.07
221.006	0.12
221.381	0.22
221.757	0.1
222.133	0.09
222.508	0.07
222.884	0.11
223.26	0.17
223.635	0.1
224.011	0.1
224.386	0.01
224.762	0.13
225.137	0.07
225.513	0.03
225.888	0.07
226.264	0.1
226.639	0.08
227.014	0.09
227.39	0.07
227.765	0.03
228.14	0.17
228.516	0.04
228.891	0.13
229.266	0.11
229.641	0.1
230.017	0.09
230.392	0.18
230.767	0.16
231.142	0.08
231.517	0.15
231.892	0.03
232.267	0.13
232.642	0.15
233.017	0.02
233.392	0.08
233.767	0.13
234.142	0.02
234.517	0.16
234.892	0.09
235.267	0.11
235.641	0.09
236.016	0.2
236.391	0.16
236.766	0.11
237.14	0.14
237.515	0.02
237.89	0.17
238.264	0.04
238.639	0.12
239.014	0.15
239.388	0.2
239.763	0.12
240.137	0.14
240.512	0.05
240.886	0.14
241.261	0.04
241.635	0.21
242.009	0.12
242.384	0.14
242.758	0.09
243.132	0.04
243.507	0.11
243.881	0.16
244.255	0.16
244.629	0.18
245.004	0.15
245.378	0.08
245.752	0.13
246.126	0.1
246.5	0.1
246.874	0.16
247.248	0.14
247.622	0.14
247.996	0.05
248.37	0.12
248.744	0.15
249.118	0.12
249.492	0.14
249.866	0
250.24	0.1
250.613	0.05
250.987	0.16
251.361	0.13
251.735	0.1
252.108	-0.01
252.482	0.15
252.856	0.12
253.229	0.1
253.603	0.11
253.977	0.13
254.35	0.08
254.724	0.12
255.097	0.09
255.471	0.1
255.844	0.14
256.218	0.13
256.591	0.06
256.964	0.12
257.338	0.23
257.711	0.05
258.084	0.08
258.458	0.22
258.831	0.17
259.204	0.12
259.577	0.17
259.95	0.12
260.323	0.12
260.697	0.16
261.07	0.14
261.443	0.12
261.816	0.17
262.189	0.21
262.562	0.12
262.935	0.14
263.308	0.21
263.68	0.09
264.053	0.13
264.426	0.13
264.799	0.21
265.172	0.1
265.545	0.1
265.917	0.08
266.29	0.14
266.663	0.07
267.035	0.11
267.408	0.08
267.781	0.17
268.153	0.16
268.526	0.2
268.898	0.16
269.271	0.05
269.643	0.08
270.016	0.15
270.388	0.16
270.76	0.11
271.133	0.17
271.505	0.12
271.877	0.1
272.25	0.13
272.622	0.13
272.994	0.1
273.366	0.16
273.739	0.09
274.111	0.05
274.483	0.1
274.855	0.12
275.227	0.16
275.599	0.1
275.971	0.11
276.343	0.08
276.715	0.1
277.087	0.16
277.459	0.14
277.831	0.15
278.203	0.23
278.574	0.09
278.946	0.09
279.318	0.16
279.69	0.12
280.061	0.1
280.433	0.11
280.805	0.1
281.176	0.08
281.548	0.14
281.92	0.08
282.291	0.15
282.663	0.17
283.034	0.1
283.406	0.1
283.777	0.13
284.148	0.11
284.52	0.04
284.891	0.15
285.262	0.17
285.634	0.12
286.005	0.14
286.376	0.19
286.747	0.2
287.119	0.09
287.49	0.09
287.861	0.14
288.232	0.06
288.603	0.18
288.974	0.12
289.345	0.11
289.716	0.1
290.087	0.15
290.458	0.11
290.829	0.11
291.2	0.09
291.571	0.05
291.941	0.11
292.312	0.08
292.683	0.19
293.054	0.13
293.424	0.07
293.795	0.18
294.166	0.18
294.536	0.17
294.907	0.1
295.277	0.11
295.648	0.12
296.018	0.07
296.389	0.11
296.759	0.05
297.13	0.11
297.5	0.09
297.871	0.1
298.241	0.1
298.611	0.13
298.981	0.1
299.352	0.09
299.722	0.12
300.092	0.11
300.462	0.13
300.832	0.1
301.202	0.07
301.573	0.09
301.943	0.11
302.313	0.07
302.683	0.05
303.053	0.07
303.422	0.06
303.792	0.07
304.162	0.07
304.532	0.08
304.902	0.07
305.272	0.08
305.641	0.07
306.011	0.08
306.381	0.07
306.75	0.07
307.12	0.07
307.49	0.09
307.859	0.08
308.229	0.08
308.598	0.07
308.968	0.08
309.337	0.08
309.707	0.09
310.076	0.09
310.445	0.09
310.815	0.09
311.184	0.1
311.553	0.09
311.923	0.1
312.292	0.1
312.661	0.09
313.03	0.1
313.399	0.09
313.768	0.09
314.137	0.1
314.506	0.1
314.875	0.09
315.244	0.09
315.613	0.09
315.982	0.09
316.351	0.1
316.72	0.09
317.089	0.09
317.458	0.08
317.826	0.09
318.195	0.09
318.564	0.09
318.933	0.09
319.301	0.09
319.67	0.08
320.038	0.09
320.407	0.08
320.775	0.09
321.144	0.09
321.512	0.08
321.881	0.08
322.249	0.08
322.618	0.08
322.986	0.08
323.354	0.07
323.723	0.08
324.091	0.07
324.459	0.08
324.827	0.08
325.195	0.07
325.564	0.07
325.932	0.08
326.3	0.07
326.668	0.08
327.036	0.08
327.404	0.07
327.772	0.07
328.14	0.08
328.508	0.07
328.875	0.08
329.243	0.07
329.611	0.08
329.979	0.08
330.346	0.08
330.714	0.07
331.082	0.08
331.449	0.07
331.817	0.07
332.185	0.08
332.552	0.08
332.92	0.08
333.287	0.08
333.655	0.08
334.022	0.08
334.389	0.08
334.757	0.08
335.124	0.08
335.491	0.08
335.859	0.08
336.226	0.08
336.593	0.08
336.96	0.08
337.327	0.08
337.695	0.09
338.062	0.09
338.429	0.09
338.796	0.09
339.163	0.09
339.53	0.09
339.897	0.09
340.263	0.09
340.63	0.1
340.997	0.1
341.364	0.1
341.731	0.1
342.097	0.1
342.464	0.1
342.831	0.1
343.197	0.11
343.564	0.11
343.931	0.11
344.297	0.11
344.664	0.11
345.03	0.11
345.396	0.12
345.763	0.12
346.129	0.11
346.496	0.12
346.862	0.12
347.228	0.12
347.594	0.13
347.961	0.13
348.327	0.13
348.693	0.13
349.059	0.13
349.425	0.13
349.791	0.14
350.157	0.14
350.523	0.14
350.889	0.15
351.255	0.15
351.621	0.15
351.987	0.15
352.353	0.15
352.719	0.16
353.084	0.16
353.45	0.17
353.816	0.17
354.181	0.17
354.547	0.17
354.913	0.18
355.278	0.18
355.644	0.18
356.009	0.19
356.375	0.2
356.74	0.2
357.106	0.2
357.471	0.2
357.836	0.21
358.202	0.21
358.567	0.22
358.932	0.22
359.297	0.23
359.663	0.23
360.028	0.23
360.393	0.24
360.758	0.24
361.123	0.25
361.488	0.25
361.853	0.25
362.218	0.25
362.583	0.26
362.948	0.26
363.312	0.27
363.677	0.27
364.042	0.27
364.407	0.27
364.772	0.28
365.136	0.28
365.501	0.29
365.865	0.3
366.23	0.3
366.595	0.31
366.959	0.31
367.324	0.32
367.688	0.33
368.052	0.33
368.417	0.34
368.781	0.34
369.145	0.35
369.51	0.35
369.874	0.34
370.238	0.35
370.602	0.35
370.967	0.35
371.331	0.35
371.695	0.35
372.059	0.34
372.423	0.34
372.787	0.35
373.151	0.34
373.515	0.34
373.878	0.34
374.242	0.35
374.606	0.35
374.97	0.35
375.334	0.34
375.697	0.34
376.061	0.35
376.425	0.35
376.788	0.35
377.152	0.36
377.515	0.36
377.879	0.36
378.242	0.37
378.606	0.38
378.969	0.38
379.333	0.38
379.696	0.38
380.059	0.39
380.422	0.39
380.786	0.4
381.149	0.41
381.512	0.42
381.875	0.43
382.238	0.44
382.601	0.45
382.964	0.46
383.327	0.47
383.69	0.5
384.053	0.5
384.416	0.51
384.779	0.53
385.142	0.54
385.504	0.54
385.867	0.56
386.23	0.57
386.593	0.56
386.955	0.57
387.318	0.57
387.68	0.57
388.043	0.56
388.405	0.56
388.768	0.56
389.13	0.56
389.493	0.55
389.855	0.54
390.217	0.53
390.58	0.54
390.942	0.54
391.304	0.55
391.666	0.55
392.028	0.56
392.391	0.58
392.753	0.59
393.115	0.61
393.477	0.63
393.839	0.66
394.201	0.68
394.563	0.71
394.924	0.74
395.286	0.77
395.648	0.79
396.01	0.81
396.371	0.84
396.733	0.86
397.095	0.87
397.456	0.88
397.818	0.88
398.18	0.87
398.541	0.86
398.903	0.84
399.264	0.81
399.625	0.8
399.987	0.76
400.348	0.73
400.709	0.7
401.071	0.66
401.432	0.62
401.793	0.59
402.154	0.55
402.515	0.5
402.876	0.47
403.238	0.43
403.599	0.41
403.96	0.38
404.32	0.35
404.681	0.32
405.042	0.31
405.403	0.29
405.764	0.26
406.125	0.25
406.485	0.23
406.846	0.21
407.207	0.2
407.567	0.19
407.928	0.18
408.288	0.17
408.649	0.17
409.009	0.15
409.37	0.15
409.73	0.14
410.091	0.13
410.451	0.13
410.811	0.12
411.171	0.12
411.532	0.11
411.892	0.1
412.252	0.11
412.612	0.1
412.972	0.09
413.332	0.1
413.692	0.1
414.052	0.09
414.412	0.08
414.772	0.08
415.132	0.08
415.492	0.08
415.851	0.07
416.211	0.08
416.571	0.07
416.931	0.07
417.29	0.08
417.65	0.07
418.009	0.06
418.369	0.07
418.728	0.06
419.088	0.06
419.447	0.07
419.807	0.06
420.166	0.06
420.525	0.06
420.884	0.07
421.244	0.06
421.603	0.05
421.962	0.05
422.321	0.06
422.68	0.05
423.039	0.06
423.398	0.05
423.757	0.05
424.116	0.05
424.475	0.05
424.834	0.05
425.193	0.05
425.551	0.05
425.91	0.05
426.269	0.05
426.628	0.05
426.986	0.05
427.345	0.05
427.703	0.05
428.062	0.05
428.42	0.04
428.779	0.05
429.137	0.05
429.496	0.04
429.854	0.05
430.212	0.04
430.57	0.04
430.929	0.03
431.287	0.03
431.645	0.04
432.003	0.04
432.361	0.04
432.719	0.04
433.077	0.04
433.435	0.04
433.793	0.04
434.151	0.04
434.509	0.04
434.866	0.04
435.224	0.04
435.582	0.04
435.94	0.04
436.297	0.04
436.655	0.03
437.012	0.03
437.37	0.03
437.727	0.03
438.085	0.04
438.442	0.04
438.8	0.04
439.157	0.03
439.514	0.03
439.872	0.03
440.229	0.04
440.586	0.03
440.943	0.03
441.3	0.03
441.657	0.03
442.014	0.03
442.371	0.02
442.728	0.03
443.085	0.03
443.442	0.02
443.799	0.02
444.156	0.02
444.513	0.02
444.869	0.03
445.226	0.02
445.583	0.02
445.939	0.02
446.296	0.02
446.652	0.01
447.009	0.02
447.365	0.01
447.722	0.02
448.078	0.02
448.434	0.02
448.791	0.02
449.147	0.01
449.503	0.02
449.859	0.01
450.215	0.01
450.571	0.01
450.928	0
451.284	0.01
451.64	0.01
451.995	-0
452.351	0.01
452.707	-0
453.063	-0.01
453.419	-0
453.775	-0.01
454.13	-0.01
454.486	-0.01
454.842	-0.01
455.197	-0.01
455.553	-0.02
455.908	-0.02
456.264	-0.02
456.619	-0.03
456.975	-0.04
457.33	-0.03
457.685	-0.03
458.04	-0.05
458.396	-0.05
458.751	-0.05
459.106	-0.06
459.461	-0.06
459.816	-0.06
460.171	-0.07
460.526	-0.07
460.881	-0.08
461.236	-0.08
461.591	-0.08
461.946	-0.09
462.301	-0.09
462.655	-0.1
463.01	-0.1
463.365	-0.1
463.719	-0.1
464.074	-0.11
464.428	-0.12
464.783	-0.12
465.137	-0.13
465.492	-0.12
465.846	-0.13
466.201	-0.13
466.555	-0.13
466.909	-0.13
467.263	-0.13
467.618	-0.12
467.972	-0.13
468.326	-0.13
468.68	-0.13
469.034	-0.13
469.388	-0.15
469.742	-0.14
470.096	-0.14
470.45	-0.14
470.804	-0.13
471.157	-0.14
471.511	-0.15
471.865	-0.14
472.218	-0.14
472.572	-0.14
472.926	-0.13
473.279	-0.13
473.633	-0.13
473.986	-0.12
474.34	-0.12
474.693	-0.11
475.046	-0.1
475.4	-0.1
475.753	-0.09
476.106	-0.09
476.459	-0.08
476.812	-0.08
477.165	-0.06
477.519	-0.06
477.872	-0.05
478.224	-0.06
478.577	-0.05
478.93	-0.05
479.283	-0.04
479.636	-0.05
479.989	-0.04
480.341	-0.04
480.694	-0.03
481.047	-0.03
481.399	-0.03
481.752	-0.02
482.104	-0.02
482.457	-0.02
482.809	-0.01
483.162	-0.01
483.514	-0.01
483.866	-0.01
484.219	-0.01
484.571	-0.01
484.923	-0
485.275	-0
485.627	-0
485.979	-0
486.331	0
486.683	0.01
487.035	0.01
487.387	0.01
487.739	0.01
488.091	0.02
488.443	0.02
488.794	0.02
489.146	0.02
489.498	0.02
489.849	0.02
490.201	0.02
490.552	0.02
490.904	0.02
491.255	0.02
491.607	0.02
491.958	0.03
492.309	0.03
492.661	0.03
493.012	0.03
493.363	0.03
493.714	0.03
494.065	0.03
494.416	0.03
494.767	0.03
495.118	0.04
495.469	0.04
495.82	0.04
496.171	0.04
496.522	0.04
496.872	0.04
497.223	0.04
497.574	0.04
497.924	0.04
498.275	0.05
498.626	0.05
498.976	0.05
499.327	0.05
499.677	0.05
500.027	0.05
500.378	0.05
500.728	0.05
501.078	0.05
501.428	0.05
501.779	0.05
502.129	0.06
502.479	0.06
502.829	0.06
503.179	0.06
503.529	0.06
503.879	0.06
504.229	0.06
504.578	0.06
504.928	0.07
505.278	0.07
505.628	0.07
505.977	0.07
506.327	0.07
506.676	0.07
507.026	0.07
507.375	0.07
507.725	0.07
508.074	0.07
508.424	0.07
508.773	0.08
509.122	0.08
509.471	0.07
509.82	0.08
510.17	0.07
510.519	0.08
510.868	0.08
511.217	0.08
511.566	0.08
511.915	0.08
512.263	0.08
512.612	0.08
512.961	0.09
513.31	0.08
513.659	0.08
514.007	0.08
514.356	0.09
514.704	0.09
515.053	0.09
515.401	0.09
515.75	0.09
516.098	0.09
516.447	0.09
516.795	0.1
517.143	0.1
517.491	0.1
517.839	0.1
518.188	0.1
518.536	0.1
518.884	0.1
519.232	0.1
519.58	0.1
519.928	0.1
520.275	0.1
520.623	0.1
520.971	0.1
521.319	0.11
521.666	0.1
522.014	0.11
522.362	0.11
522.709	0.1
523.057	0.11
523.404	0.11
523.752	0.11
524.099	0.11
524.446	0.11
524.794	0.11
525.141	0.11
525.488	0.11
525.835	0.11
526.182	0.11
526.529	0.11
526.876	0.12
527.223	0.12
527.57	0.12
527.917	0.12
528.264	0.12
528.611	0.12
528.958	0.12
529.304	0.12
529.651	0.12
529.998	0.12
530.344	0.13
530.691	0.12
531.037	0.12
531.384	0.13
531.73	0.13
532.076	0.13
532.423	0.13
532.769	0.13
533.115	0.13
533.461	0.13
533.807	0.14
534.154	0.14
534.5	0.14
534.846	0.14
535.192	0.13
535.537	0.14
535.883	0.14
536.229	0.14
536.575	0.14
536.921	0.14
537.266	0.15
537.612	0.15
537.957	0.14
538.303	0.14
538.649	0.15
538.994	0.15
539.339	0.15
539.685	0.15
540.03	0.15
540.375	0.15
540.721	0.15
541.066	0.16
541.411	0.16
541.756	0.16
542.101	0.16
542.446	0.16
542.791	0.16
543.136	0.17
543.481	0.17
543.825	0.17
544.17	0.17
544.515	0.17
544.86	0.17
545.204	0.17
545.549	0.17
545.893	0.17
546.238	0.17
546.582	0.18
546.927	0.18
547.271	0.18
547.615	0.18
547.96	0.18
548.304	0.18
548.648	0.18
548.992	0.18
549.336	0.18
549.68	0.18
550.024	0.18
550.368	0.19
550.712	0.18
551.056	0.18
551.4	0.19
551.743	0.19
552.087	0.19
552.431	0.19
552.774	0.19
553.118	0.19
553.462	0.19
553.805	0.2
554.148	0.2
554.492	0.2
554.835	0.2
555.178	0.2
555.522	0.2
555.865	0.2
556.208	0.2
556.551	0.2
556.894	0.2
557.237	0.21
557.58	0.2
557.923	0.2
558.266	0.21
558.609	0.21
558.952	0.21
559.294	0.21
559.637	0.2
559.98	0.21
560.322	0.21
560.665	0.21
561.007	0.21
561.35	0.21
561.692	0.21
562.034	0.21
562.377	0.21
562.719	0.21
563.061	0.21
563.403	0.21
563.745	0.21
564.088	0.21
564.43	0.21
564.772	0.21
565.113	0.21
565.455	0.22
565.797	0.22
566.139	0.22
566.481	0.22
566.822	0.22
567.164	0.22
567.506	0.22
567.847	0.22
568.189	0.22
568.53	0.22
568.872	0.22
569.213	0.22
569.554	0.22
569.895	0.22
570.237	0.22
570.578	0.22
570.919	0.22
571.26	0.22
571.601	0.22
571.942	0.22
572.283	0.22
572.624	0.22
572.965	0.22
573.306	0.22
573.646	0.21
573.987	0.22
574.328	0.22
574.668	0.22
575.009	0.22
575.349	0.22
575.69	0.22
576.03	0.22
576.37	0.22
576.711	0.21
577.051	0.22
577.391	0.22
577.731	0.22
578.072	0.22
578.412	0.22
578.752	0.22
579.092	0.22
579.431	0.22
579.771	0.21
580.111	0.21
580.451	0.21
580.791	0.22
581.13	0.22
581.47	0.22
581.81	0.22
582.149	0.22
582.489	0.22
582.828	0.22
583.167	0.22
583.507	0.2
583.846	0.18
584.185	0.19
584.525	0.21
584.864	0.22
585.203	0.22
585.542	0.22
585.881	0.23
586.22	0.23
586.559	0.23
586.898	0.23
587.236	0.22
587.575	0.23
587.914	0.22
588.252	0.23
588.591	0.23
588.93	0.24
589.268	0.23
589.607	0.23
589.945	0.24
590.283	0.24
590.622	0.24
590.96	0.24
591.298	0.24
591.636	0.24
591.974	0.25
592.313	0.25
592.651	0.25
592.989	0.25
593.326	0.25
593.664	0.26
594.002	0.25
594.34	0.25
594.678	0.25
595.015	0.25
595.353	0.25
595.691	0.25
596.028	0.25
596.366	0.26
596.703	0.26
597.04	0.26
597.378	0.26
597.715	0.26
598.052	0.26
598.389	0.26
598.726	0.27
599.064	0.27
599.401	0.27
599.738	0.27
600.074	0.27
600.411	0.27
600.748	0.27
601.085	0.27
601.422	0.26
601.758	0.26
602.095	0.26
602.432	0.27
602.768	0.27
603.105	0.27
603.441	0.27
603.777	0.27
604.114	0.28
604.45	0.28
604.786	0.28
605.122	0.27
605.459	0.27
605.795	0.27
606.131	0.27
606.467	0.27
606.803	0.27
607.139	0.27
607.474	0.27
607.81	0.27
608.146	0.27
608.482	0.27
608.817	0.27
609.153	0.27
609.488	0.26
609.824	0.26
610.159	0.27
610.495	0.27
610.83	0.27
611.165	0.27
611.5	0.26
611.836	0.27
612.171	0.26
612.506	0.26
612.841	0.26
613.176	0.26
613.511	0.26
613.845	0.26
614.18	0.26
614.515	0.26
614.85	0.26
615.184	0.26
615.519	0.26
615.854	0.26
616.188	0.26
616.523	0.26
616.857	0.25
617.191	0.26
617.526	0.25
617.86	0.25
618.194	0.25
618.528	0.25
618.862	0.25
619.196	0.25
619.53	0.25
619.864	0.25
620.198	0.25
620.532	0.25
620.866	0.25
621.2	0.25
621.533	0.24
621.867	0.25
622.201	0.24
622.534	0.24
622.868	0.24
623.201	0.24
623.534	0.24
623.868	0.24
624.201	0.24
624.534	0.24
624.868	0.24
625.201	0.24
625.534	0.24
625.867	0.24
626.2	0.24
626.533	0.23
626.865	0.23
627.198	0.23
627.531	0.23
627.864	0.23
628.196	0.23
628.529	0.23
628.862	0.23
629.194	0.23
629.527	0.22
629.859	0.22
630.191	0.22
630.524	0.22
630.856	0.22
631.188	0.22
631.52	0.21
631.852	0.21
632.184	0.21
632.516	0.21
632.848	0.21
633.18	0.21
633.512	0.21
633.844	0.21
634.175	0.21
634.507	0.21
634.839	0.2
635.17	0.2
635.502	0.2
635.833	0.2
636.165	0.2
636.496	0.2
636.827	0.2
637.159	0.19
637.49	0.19
637.821	0.19
638.152	0.19
638.483	0.19
638.814	0.19
639.145	0.19
639.476	0.18
639.807	0.18
640.137	0.18
640.468	0.18
640.799	0.17
641.129	0.17
641.46	0.17
641.791	0.17
642.121	0.17
642.451	0.17
642.782	0.17
643.112	0.17
643.442	0.17
643.773	0.17
644.103	0.17
644.433	0.17
644.763	0.16
645.093	0.16
645.423	0.16
645.753	0.16
646.082	0.16
646.412	0.16
646.742	0.16
647.072	0.16
647.401	0.16
647.731	0.16
648.06	0.16
648.39	0.16
648.719	0.15
649.048	0.16
649.378	0.16
649.707	0.16
650.036	0.16
650.365	0.15
650.694	0.16
651.023	0.15
651.352	0.15
651.681	0.15
652.01	0.16
652.339	0.16
652.668	0.16
652.996	0.16
653.325	0.15
653.654	0.15
653.982	0.15
654.311	0.15
654.639	0.15
654.967	0.15
655.296	0.15
655.624	0.15
655.952	0.15
656.28	0.15
656.609	0.15
656.937	0.15
657.265	0.15
657.593	0.13
657.92	0.01
658.248	0
658.576	0
658.904	0.03
659.231	0.12
659.559	0.14
659.887	0.15
660.214	0.15
660.542	0.15
660.869	0.15
661.196	0.15
661.524	0.15
661.851	0.15
662.178	0.15
662.505	0.15
662.832	0.15
663.159	0.14
663.486	0.15
663.813	0.15
664.14	0.15
664.467	0.15
664.794	0.15
665.12	0.15
665.447	0.15
665.774	0.15
666.1	0.15
666.427	0.15
666.753	0.14
667.079	0.15
667.406	0.14
667.732	0.14
668.058	0.14
668.384	0.14
668.71	0.14
669.036	0.14
669.362	0.14
669.688	0.14
670.014	0.14
670.34	0.14
670.666	0.14
670.991	0.14
671.317	0.14
671.643	0.14
671.968	0.14
672.294	0.14
672.619	0.14
672.945	0.14
673.27	0.14
673.595	0.13
673.92	0.13
674.246	0.13
674.571	0.13
674.896	0.13
675.221	0.13
675.546	0.13
675.87	0.13
676.195	0.12
676.52	0.12
676.845	0.13
677.169	0.13
677.494	0.13
677.819	0.13
678.143	0.13
678.468	0.13
678.792	0.12
679.116	0.12
679.44	0.12
679.765	0.11
680.089	0.11
680.413	0.11
680.737	0.11
681.061	0.11
681.385	0.11
681.709	0.11
682.033	0.11
682.356	0.11
682.68	0.11
683.004	0.11
683.327	0.11
683.651	0.11
683.974	0.11
684.298	0.1
684.621	0.1
684.944	0.1
685.268	0.1
685.591	0.1
685.914	0.1
686.237	0.1
686.56	0.1
686.883	0.1
687.206	0.09
687.529	0.09
687.852	0.09
688.175	0.09
688.497	0.09
688.82	0.09
689.142	0.09
689.465	0.09
689.787	0.09
690.11	0.09
690.432	0.09
690.755	0.09
691.077	0.09
691.399	0.09
691.721	0.09
692.043	0.08
692.365	0.08
692.687	0.08
693.009	0.08
693.331	0.08
693.653	0.08
693.974	0.08
694.296	0.08
694.618	0.08
694.939	0.08
695.261	0.08
695.582	0.07
695.904	0.07
696.225	0.07
696.546	0.07
696.868	0.07
697.189	0.07
697.51	0.07
697.831	0.07
698.152	0.07
698.473	0.07
698.794	0.07
699.114	0.07
699.435	0.06
699.756	0.06
700.077	0.07
700.397	0.06
700.718	0.07
701.038	0.07
701.359	0.07
701.679	0.07
701.999	0.07
702.32	0.07
702.64	0.07
702.96	0.07
703.28	0.07
703.6	0.07
703.92	0.07
704.24	0.06
704.56	0.06
704.879	0.07
705.199	0.07
705.519	0.06
705.838	0.06
706.158	0.06
706.478	0.06
706.797	0.06
707.116	0.06
707.436	0.06
707.755	0.06
708.074	0.06
708.393	0.06
708.712	0.06
709.031	0.06
709.35	0.05
709.669	0.06
709.988	0.06
710.307	0.06
710.626	0.06
710.944	0.06
711.263	0.06
711.582	0.06
711.9	0.06
712.219	0.06
712.537	0.06
712.855	0.06
713.174	0.06
713.492	0.05
713.81	0.06
714.128	0.06
714.446	0.06
714.764	0.05
715.082	0.06
715.4	0.06
715.718	0.06
716.035	0.05
716.353	0.05
716.671	0.05
716.988	0.05
717.306	0.05
717.623	0.06
717.941	0.06
718.258	0.06
718.575	0.06
718.893	0.06
719.21	0.06
719.527	0.06
719.844	0.06
720.161	0.06
720.478	0.06
720.795	0.06
721.112	0.06
721.428	0.06
721.745	0.06
722.062	0.06
722.378	0.06
722.695	0.06
723.011	0.06
723.328	0.05
723.644	0.06
723.96	0.06
724.276	0.06
724.593	0.07
724.909	0.07
725.225	0.07
725.541	0.07
725.857	0.07
726.173	0.07
726.488	0.07
726.804	0.07
727.12	0.07
727.435	0.06
727.751	0.06
728.067	0.06
728.382	0.07
728.697	0.07
729.013	0.07
729.328	0.06
729.643	0.07
729.958	0.07
730.273	0.07
730.588	0.07
730.903	0.07
731.218	0.07
731.533	0.07
731.848	0.07
732.163	0.06
732.477	0.07
732.792	0.07
733.107	0.06
733.421	0.07
733.736	0.06
734.05	0.07
734.364	0.07
734.678	0.07
734.993	0.06
735.307	0.07
735.621	0.06
735.935	0.06
736.249	0.06
736.563	0.06
736.877	0.06
737.19	0.06
737.504	0.07
737.818	0.07
738.131	0.07
738.445	0.06
738.758	0.06
739.072	0.06
739.385	0.06
739.698	0.07
740.012	0.07
740.325	0.06
740.638	0.06
740.951	0.06
741.264	0.06
741.577	0.06
741.89	0.06
742.203	0.06
742.515	0.06
742.828	0.06
743.141	0.06
743.453	0.06
743.766	0.06
744.078	0.06
744.391	0.06
744.703	0.06
745.015	0.06
745.327	0.06
745.639	0.06
745.952	0.06
746.264	0.06
746.575	0.06
746.887	0.06
747.199	0.06
747.511	0.06
747.823	0.06
748.134	0.06
748.446	0.06
748.757	0.06
749.069	0.06
749.38	0.06
749.692	0.05
750.003	0.05
750.314	0.06
750.625	0.05
750.936	0.05
751.248	0.06
751.559	0.05
751.869	0.05
752.18	0.05
752.491	0.05
752.802	0.05
753.112	0.05
753.423	0.05
753.734	0.05
754.044	0.05
754.355	0.05
754.665	0.05
754.975	0.05
755.285	0.05
755.596	0.04
755.906	0.04
756.216	0.04
756.526	0.05
756.836	0.04
757.146	0.04
757.455	0.04
757.765	0.05
758.075	0.04
758.385	0.04
758.694	0.04
759.004	0.04
759.313	0.04
759.622	0.04
759.932	0.04
760.241	0.04
760.55	0.04
760.859	0.03
761.168	0.03
761.477	0.03
761.786	0.03
762.095	0.03
762.404	0.03
762.713	0.03
763.021	0.03
763.33	0.03
763.639	0.03
763.947	0.03
764.256	0.03
764.564	0.03
764.872	0.03
765.181	0.03
765.489	0.03
765.797	0.03
766.105	0.03
766.413	0.03
766.721	0.03
767.029	0.03
767.337	0.03
767.644	0.03
767.952	0.03
768.26	0.03
768.567	0.03
768.875	0.03
769.182	0.03
769.49	0.03
769.797	0.03
770.104	0.03
770.411	0.03
770.718	0.03
771.026	0.03
771.333	0.03
771.639	0.03
771.946	0.03
772.253	0.03
772.56	0.03
772.867	0.03
773.173	0.03
773.48	0.02
773.786	0.02
774.093	0.02
774.399	0.02
774.705	0.02
775.012	0.02
775.318	0.02
775.624	0.03
775.93	0.03
776.236	0.03
776.542	0.03
776.848	0.03
777.154	0.03
777.459	0.03
777.765	0.03
778.071	0.03
778.376	0.03
778.682	0.03
778.987	0.03
779.292	0.03
779.598	0.03
779.903	0.03
780.208	0.02
780.513	0.02
780.818	0.02
781.123	0.03
781.428	0.02
781.733	0.02
782.038	0.02
782.343	0.03
782.647	0.03
782.952	0.03
783.256	0.03
783.561	0.03
783.865	0.02
784.17	0.03
784.474	0.03
784.778	0.03
785.082	0.03
785.386	0.03
785.69	0.03
785.994	0.03
786.298	0.03
786.602	0.03
786.906	0.03
787.209	0.03
787.513	0.03
787.817	0.03
788.12	0.03
788.424	0.04
788.727	0.03
789.03	0.03
789.333	0.03
789.637	0.02
789.94	0.02
790.243	0.02
790.546	0.02
790.849	0.02
791.152	0.02
791.454	0.02
791.757	0.01
792.06	0.02
792.362	0.01
792.665	0.01
792.967	0.01
793.27	0.01
793.572	0.02
793.874	0.01
794.177	0.01
794.479	0.02
794.781	0.02
795.083	0.02
795.385	0.02
795.687	0.02
795.989	0.02
796.29	0.02
796.592	0.02
796.894	0.02
797.195	0.02
797.497	0.02
797.798	0.02
798.1	0.02
798.401	0.02
798.702	0.02
799.003	0.01
799.304	0.02
799.605	0.02
799.906	0.01
800.207	0.02
800.508	0.01
800.809	0.02
801.11	0.01
801.41	0.01
801.711	0.01
802.011	0.02
802.312	0.02
802.612	0.02
802.913	0.02
803.213	0.02
803.513	0.02
803.813	0.02
804.113	0.02
804.413	0.02
804.713	0.01
805.013	0.02
805.313	0.02
805.613	0.02
805.912	0.01
806.212	0.01
806.511	0.01
806.811	0.02
807.11	0.02
807.41	0.02
807.709	0.02
808.008	0.02
808.307	0.02
808.606	0.02
808.905	0.02
809.204	0.02
809.503	0.01
809.802	0.02
810.101	0.02
810.399	0.02
810.698	0.01
810.997	0.02
811.295	0.02
811.593	0.02
811.892	0.02
812.19	0.03
812.488	0.02
812.786	0.02
813.084	0.02
813.383	0.02
813.68	0.02
813.978	0.02
814.276	0.02
814.574	0.01
814.872	0.02
815.169	0.01
815.467	0.02
815.764	0.02
816.062	0.01
816.359	0.01
816.656	0.01
816.954	0.01
817.251	0.02
817.548	0
817.845	0.01
818.142	0.02
818.439	0.01
818.735	0.02
819.032	0.01
819.329	0.01
819.626	0.02
819.922	0.01
820.219	0.01
820.515	0.01
820.811	0.01
821.108	0.01
821.404	0.01
821.7	0.01
821.996	0.01
822.292	0.01
822.588	0.01
822.884	0.01
823.18	0.01
823.475	0.01
823.771	0.01
824.067	0.01
824.362	0
824.658	0.01
824.953	0.01
825.249	0.01
825.544	0.01
825.839	0.01
826.134	0.01
826.429	0.01
826.724	0.01
827.019	0.01
827.314	0.01
827.609	0.01
827.904	0.01
828.198	0.01
828.493	0.01
828.787	0.01
829.082	0.01
829.376	0.01
829.671	0.01
829.965	0.01
830.259	0.01
830.553	0
830.847	0
831.141	0.01
831.435	0.01
831.729	0
832.023	0
832.317	0.01
832.61	0
832.904	0.01
833.197	0.01
833.491	0
833.784	0
834.077	0
834.371	0.01
834.664	0.01
834.957	0.01
835.25	0.02
835.543	0.01
835.836	0.01
836.129	0.01
836.421	0.01
836.714	0.01
837.007	0.01
837.299	0.01
837.592	0
837.884	0
838.177	-0
838.469	0.01
838.761	0
839.053	0
839.345	0.01
839.637	0.01
839.929	0.01
840.221	0.02
840.513	0.01
840.805	0.01
841.096	0.02
841.388	-0.01
841.68	0
841.971	0.01
842.262	0.01
842.554	0.01
842.845	0
843.136	0.01
843.427	0
843.718	0.01
844.009	0
844.3	0.01
844.591	0.01
844.882	0
845.173	0.01
845.463	-0
845.754	0
846.044	0.01
846.335	0
846.625	0.01
846.915	-0
847.206	-0
847.496	0.01
847.786	0.01
848.076	-0
848.366	-0
848.656	-0
848.945	-0.01
849.235	0.01
849.525	0
849.814	0.01
850.104	0.01
850.393	0.01
850.683	0
850.972	0.01
851.261	0.02
851.551	0.01
851.84	0.03
852.129	0.02
852.418	0
852.707	0.01
852.995	-0
853.284	0.01
853.573	0.01
853.862	0.01
854.15	0.01
854.439	0
854.727	0
855.015	0
855.304	0
855.592	-0.01
855.88	-0.01
856.168	-0.01
856.456	-0.01
856.744	0.01
857.032	-0.04
857.32	-0.02
857.607	-0.01
857.895	-0.02
858.183	0.01
858.47	-0
858.757	-0.02
859.045	-0.01
859.332	-0.01
859.619	-0
859.907	-0.01
860.194	-0.01
860.481	-0.01
860.768	-0.02
861.054	-0
861.341	0
861.628	-0.01
861.915	-0.02
862.201	0
862.488	-0.03
862.774	-0.02
863.061	-0.01
863.347	-0.01
863.633	-0.02
863.919	-0.02
864.205	-0.01
864.491	-0.03
864.777	-0.03
865.063	0.01
865.349	0.01
865.635	-0.01
865.92	0.01
866.206	-0.01
866.492	-0
866.777	-0.03
867.062	-0.04
867.348	-0.05
867.633	0.01
867.918	-0.03
868.203	-0.01
868.488	-0.02
868.773	0
869.058	-0.07
869.343	-0.05
869.628	-0.02
869.912	0.01
870.197	-0
870.482	-0.06
870.766	-0.05
871.05	-0.01
871.335	-0.02
871.619	-0.02
871.903	0.01
872.187	-0.01
872.471	-0.02
872.755	-0.04
873.039	-0.02
873.323	-0.03
873.607	-0.02
873.89	-0.07
874.174	-0.05
874.458	-0.07
874.741	-0.02
875.024	-0.09
875.308	0.04
875.591	-0.08
875.874	0.06
876.157	-0.03
876.44	-0.06
876.723	0.06
877.006	0.02
877.289	-0.05
877.572	-0.06
877.854	-0.01
878.137	-0.03
878.42	0.13
878.702	-0.08
878.984	-0.07
879.267	-0.09
879.549	-0.01
879.831	-0.07
880.113	-0.13
880.395	0.08
880.677	-0.13
880.959	0.1
