Data from Rubpy_EV_900_EDTA_Buffered_Absorbance_13-43-06-731.txt Node
Date: Tue Jun 30 13:43:06 BST 2026
User: fpm-admin
Spectrometer: OFX00224
Trigger mode: 0
Integration Time (sec): 7.000000E-2
Scans to average: 3
Nonlinearity correction enabled: false
Boxcar width: 0
Storing dark spectrum: false
XAxis mode: Wavelengths
Number of Pixels in Spectrum: 2136
>>>>>Begin Spectral Data<<<<<
154.91	1.43
155.289	-1.66
155.669	-0
156.048	-0.79
156.428	-0.32
156.807	0.53
157.186	-0.09
157.566	1.07
157.945	0.06
158.325	-0.62
158.704	-0.33
159.083	0.11
159.462	0.13
159.842	-0.12
160.221	0.73
160.6	0.25
160.979	0.74
161.359	-0
161.738	-0
162.117	-0.44
162.496	-0
162.875	-0
163.254	0.05
163.633	0.07
164.012	-1.04
164.391	-0.12
164.77	0.48
165.149	-0.16
165.528	-0
165.907	-0
166.286	-0
166.665	-0
167.044	-0
167.423	-0.05
167.802	0.18
168.181	-0
168.559	-0
168.938	-0
169.317	0.06
169.696	-0
170.074	-0
170.453	-0
170.832	-0
171.21	0.45
171.589	-0
171.968	-0
172.346	-0.8
172.725	1.15
173.103	-0
173.482	-0.25
173.861	0.35
174.239	0.86
174.617	-0
174.996	-0
175.374	-0
175.753	0.09
176.131	-0
176.51	-0.3
176.888	-0
177.266	-0
177.645	0.06
178.023	0.66
178.401	-0.13
178.779	-0
179.158	-0
179.536	0.09
179.914	-0.11
180.292	-0
180.67	-0
181.048	0.16
181.427	0.11
181.805	-0
182.183	-0.85
182.561	-0
182.939	0.56
183.317	-0
183.695	-0.02
184.073	-0.9
184.451	0.12
184.829	0.05
185.206	-0
185.584	-0
185.962	0.33
186.34	-0.04
186.718	0.32
187.096	-0.02
187.473	0.19
187.851	-0.46
188.229	0.19
188.607	0.03
188.984	0.13
189.362	0.14
189.74	0.05
190.117	0.05
190.495	0.13
190.872	0.17
191.25	0.28
191.627	0.09
192.005	0.09
192.382	0.12
192.76	0.09
193.137	0.1
193.515	0.15
193.892	0.24
194.269	0.15
194.647	0.08
195.024	0.17
195.401	0.16
195.779	0.11
196.156	0.21
196.533	0.15
196.91	0.21
197.288	0.1
197.665	0.07
198.042	0.2
198.419	0.07
198.796	0.18
199.173	0.11
199.55	0.23
199.927	0.16
200.304	0.12
200.681	0.1
201.058	0.19
201.435	0.24
201.812	0.24
202.189	0.12
202.566	0.14
202.943	0.22
203.32	0.15
203.697	0.13
204.073	0.18
204.45	0.16
204.827	0.14
205.204	0.16
205.58	0.07
205.957	0.2
206.334	0.1
206.71	0.22
207.087	0.04
207.464	0.18
207.84	0.1
208.217	0.26
208.593	0.15
208.97	0.1
209.346	0.16
209.723	0.14
210.099	0.18
210.476	0.09
210.852	0.04
211.228	0.13
211.605	0.1
211.981	0.22
212.357	0.18
212.733	0.3
213.11	0.11
213.486	0.14
213.862	0.17
214.238	0.12
214.614	0.19
214.991	0.17
215.367	0.17
215.743	0.12
216.119	0.08
216.495	0.14
216.871	0.1
217.247	0.18
217.623	0.16
217.999	0.2
218.375	0.18
218.751	0.06
219.127	0.11
219.502	0.11
219.878	0.16
220.254	0.13
220.63	0.06
221.006	0.21
221.381	0.18
221.757	0.09
222.133	0.07
222.508	0.12
222.884	0.2
223.26	0.2
223.635	0.22
224.011	0.1
224.386	0.1
224.762	0.19
225.137	0.19
225.513	0.13
225.888	0.14
226.264	0.12
226.639	0.16
227.014	0.19
227.39	0.14
227.765	0.14
228.14	0.15
228.516	0.11
228.891	0.16
229.266	0.19
229.641	0.17
230.017	0.19
230.392	0.22
230.767	0.1
231.142	0.22
231.517	0.22
231.892	0.07
232.267	0.09
232.642	0.15
233.017	0.07
233.392	0.2
233.767	0.15
234.142	0.19
234.517	0.17
234.892	0.04
235.267	0.21
235.641	0.18
236.016	0.24
236.391	0.14
236.766	0.06
237.14	0.12
237.515	0.1
237.89	0.09
238.264	0.14
238.639	0.02
239.014	0.27
239.388	0.15
239.763	0.23
240.137	0.16
240.512	0.09
240.886	0.08
241.261	0.2
241.635	0.25
242.009	0.13
242.384	0.23
242.758	0.29
243.132	0.18
243.507	0.21
243.881	0.16
244.255	0.23
244.629	0.26
245.004	0.13
245.378	0.16
245.752	0.16
246.126	0.09
246.5	0.18
246.874	0.24
247.248	0.19
247.622	0.23
247.996	0.17
248.37	0.19
248.744	0.2
249.118	0.18
249.492	0.32
249.866	0.13
250.24	0.13
250.613	0.12
250.987	0.14
251.361	0.1
251.735	0.1
252.108	0.14
252.482	0.17
252.856	0.14
253.229	0.15
253.603	0.2
253.977	0.27
254.35	0.16
254.724	0.21
255.097	0.12
255.471	0.21
255.844	0.17
256.218	0.22
256.591	0.14
256.964	0.24
257.338	0.16
257.711	0.17
258.084	0.11
258.458	0.19
258.831	0.14
259.204	0.13
259.577	0.1
259.95	0.11
260.323	0.12
260.697	0.12
261.07	0.1
261.443	0.12
261.816	0.17
262.189	0.04
262.562	0.2
262.935	0.17
263.308	0.12
263.68	0.12
264.053	0.2
264.426	0.14
264.799	0.17
265.172	0.25
265.545	0.22
265.917	0.19
266.29	0.18
266.663	0.07
267.035	0.16
267.408	0.21
267.781	0.15
268.153	0.22
268.526	0.26
268.898	0.14
269.271	0.13
269.643	0.11
270.016	0.12
270.388	0.23
270.76	0.12
271.133	0.2
271.505	0.15
271.877	0.18
272.25	0.2
272.622	0.19
272.994	0.22
273.366	0.13
273.739	0.13
274.111	0.08
274.483	0.2
274.855	0.11
275.227	0.18
275.599	0.13
275.971	0.16
276.343	0.17
276.715	0.12
277.087	0.22
277.459	0.16
277.831	0.21
278.203	0.2
278.574	0.12
278.946	0.16
279.318	0.21
279.69	0.1
280.061	0.16
280.433	0.05
280.805	0.21
281.176	0.12
281.548	0.17
281.92	0.1
282.291	0.09
282.663	0.12
283.034	0.14
283.406	0.17
283.777	0.15
284.148	0.18
284.52	0.14
284.891	0.15
285.262	0.17
285.634	0.2
286.005	0.19
286.376	0.22
286.747	0.19
287.119	0.13
287.49	0.18
287.861	0.18
288.232	0.11
288.603	0.18
288.974	0.19
289.345	0.16
289.716	0.14
290.087	0.14
290.458	0.23
290.829	0.13
291.2	0.2
291.571	0.15
291.941	0.13
292.312	0.13
292.683	0.19
293.054	0.21
293.424	0.15
293.795	0.16
294.166	0.25
294.536	0.24
294.907	0.18
295.277	0.09
295.648	0.11
296.018	0.17
296.389	0.16
296.759	0.12
297.13	0.11
297.5	0.2
297.871	0.12
298.241	0.17
298.611	0.18
298.981	0.15
299.352	0.16
299.722	0.15
300.092	0.15
300.462	0.15
300.832	0.13
301.202	0.12
301.573	0.09
301.943	0.13
302.313	0.09
302.683	0.11
303.053	0.09
303.422	0.12
303.792	0.1
304.162	0.11
304.532	0.13
304.902	0.1
305.272	0.11
305.641	0.11
306.011	0.12
306.381	0.11
306.75	0.11
307.12	0.11
307.49	0.12
307.859	0.11
308.229	0.12
308.598	0.13
308.968	0.13
309.337	0.12
309.707	0.13
310.076	0.13
310.445	0.14
310.815	0.14
311.184	0.14
311.553	0.14
311.923	0.15
312.292	0.14
312.661	0.14
313.03	0.14
313.399	0.14
313.768	0.14
314.137	0.14
314.506	0.14
314.875	0.13
315.244	0.14
315.613	0.15
315.982	0.14
316.351	0.14
316.72	0.14
317.089	0.14
317.458	0.14
317.826	0.14
318.195	0.13
318.564	0.14
318.933	0.14
319.301	0.14
319.67	0.13
320.038	0.13
320.407	0.13
320.775	0.13
321.144	0.13
321.512	0.13
321.881	0.12
322.249	0.12
322.618	0.12
322.986	0.12
323.354	0.12
323.723	0.12
324.091	0.12
324.459	0.12
324.827	0.12
325.195	0.11
325.564	0.11
325.932	0.12
326.3	0.11
326.668	0.12
327.036	0.12
327.404	0.11
327.772	0.11
328.14	0.11
328.508	0.11
328.875	0.12
329.243	0.11
329.611	0.12
329.979	0.12
330.346	0.11
330.714	0.11
331.082	0.12
331.449	0.11
331.817	0.12
332.185	0.12
332.552	0.12
332.92	0.12
333.287	0.12
333.655	0.12
334.022	0.12
334.389	0.12
334.757	0.12
335.124	0.13
335.491	0.12
335.859	0.12
336.226	0.13
336.593	0.13
336.96	0.13
337.327	0.13
337.695	0.13
338.062	0.14
338.429	0.14
338.796	0.14
339.163	0.14
339.53	0.14
339.897	0.14
340.263	0.15
340.63	0.15
340.997	0.15
341.364	0.15
341.731	0.15
342.097	0.16
342.464	0.16
342.831	0.16
343.197	0.17
343.564	0.17
343.931	0.17
344.297	0.17
344.664	0.18
345.03	0.18
345.396	0.18
345.763	0.18
346.129	0.19
346.496	0.19
346.862	0.19
347.228	0.19
347.594	0.2
347.961	0.2
348.327	0.2
348.693	0.2
349.059	0.21
349.425	0.21
349.791	0.22
350.157	0.22
350.523	0.22
350.889	0.23
351.255	0.24
351.621	0.24
351.987	0.24
352.353	0.24
352.719	0.25
353.084	0.26
353.45	0.26
353.816	0.27
354.181	0.27
354.547	0.27
354.913	0.28
355.278	0.29
355.644	0.29
356.009	0.3
356.375	0.31
356.74	0.31
357.106	0.32
357.471	0.33
357.836	0.33
358.202	0.34
358.567	0.35
358.932	0.34
359.297	0.36
359.663	0.37
360.028	0.36
360.393	0.37
360.758	0.37
361.123	0.38
361.488	0.39
361.853	0.39
362.218	0.39
362.583	0.4
362.948	0.4
363.312	0.41
363.677	0.41
364.042	0.43
364.407	0.42
364.772	0.43
365.136	0.44
365.501	0.46
365.865	0.46
366.23	0.47
366.595	0.49
366.959	0.49
367.324	0.5
367.688	0.51
368.052	0.51
368.417	0.53
368.781	0.53
369.145	0.54
369.51	0.54
369.874	0.55
370.238	0.54
370.602	0.54
370.967	0.54
371.331	0.54
371.695	0.54
372.059	0.53
372.423	0.54
372.787	0.54
373.151	0.53
373.515	0.53
373.878	0.53
374.242	0.53
374.606	0.53
374.97	0.53
375.334	0.55
375.697	0.53
376.061	0.54
376.425	0.54
376.788	0.55
377.152	0.54
377.515	0.55
377.879	0.56
378.242	0.56
378.606	0.57
378.969	0.58
379.333	0.58
379.696	0.59
380.059	0.6
380.422	0.6
380.786	0.62
381.149	0.63
381.512	0.65
381.875	0.65
382.238	0.67
382.601	0.69
382.964	0.71
383.327	0.73
383.69	0.75
384.053	0.77
384.416	0.79
384.779	0.81
385.142	0.82
385.504	0.83
385.867	0.84
386.23	0.85
386.593	0.85
386.955	0.86
387.318	0.86
387.68	0.86
388.043	0.85
388.405	0.85
388.768	0.85
389.13	0.84
389.493	0.83
389.855	0.82
390.217	0.82
390.58	0.82
390.942	0.83
391.304	0.83
391.666	0.84
392.028	0.85
392.391	0.88
392.753	0.9
393.115	0.93
393.477	0.95
393.839	0.99
394.201	1.02
394.563	1.07
394.924	1.1
395.286	1.15
395.648	1.18
396.01	1.22
396.371	1.27
396.733	1.28
397.095	1.3
397.456	1.3
397.818	1.3
398.18	1.29
398.541	1.27
398.903	1.26
399.264	1.21
399.625	1.19
399.987	1.14
400.348	1.09
400.709	1.04
401.071	0.99
401.432	0.93
401.793	0.87
402.154	0.82
402.515	0.76
402.876	0.71
403.238	0.66
403.599	0.61
403.96	0.56
404.32	0.53
404.681	0.49
405.042	0.46
405.403	0.43
405.764	0.39
406.125	0.38
406.485	0.34
406.846	0.32
407.207	0.3
407.567	0.29
407.928	0.27
408.288	0.26
408.649	0.24
409.009	0.23
409.37	0.22
409.73	0.21
410.091	0.2
410.451	0.19
410.811	0.18
411.171	0.18
411.532	0.17
411.892	0.16
412.252	0.16
412.612	0.15
412.972	0.14
413.332	0.14
413.692	0.14
414.052	0.13
414.412	0.12
414.772	0.12
415.132	0.12
415.492	0.12
415.851	0.11
416.211	0.11
416.571	0.11
416.931	0.1
417.29	0.11
417.65	0.1
418.009	0.1
418.369	0.1
418.728	0.09
419.088	0.09
419.447	0.09
419.807	0.09
420.166	0.09
420.525	0.09
420.884	0.09
421.244	0.09
421.603	0.07
421.962	0.08
422.321	0.08
422.68	0.07
423.039	0.08
423.398	0.08
423.757	0.07
424.116	0.07
424.475	0.07
424.834	0.07
425.193	0.07
425.551	0.07
425.91	0.07
426.269	0.07
426.628	0.07
426.986	0.07
427.345	0.07
427.703	0.07
428.062	0.06
428.42	0.07
428.779	0.06
429.137	0.07
429.496	0.06
429.854	0.06
430.212	0.06
430.57	0.06
430.929	0.06
431.287	0.05
431.645	0.07
432.003	0.06
432.361	0.06
432.719	0.06
433.077	0.06
433.435	0.06
433.793	0.06
434.151	0.06
434.509	0.06
434.866	0.05
435.224	0.06
435.582	0.05
435.94	0.05
436.297	0.05
436.655	0.05
437.012	0.05
437.37	0.05
437.727	0.05
438.085	0.06
438.442	0.05
438.8	0.05
439.157	0.05
439.514	0.05
439.872	0.04
440.229	0.05
440.586	0.05
440.943	0.04
441.3	0.05
441.657	0.04
442.014	0.05
442.371	0.05
442.728	0.04
443.085	0.04
443.442	0.03
443.799	0.04
444.156	0.04
444.513	0.04
444.869	0.05
445.226	0.04
445.583	0.04
445.939	0.03
446.296	0.04
446.652	0.03
447.009	0.04
447.365	0.04
447.722	0.03
448.078	0.02
448.434	0.03
448.791	0.02
449.147	0.02
449.503	0.03
449.859	0.02
450.215	0.02
450.571	0.02
450.928	0.02
451.284	0.02
451.64	0.02
451.995	0.01
452.351	0.01
452.707	0.01
453.063	0.01
453.419	0.01
453.775	0.01
454.13	0
454.486	0
454.842	0
455.197	-0
455.553	-0.02
455.908	-0.02
456.264	-0.02
456.619	-0.02
456.975	-0.03
457.33	-0.02
457.685	-0.03
458.04	-0.04
458.396	-0.04
458.751	-0.04
459.106	-0.05
459.461	-0.05
459.816	-0.05
460.171	-0.06
460.526	-0.07
460.881	-0.07
461.236	-0.07
461.591	-0.07
461.946	-0.08
462.301	-0.09
462.655	-0.08
463.01	-0.09
463.365	-0.09
463.719	-0.1
464.074	-0.11
464.428	-0.12
464.783	-0.12
465.137	-0.12
465.492	-0.12
465.846	-0.12
466.201	-0.13
466.555	-0.13
466.909	-0.12
467.263	-0.12
467.618	-0.11
467.972	-0.12
468.326	-0.12
468.68	-0.13
469.034	-0.13
469.388	-0.14
469.742	-0.14
470.096	-0.14
470.45	-0.14
470.804	-0.13
471.157	-0.14
471.511	-0.15
471.865	-0.13
472.218	-0.13
472.572	-0.13
472.926	-0.12
473.279	-0.12
473.633	-0.12
473.986	-0.12
474.34	-0.11
474.693	-0.1
475.046	-0.09
475.4	-0.08
475.753	-0.08
476.106	-0.08
476.459	-0.07
476.812	-0.07
477.165	-0.05
477.519	-0.05
477.872	-0.04
478.224	-0.05
478.577	-0.03
478.93	-0.04
479.283	-0.03
479.636	-0.02
479.989	-0.03
480.341	-0.02
480.694	-0.01
481.047	-0.02
481.399	-0.01
481.752	-0.01
482.104	0
482.457	0
482.809	0
483.162	0
483.514	0.01
483.866	0.01
484.219	0.01
484.571	0.01
484.923	0.02
485.275	0.02
485.627	0.02
485.979	0.02
486.331	0.02
486.683	0.03
487.035	0.03
487.387	0.03
487.739	0.04
488.091	0.04
488.443	0.05
488.794	0.04
489.146	0.04
489.498	0.05
489.849	0.04
490.201	0.05
490.552	0.04
490.904	0.05
491.255	0.05
491.607	0.04
491.958	0.05
492.309	0.05
492.661	0.06
493.012	0.06
493.363	0.05
493.714	0.06
494.065	0.06
494.416	0.06
494.767	0.06
495.118	0.06
495.469	0.07
495.82	0.07
496.171	0.07
496.522	0.07
496.872	0.07
497.223	0.07
497.574	0.07
497.924	0.07
498.275	0.08
498.626	0.08
498.976	0.08
499.327	0.08
499.677	0.08
500.027	0.08
500.378	0.08
500.728	0.09
501.078	0.09
501.428	0.09
501.779	0.09
502.129	0.09
502.479	0.09
502.829	0.09
503.179	0.1
503.529	0.09
503.879	0.1
504.229	0.1
504.578	0.1
504.928	0.1
505.278	0.1
505.628	0.1
505.977	0.11
506.327	0.11
506.676	0.11
507.026	0.11
507.375	0.11
507.725	0.12
508.074	0.11
508.424	0.11
508.773	0.12
509.122	0.12
509.471	0.12
509.82	0.12
510.17	0.12
510.519	0.12
510.868	0.13
511.217	0.12
511.566	0.13
511.915	0.13
512.263	0.13
512.612	0.13
512.961	0.13
513.31	0.13
513.659	0.13
514.007	0.13
514.356	0.14
514.704	0.14
515.053	0.14
515.401	0.14
515.75	0.14
516.098	0.14
516.447	0.15
516.795	0.14
517.143	0.15
517.491	0.15
517.839	0.15
518.188	0.15
518.536	0.15
518.884	0.16
519.232	0.15
519.58	0.15
519.928	0.15
520.275	0.15
520.623	0.16
520.971	0.15
521.319	0.16
521.666	0.16
522.014	0.16
522.362	0.16
522.709	0.16
523.057	0.17
523.404	0.17
523.752	0.17
524.099	0.17
524.446	0.17
524.794	0.17
525.141	0.17
525.488	0.18
525.835	0.18
526.182	0.18
526.529	0.18
526.876	0.18
527.223	0.18
527.57	0.18
527.917	0.18
528.264	0.18
528.611	0.18
528.958	0.19
529.304	0.19
529.651	0.19
529.998	0.19
530.344	0.19
530.691	0.19
531.037	0.19
531.384	0.19
531.73	0.2
532.076	0.19
532.423	0.2
532.769	0.2
533.115	0.21
533.461	0.2
533.807	0.2
534.154	0.21
534.5	0.21
534.846	0.21
535.192	0.21
535.537	0.22
535.883	0.21
536.229	0.22
536.575	0.22
536.921	0.22
537.266	0.22
537.612	0.22
537.957	0.22
538.303	0.22
538.649	0.23
538.994	0.22
539.339	0.23
539.685	0.23
540.03	0.23
540.375	0.24
540.721	0.24
541.066	0.24
541.411	0.24
541.756	0.24
542.101	0.24
542.446	0.25
542.791	0.24
543.136	0.25
543.481	0.25
543.825	0.25
544.17	0.26
544.515	0.26
544.86	0.26
545.204	0.26
545.549	0.26
545.893	0.26
546.238	0.26
546.582	0.26
546.927	0.27
547.271	0.27
547.615	0.27
547.96	0.28
548.304	0.27
548.648	0.28
548.992	0.28
549.336	0.28
549.68	0.28
550.024	0.28
550.368	0.28
550.712	0.28
551.056	0.29
551.4	0.29
551.743	0.29
552.087	0.29
552.431	0.29
552.774	0.3
553.118	0.3
553.462	0.29
553.805	0.3
554.148	0.3
554.492	0.3
554.835	0.3
555.178	0.3
555.522	0.3
555.865	0.3
556.208	0.31
556.551	0.3
556.894	0.31
557.237	0.31
557.58	0.31
557.923	0.31
558.266	0.31
558.609	0.31
558.952	0.31
559.294	0.31
559.637	0.31
559.98	0.32
560.322	0.32
560.665	0.31
561.007	0.31
561.35	0.32
561.692	0.32
562.034	0.32
562.377	0.32
562.719	0.32
563.061	0.32
563.403	0.32
563.745	0.32
564.088	0.32
564.43	0.32
564.772	0.32
565.113	0.33
565.455	0.33
565.797	0.33
566.139	0.33
566.481	0.33
566.822	0.34
567.164	0.33
567.506	0.33
567.847	0.34
568.189	0.34
568.53	0.33
568.872	0.34
569.213	0.34
569.554	0.33
569.895	0.34
570.237	0.33
570.578	0.34
570.919	0.33
571.26	0.34
571.601	0.34
571.942	0.33
572.283	0.33
572.624	0.34
572.965	0.33
573.306	0.33
573.646	0.33
573.987	0.33
574.328	0.33
574.668	0.34
575.009	0.34
575.349	0.34
575.69	0.33
576.03	0.34
576.37	0.33
576.711	0.33
577.051	0.33
577.391	0.34
577.731	0.34
578.072	0.34
578.412	0.34
578.752	0.34
579.092	0.34
579.431	0.33
579.771	0.33
580.111	0.33
580.451	0.33
580.791	0.34
581.13	0.34
581.47	0.34
581.81	0.34
582.149	0.34
582.489	0.34
582.828	0.34
583.167	0.33
583.507	0.31
583.846	0.29
584.185	0.31
584.525	0.33
584.864	0.34
585.203	0.35
585.542	0.35
585.881	0.35
586.22	0.35
586.559	0.35
586.898	0.35
587.236	0.35
587.575	0.35
587.914	0.35
588.252	0.36
588.591	0.36
588.93	0.36
589.268	0.36
589.607	0.36
589.945	0.36
590.283	0.36
590.622	0.37
590.96	0.37
591.298	0.37
591.636	0.37
591.974	0.38
592.313	0.38
592.651	0.38
592.989	0.38
593.326	0.39
593.664	0.39
594.002	0.39
594.34	0.38
594.678	0.39
595.015	0.38
595.353	0.38
595.691	0.38
596.028	0.39
596.366	0.4
596.703	0.4
597.04	0.4
597.378	0.4
597.715	0.4
598.052	0.4
598.389	0.41
598.726	0.41
599.064	0.41
599.401	0.41
599.738	0.41
600.074	0.41
600.411	0.41
600.748	0.41
601.085	0.41
601.422	0.41
601.758	0.41
602.095	0.41
602.432	0.41
602.768	0.41
603.105	0.41
603.441	0.41
603.777	0.42
604.114	0.42
604.45	0.42
604.786	0.42
605.122	0.42
605.459	0.42
605.795	0.41
606.131	0.41
606.467	0.41
606.803	0.42
607.139	0.42
607.474	0.42
607.81	0.41
608.146	0.41
608.482	0.41
608.817	0.41
609.153	0.41
609.488	0.41
609.824	0.4
610.159	0.41
610.495	0.41
610.83	0.41
611.165	0.41
611.5	0.4
611.836	0.4
612.171	0.4
612.506	0.4
612.841	0.4
613.176	0.4
613.511	0.4
613.845	0.4
614.18	0.4
614.515	0.4
614.85	0.4
615.184	0.4
615.519	0.4
615.854	0.4
616.188	0.39
616.523	0.39
616.857	0.39
617.191	0.39
617.526	0.39
617.86	0.38
618.194	0.38
618.528	0.39
618.862	0.39
619.196	0.39
619.53	0.38
619.864	0.39
620.198	0.38
620.532	0.38
620.866	0.38
621.2	0.38
621.533	0.37
621.867	0.37
622.201	0.37
622.534	0.37
622.868	0.37
623.201	0.37
623.534	0.37
623.868	0.37
624.201	0.37
624.534	0.37
624.868	0.36
625.201	0.36
625.534	0.36
625.867	0.36
626.2	0.36
626.533	0.36
626.865	0.36
627.198	0.35
627.531	0.35
627.864	0.35
628.196	0.35
628.529	0.35
628.862	0.35
629.194	0.35
629.527	0.34
629.859	0.34
630.191	0.34
630.524	0.34
630.856	0.33
631.188	0.33
631.52	0.33
631.852	0.33
632.184	0.33
632.516	0.32
632.848	0.32
633.18	0.32
633.512	0.32
633.844	0.32
634.175	0.32
634.507	0.31
634.839	0.31
635.17	0.31
635.502	0.31
635.833	0.3
636.165	0.3
636.496	0.3
636.827	0.3
637.159	0.29
637.49	0.29
637.821	0.29
638.152	0.29
638.483	0.28
638.814	0.28
639.145	0.28
639.476	0.28
639.807	0.28
640.137	0.27
640.468	0.27
640.799	0.27
641.129	0.26
641.46	0.26
641.791	0.26
642.121	0.26
642.451	0.26
642.782	0.26
643.112	0.26
643.442	0.26
643.773	0.25
644.103	0.25
644.433	0.25
644.763	0.25
645.093	0.25
645.423	0.24
645.753	0.24
646.082	0.24
646.412	0.24
646.742	0.24
647.072	0.24
647.401	0.24
647.731	0.24
648.06	0.24
648.39	0.24
648.719	0.24
649.048	0.24
649.378	0.23
649.707	0.23
650.036	0.23
650.365	0.24
650.694	0.23
651.023	0.23
651.352	0.23
651.681	0.23
652.01	0.23
652.339	0.23
652.668	0.23
652.996	0.23
653.325	0.23
653.654	0.23
653.982	0.23
654.311	0.23
654.639	0.23
654.967	0.23
655.296	0.23
655.624	0.23
655.952	0.23
656.28	0.23
656.609	0.22
656.937	0.23
657.265	0.22
657.593	0.19
657.92	0.07
658.248	0.02
658.576	0.02
658.904	0.11
659.231	0.2
659.559	0.22
659.887	0.22
660.214	0.23
660.542	0.22
660.869	0.22
661.196	0.23
661.524	0.22
661.851	0.22
662.178	0.22
662.505	0.22
662.832	0.22
663.159	0.22
663.486	0.22
663.813	0.22
664.14	0.22
664.467	0.22
664.794	0.22
665.12	0.22
665.447	0.22
665.774	0.22
666.1	0.22
666.427	0.22
666.753	0.22
667.079	0.22
667.406	0.21
667.732	0.21
668.058	0.21
668.384	0.21
668.71	0.22
669.036	0.21
669.362	0.21
669.688	0.21
670.014	0.21
670.34	0.21
670.666	0.21
670.991	0.21
671.317	0.21
671.643	0.2
671.968	0.2
672.294	0.2
672.619	0.2
672.945	0.2
673.27	0.2
673.595	0.2
673.92	0.2
674.246	0.2
674.571	0.19
674.896	0.19
675.221	0.2
675.546	0.19
675.87	0.19
676.195	0.19
676.52	0.19
676.845	0.19
677.169	0.19
677.494	0.19
677.819	0.19
678.143	0.19
678.468	0.18
678.792	0.18
679.116	0.18
679.44	0.18
679.765	0.17
680.089	0.17
680.413	0.17
680.737	0.17
681.061	0.17
681.385	0.17
681.709	0.16
682.033	0.16
682.356	0.17
682.68	0.17
683.004	0.16
683.327	0.16
683.651	0.16
683.974	0.16
684.298	0.16
684.621	0.15
684.944	0.15
685.268	0.15
685.591	0.15
685.914	0.14
686.237	0.14
686.56	0.14
686.883	0.14
687.206	0.14
687.529	0.14
687.852	0.14
688.175	0.14
688.497	0.14
688.82	0.14
689.142	0.14
689.465	0.13
689.787	0.13
690.11	0.13
690.432	0.13
690.755	0.13
691.077	0.13
691.399	0.13
691.721	0.13
692.043	0.12
692.365	0.12
692.687	0.12
693.009	0.12
693.331	0.12
693.653	0.12
693.974	0.11
694.296	0.11
694.618	0.11
694.939	0.11
695.261	0.11
695.582	0.11
695.904	0.11
696.225	0.11
696.546	0.11
696.868	0.11
697.189	0.1
697.51	0.1
697.831	0.11
698.152	0.1
698.473	0.11
698.794	0.1
699.114	0.1
699.435	0.1
699.756	0.1
700.077	0.1
700.397	0.09
700.718	0.1
701.038	0.1
701.359	0.1
701.679	0.1
701.999	0.1
702.32	0.1
702.64	0.1
702.96	0.1
703.28	0.1
703.6	0.1
703.92	0.1
704.24	0.09
704.56	0.09
704.879	0.09
705.199	0.09
705.519	0.09
705.838	0.09
706.158	0.09
706.478	0.09
706.797	0.09
707.116	0.08
707.436	0.08
707.755	0.09
708.074	0.08
708.393	0.08
708.712	0.08
709.031	0.08
709.35	0.08
709.669	0.08
709.988	0.08
710.307	0.08
710.626	0.08
710.944	0.09
711.263	0.08
711.582	0.08
711.9	0.08
712.219	0.08
712.537	0.09
712.855	0.08
713.174	0.08
713.492	0.08
713.81	0.08
714.128	0.08
714.446	0.08
714.764	0.08
715.082	0.08
715.4	0.08
715.718	0.08
716.035	0.08
716.353	0.08
716.671	0.08
716.988	0.08
717.306	0.08
717.623	0.08
717.941	0.08
718.258	0.09
718.575	0.08
718.893	0.08
719.21	0.09
719.527	0.08
719.844	0.08
720.161	0.08
720.478	0.08
720.795	0.08
721.112	0.08
721.428	0.08
721.745	0.08
722.062	0.08
722.378	0.08
722.695	0.08
723.011	0.08
723.328	0.08
723.644	0.09
723.96	0.09
724.276	0.09
724.593	0.09
724.909	0.09
725.225	0.1
725.541	0.1
725.857	0.1
726.173	0.1
726.488	0.09
726.804	0.09
727.12	0.09
727.435	0.09
727.751	0.09
728.067	0.09
728.382	0.1
728.697	0.09
729.013	0.09
729.328	0.09
729.643	0.09
729.958	0.09
730.273	0.1
730.588	0.1
730.903	0.09
731.218	0.09
731.533	0.1
731.848	0.1
732.163	0.09
732.477	0.09
732.792	0.09
733.107	0.09
733.421	0.1
733.736	0.09
734.05	0.09
734.364	0.1
734.678	0.1
734.993	0.09
735.307	0.09
735.621	0.09
735.935	0.09
736.249	0.09
736.563	0.09
736.877	0.09
737.19	0.09
737.504	0.09
737.818	0.1
738.131	0.09
738.445	0.09
738.758	0.09
739.072	0.09
739.385	0.09
739.698	0.09
740.012	0.09
740.325	0.09
740.638	0.09
740.951	0.09
741.264	0.08
741.577	0.09
741.89	0.09
742.203	0.08
742.515	0.08
742.828	0.09
743.141	0.08
743.453	0.08
743.766	0.08
744.078	0.08
744.391	0.08
744.703	0.08
745.015	0.08
745.327	0.08
745.639	0.08
745.952	0.08
746.264	0.08
746.575	0.08
746.887	0.08
747.199	0.08
747.511	0.08
747.823	0.08
748.134	0.08
748.446	0.08
748.757	0.08
749.069	0.08
749.38	0.08
749.692	0.08
750.003	0.08
750.314	0.08
750.625	0.07
750.936	0.07
751.248	0.08
751.559	0.07
751.869	0.07
752.18	0.07
752.491	0.07
752.802	0.07
753.112	0.07
753.423	0.07
753.734	0.07
754.044	0.06
754.355	0.07
754.665	0.06
754.975	0.06
755.285	0.06
755.596	0.06
755.906	0.06
756.216	0.06
756.526	0.06
756.836	0.06
757.146	0.06
757.455	0.06
757.765	0.06
758.075	0.06
758.385	0.05
758.694	0.05
759.004	0.05
759.313	0.05
759.622	0.06
759.932	0.05
760.241	0.05
760.55	0.05
760.859	0.05
761.168	0.05
761.477	0.05
761.786	0.05
762.095	0.05
762.404	0.04
762.713	0.04
763.021	0.04
763.33	0.04
763.639	0.04
763.947	0.04
764.256	0.04
764.564	0.04
764.872	0.04
765.181	0.04
765.489	0.04
765.797	0.04
766.105	0.04
766.413	0.04
766.721	0.04
767.029	0.04
767.337	0.04
767.644	0.04
767.952	0.04
768.26	0.04
768.567	0.04
768.875	0.04
769.182	0.04
769.49	0.04
769.797	0.04
770.104	0.04
770.411	0.04
770.718	0.04
771.026	0.04
771.333	0.04
771.639	0.04
771.946	0.04
772.253	0.04
772.56	0.03
772.867	0.04
773.173	0.03
773.48	0.03
773.786	0.03
774.093	0.03
774.399	0.03
774.705	0.03
775.012	0.03
775.318	0.03
775.624	0.03
775.93	0.03
776.236	0.04
776.542	0.03
776.848	0.04
777.154	0.04
777.459	0.04
777.765	0.04
778.071	0.04
778.376	0.04
778.682	0.04
778.987	0.04
779.292	0.04
779.598	0.04
779.903	0.03
780.208	0.03
780.513	0.03
780.818	0.03
781.123	0.03
781.428	0.03
781.733	0.03
782.038	0.03
782.343	0.03
782.647	0.03
782.952	0.03
783.256	0.03
783.561	0.03
783.865	0.03
784.17	0.03
784.474	0.03
784.778	0.03
785.082	0.04
785.386	0.04
785.69	0.04
785.994	0.04
786.298	0.04
786.602	0.04
786.906	0.04
787.209	0.04
787.513	0.04
787.817	0.04
788.12	0.04
788.424	0.04
788.727	0.04
789.03	0.03
789.333	0.03
789.637	0.03
789.94	0.03
790.243	0.03
790.546	0.03
790.849	0.02
791.152	0.03
791.454	0.02
791.757	0.02
792.06	0.02
792.362	0.02
792.665	0.02
792.967	0.02
793.27	0.02
793.572	0.02
793.874	0.02
794.177	0.02
794.479	0.02
794.781	0.02
795.083	0.02
795.385	0.03
795.687	0.03
795.989	0.03
796.29	0.03
796.592	0.03
796.894	0.03
797.195	0.03
797.497	0.03
797.798	0.03
798.1	0.03
798.401	0.03
798.702	0.03
799.003	0.02
799.304	0.02
799.605	0.02
799.906	0.02
800.207	0.03
800.508	0.02
800.809	0.02
801.11	0.02
801.41	0.02
801.711	0.02
802.011	0.03
802.312	0.03
802.612	0.03
802.913	0.03
803.213	0.03
803.513	0.03
803.813	0.03
804.113	0.02
804.413	0.03
804.713	0.02
805.013	0.03
805.313	0.02
805.613	0.02
805.912	0.02
806.212	0.02
806.511	0.02
806.811	0.02
807.11	0.03
807.41	0.02
807.709	0.03
808.008	0.02
808.307	0.03
808.606	0.03
808.905	0.03
809.204	0.03
809.503	0.03
809.802	0.03
810.101	0.02
810.399	0.02
810.698	0.02
810.997	0.02
811.295	0.03
811.593	0.03
811.892	0.03
812.19	0.03
812.488	0.03
812.786	0.03
813.084	0.03
813.383	0.03
813.68	0.02
813.978	0.03
814.276	0.02
814.574	0.02
814.872	0.02
815.169	0.02
815.467	0.02
815.764	0.03
816.062	0.02
816.359	0.02
816.656	0.01
816.954	0.02
817.251	0.02
817.548	0.02
817.845	0.02
818.142	0.02
818.439	0.02
818.735	0.02
819.032	0.02
819.329	0.02
819.626	0.02
819.922	0.02
820.219	0.02
820.515	0.02
820.811	0.02
821.108	0.01
821.404	0.02
821.7	0.01
821.996	0.02
822.292	0.02
822.588	0.02
822.884	0.02
823.18	0.02
823.475	0.02
823.771	0.01
824.067	0.02
824.362	0.01
824.658	0.02
824.953	0.02
825.249	0.01
825.544	0.02
825.839	0.01
826.134	0.02
826.429	0.02
826.724	0.02
827.019	0.02
827.314	0.02
827.609	0.02
827.904	0.02
828.198	0.01
828.493	0.02
828.787	0.02
829.082	0.01
829.376	0.01
829.671	0.02
829.965	0.01
830.259	0.01
830.553	0
830.847	0
831.141	0.01
831.435	0.01
831.729	0.01
832.023	0.01
832.317	0.01
832.61	0.01
832.904	0.01
833.197	0.01
833.491	0.01
833.784	0.02
834.077	0
834.371	0.02
834.664	0.02
834.957	0.02
835.25	0.02
835.543	0.02
835.836	0.02
836.129	0.02
836.421	0.02
836.714	0.02
837.007	0.02
837.299	0.01
837.592	0.01
837.884	0.01
838.177	0.01
838.469	0.01
838.761	0.01
839.053	0.01
839.345	0.01
839.637	0.01
839.929	0.01
840.221	0.03
840.513	0.02
840.805	0.02
841.096	0.02
841.388	0
841.68	0.01
841.971	0.02
842.262	0.01
842.554	0.01
842.845	0.01
843.136	0.01
843.427	0.01
843.718	0.01
844.009	0.01
844.3	0.01
844.591	0.02
844.882	0
845.173	0.01
845.463	0.01
845.754	0.01
846.044	0.01
846.335	0.01
846.625	0.02
846.915	0.01
847.206	0.01
847.496	0.01
847.786	0.02
848.076	0.01
848.366	0.01
848.656	0.01
848.945	0.01
849.235	0.01
849.525	0.01
849.814	0.02
850.104	0.02
850.393	0.01
850.683	0.02
850.972	0.01
851.261	0.03
851.551	0.02
851.84	0.03
852.129	0.02
852.418	0.01
852.707	0.02
852.995	0.01
853.284	0.02
853.573	0.01
853.862	0.02
854.15	0.02
854.439	0.01
854.727	0.02
855.015	-0
855.304	0
855.592	0
855.88	0.01
856.168	-0
856.456	-0
856.744	0.01
857.032	-0.03
857.32	-0.02
857.607	0.01
857.895	-0.01
858.183	0
858.47	0
858.757	0
859.045	-0
859.332	0.01
859.619	0
859.907	0
860.194	-0
860.481	0
860.768	0
861.054	-0
861.341	0.01
861.628	-0.01
861.915	-0.01
862.201	-0.01
862.488	-0.03
862.774	-0.01
863.061	-0.01
863.347	-0
863.633	-0.02
863.919	-0.01
864.205	-0
864.491	-0
864.777	0
865.063	0.02
865.349	0
865.635	0.01
865.92	0
866.206	-0.02
866.492	-0.01
866.777	-0.03
867.062	-0
867.348	-0.04
867.633	0
867.918	-0.04
868.203	0.01
868.488	-0.01
868.773	-0.02
869.058	-0.03
869.343	-0.01
869.628	-0.01
869.912	-0.01
870.197	-0.03
870.482	-0.03
870.766	-0.02
871.05	0.01
871.335	0.01
871.619	-0.03
871.903	0.03
872.187	-0
872.471	-0.06
872.755	-0.07
873.039	-0.03
873.323	-0.05
873.607	0.02
873.89	-0.03
874.174	0.01
874.458	-0
874.741	0.05
875.024	-0.04
875.308	0.03
875.591	-0.06
875.874	0.04
876.157	-0.01
876.44	0
876.723	0.04
877.006	0.01
877.289	-0.06
877.572	-0.02
877.854	0.04
878.137	-0.05
878.42	0.07
878.702	-0.06
878.984	0.01
879.267	-0.02
879.549	-0.03
879.831	-0.05
880.113	-0.06
880.395	-0.07
880.677	-0.2
880.959	0.03
