Data from Rubpy_EV_900_EDTA_Buffered_Absorbance_13-43-45-801.txt Node
Date: Tue Jun 30 13:43:45 BST 2026
User: fpm-admin
Spectrometer: OFX00224
Trigger mode: 0
Integration Time (sec): 7.000000E-2
Scans to average: 3
Nonlinearity correction enabled: false
Boxcar width: 0
Storing dark spectrum: false
XAxis mode: Wavelengths
Number of Pixels in Spectrum: 2136
>>>>>Begin Spectral Data<<<<<
154.91	-0.05
155.289	-1.32
155.669	-0
156.048	-0.81
156.428	-0
156.807	0.01
157.186	0.53
157.566	0.18
157.945	-0.14
158.325	-0.94
158.704	-0.33
159.083	0.56
159.462	0.01
159.842	0.56
160.221	0.09
160.6	0.09
160.979	0.2
161.359	-0
161.738	-0
162.117	-0.4
162.496	0.7
162.875	-0
163.254	-0.34
163.633	0.24
164.012	-0.95
164.391	-0.04
164.77	0.18
165.149	0.2
165.528	-0
165.907	-0
166.286	-0
166.665	-0.78
167.044	-0
167.423	-0.07
167.802	0.05
168.181	-0.09
168.559	-0
168.938	-0
169.317	-0
169.696	-0
170.074	-0.76
170.453	-0
170.832	-0
171.21	0.19
171.589	-0
171.968	-0
172.346	-0
172.725	0.34
173.103	-0.37
173.482	-0.07
173.861	-0.08
174.239	0.68
174.617	-0
174.996	-0
175.374	0.1
175.753	-0
176.131	0.54
176.51	-0.38
176.888	-0
177.266	-0
177.645	0.03
178.023	0.12
178.401	-0.18
178.779	0.09
179.158	-0
179.536	0.48
179.914	0.14
180.292	-0
180.67	-0
181.048	-0
181.427	0.65
181.805	-0.34
182.183	-0.93
182.561	-0
182.939	-0.19
183.317	0.09
183.695	0.27
184.073	-0.48
184.451	-0
184.829	-0
185.206	-0.62
185.584	-0.4
185.962	-0
186.34	-0.7
186.718	0.11
187.096	-0.08
187.473	1.57
187.851	-0.45
188.229	-0.35
188.607	0.1
188.984	0.16
189.362	-0.01
189.74	0.09
190.117	0.03
190.495	0.08
190.872	0.11
191.25	0.06
191.627	0.26
192.005	0.08
192.382	0.15
192.76	0.13
193.137	0.02
193.515	0.13
193.892	0.08
194.269	0.13
194.647	0.22
195.024	0.03
195.401	0.18
195.779	0.14
196.156	0.15
196.533	0.07
196.91	0.13
197.288	0.04
197.665	0.1
198.042	0.12
198.419	0.11
198.796	0.12
199.173	0.16
199.55	0.29
199.927	0.16
200.304	0.12
200.681	0.1
201.058	0.17
201.435	0.18
201.812	0.18
202.189	0.26
202.566	0.08
202.943	0.17
203.32	0.19
203.697	0.02
204.073	0.1
204.45	0.17
204.827	0.13
205.204	0.1
205.58	0.18
205.957	0.11
206.334	0.16
206.71	0.13
207.087	0.02
207.464	0.16
207.84	0.1
208.217	0.11
208.593	0.22
208.97	0.16
209.346	0.06
209.723	0.14
210.099	0.14
210.476	0.04
210.852	0.13
211.228	0.11
211.605	0.05
211.981	0.17
212.357	0.04
212.733	0.32
213.11	0.11
213.486	0.01
213.862	0.19
214.238	0.14
214.614	0.13
214.991	0.08
215.367	0.03
215.743	0.04
216.119	0.12
216.495	0.04
216.871	0.18
217.247	0.19
217.623	0.15
217.999	0.08
218.375	0.14
218.751	0.08
219.127	0.09
219.502	0.11
219.878	0.13
220.254	0.19
220.63	0.01
221.006	0.25
221.381	0.18
221.757	0.15
222.133	0.08
222.508	0.08
222.884	0.19
223.26	0.18
223.635	0.16
224.011	0.05
224.386	0.1
224.762	0.16
225.137	0.17
225.513	0.17
225.888	0.15
226.264	0.15
226.639	0.14
227.014	0.1
227.39	-0.04
227.765	0.03
228.14	0.15
228.516	0.05
228.891	0.12
229.266	0.11
229.641	0.16
230.017	0.16
230.392	0.25
230.767	0.14
231.142	0.18
231.517	0.19
231.892	0.08
232.267	0.13
232.642	0.23
233.017	0.04
233.392	0.12
233.767	0.12
234.142	0.16
234.517	0.14
234.892	0.21
235.267	0.14
235.641	0.13
236.016	0.21
236.391	0.04
236.766	0.18
237.14	0.09
237.515	0.13
237.89	0.15
238.264	0.08
238.639	0.2
239.014	0.12
239.388	0.09
239.763	0.1
240.137	0.1
240.512	0.1
240.886	0.1
241.261	0.03
241.635	0.2
242.009	0.1
242.384	0.15
242.758	0.12
243.132	0.1
243.507	0.23
243.881	0.18
244.255	0.17
244.629	0.17
245.004	0.08
245.378	0.11
245.752	0.1
246.126	0.12
246.5	0.13
246.874	0.17
247.248	0.09
247.622	0.18
247.996	0.08
248.37	0.08
248.744	0.17
249.118	0.18
249.492	0.15
249.866	0.09
250.24	0.07
250.613	0.11
250.987	0.2
251.361	0.22
251.735	0.2
252.108	0.08
252.482	0.21
252.856	0.14
253.229	0.18
253.603	0.14
253.977	0.2
254.35	0.13
254.724	0.1
255.097	0.06
255.471	0.23
255.844	0.16
256.218	0.15
256.591	0.14
256.964	0.17
257.338	0.16
257.711	0.13
258.084	0.11
258.458	0.17
258.831	0.19
259.204	0.12
259.577	0.17
259.95	0.11
260.323	0.15
260.697	0.19
261.07	0.16
261.443	0.07
261.816	0.19
262.189	0.15
262.562	0.15
262.935	0.19
263.308	0.13
263.68	0.19
264.053	0.18
264.426	0.12
264.799	0.16
265.172	0.14
265.545	0.13
265.917	0.12
266.29	0.19
266.663	0.09
267.035	0.18
267.408	0.14
267.781	0.12
268.153	0.19
268.526	0.22
268.898	0.3
269.271	0.16
269.643	0.19
270.016	0.13
270.388	0.15
270.76	0.15
271.133	0.2
271.505	0.16
271.877	0.11
272.25	0.16
272.622	0.19
272.994	0.17
273.366	0.14
273.739	0.07
274.111	0.06
274.483	0.16
274.855	0.2
275.227	0.19
275.599	0.13
275.971	0.19
276.343	0.17
276.715	0.11
277.087	0.15
277.459	0.14
277.831	0.13
278.203	0.15
278.574	0.13
278.946	0.17
279.318	0.14
279.69	0.18
280.061	0.05
280.433	0.14
280.805	0.19
281.176	0.13
281.548	0.18
281.92	0.21
282.291	0.14
282.663	0.08
283.034	0.18
283.406	0.15
283.777	0.15
284.148	0.16
284.52	0.16
284.891	0.21
285.262	0.2
285.634	0.17
286.005	0.17
286.376	0.15
286.747	0.18
287.119	0.15
287.49	0.13
287.861	0.14
288.232	0.09
288.603	0.21
288.974	0.17
289.345	0.13
289.716	0.19
290.087	0.18
290.458	0.16
290.829	0.19
291.2	0.14
291.571	0.08
291.941	0.15
292.312	0.16
292.683	0.13
293.054	0.18
293.424	0.22
293.795	0.2
294.166	0.17
294.536	0.17
294.907	0.17
295.277	0.16
295.648	0.15
296.018	0.13
296.389	0.15
296.759	0.11
297.13	0.13
297.5	0.15
297.871	0.14
298.241	0.16
298.611	0.15
298.981	0.14
299.352	0.11
299.722	0.17
300.092	0.14
300.462	0.17
300.832	0.14
301.202	0.13
301.573	0.12
301.943	0.15
302.313	0.12
302.683	0.12
303.053	0.11
303.422	0.1
303.792	0.12
304.162	0.1
304.532	0.15
304.902	0.11
305.272	0.12
305.641	0.11
306.011	0.12
306.381	0.12
306.75	0.11
307.12	0.12
307.49	0.12
307.859	0.12
308.229	0.13
308.598	0.13
308.968	0.14
309.337	0.13
309.707	0.14
310.076	0.14
310.445	0.13
310.815	0.15
311.184	0.14
311.553	0.14
311.923	0.15
312.292	0.15
312.661	0.15
313.03	0.14
313.399	0.15
313.768	0.15
314.137	0.15
314.506	0.14
314.875	0.14
315.244	0.15
315.613	0.14
315.982	0.14
316.351	0.15
316.72	0.15
317.089	0.15
317.458	0.15
317.826	0.14
318.195	0.14
318.564	0.14
318.933	0.14
319.301	0.14
319.67	0.13
320.038	0.13
320.407	0.14
320.775	0.14
321.144	0.14
321.512	0.13
321.881	0.13
322.249	0.13
322.618	0.13
322.986	0.13
323.354	0.12
323.723	0.12
324.091	0.12
324.459	0.13
324.827	0.12
325.195	0.11
325.564	0.12
325.932	0.12
326.3	0.12
326.668	0.12
327.036	0.12
327.404	0.11
327.772	0.12
328.14	0.12
328.508	0.12
328.875	0.12
329.243	0.12
329.611	0.12
329.979	0.12
330.346	0.12
330.714	0.12
331.082	0.12
331.449	0.12
331.817	0.12
332.185	0.12
332.552	0.12
332.92	0.13
333.287	0.12
333.655	0.12
334.022	0.13
334.389	0.13
334.757	0.12
335.124	0.13
335.491	0.13
335.859	0.13
336.226	0.13
336.593	0.14
336.96	0.14
337.327	0.14
337.695	0.14
338.062	0.14
338.429	0.15
338.796	0.15
339.163	0.15
339.53	0.15
339.897	0.15
340.263	0.15
340.63	0.16
340.997	0.16
341.364	0.16
341.731	0.17
342.097	0.16
342.464	0.17
342.831	0.17
343.197	0.18
343.564	0.18
343.931	0.18
344.297	0.18
344.664	0.19
345.03	0.19
345.396	0.19
345.763	0.19
346.129	0.2
346.496	0.2
346.862	0.2
347.228	0.21
347.594	0.21
347.961	0.21
348.327	0.21
348.693	0.22
349.059	0.22
349.425	0.22
349.791	0.23
350.157	0.23
350.523	0.23
350.889	0.24
351.255	0.24
351.621	0.25
351.987	0.25
352.353	0.26
352.719	0.26
353.084	0.27
353.45	0.27
353.816	0.28
354.181	0.28
354.547	0.29
354.913	0.29
355.278	0.3
355.644	0.3
356.009	0.31
356.375	0.33
356.74	0.32
357.106	0.33
357.471	0.34
357.836	0.35
358.202	0.35
358.567	0.36
358.932	0.37
359.297	0.37
359.663	0.38
360.028	0.38
360.393	0.39
360.758	0.4
361.123	0.4
361.488	0.4
361.853	0.41
362.218	0.42
362.583	0.42
362.948	0.42
363.312	0.43
363.677	0.44
364.042	0.44
364.407	0.45
364.772	0.46
365.136	0.46
365.501	0.47
365.865	0.49
366.23	0.49
366.595	0.5
366.959	0.51
367.324	0.52
367.688	0.54
368.052	0.54
368.417	0.55
368.781	0.55
369.145	0.56
369.51	0.57
369.874	0.57
370.238	0.57
370.602	0.57
370.967	0.57
371.331	0.56
371.695	0.57
372.059	0.56
372.423	0.57
372.787	0.56
373.151	0.55
373.515	0.55
373.878	0.56
374.242	0.55
374.606	0.55
374.97	0.55
375.334	0.57
375.697	0.56
376.061	0.56
376.425	0.56
376.788	0.57
377.152	0.57
377.515	0.57
377.879	0.58
378.242	0.59
378.606	0.6
378.969	0.6
379.333	0.61
379.696	0.61
380.059	0.62
380.422	0.64
380.786	0.64
381.149	0.66
381.512	0.68
381.875	0.69
382.238	0.71
382.601	0.72
382.964	0.74
383.327	0.76
383.69	0.78
384.053	0.8
384.416	0.82
384.779	0.85
385.142	0.85
385.504	0.87
385.867	0.88
386.23	0.9
386.593	0.91
386.955	0.9
387.318	0.9
387.68	0.9
388.043	0.89
388.405	0.88
388.768	0.88
389.13	0.88
389.493	0.87
389.855	0.86
390.217	0.86
390.58	0.86
390.942	0.86
391.304	0.87
391.666	0.88
392.028	0.89
392.391	0.92
392.753	0.93
393.115	0.96
393.477	1
393.839	1.04
394.201	1.08
394.563	1.11
394.924	1.16
395.286	1.21
395.648	1.23
396.01	1.25
396.371	1.31
396.733	1.33
397.095	1.34
397.456	1.35
397.818	1.36
398.18	1.35
398.541	1.32
398.903	1.3
399.264	1.26
399.625	1.23
399.987	1.19
400.348	1.14
400.709	1.08
401.071	1.03
401.432	0.96
401.793	0.91
402.154	0.85
402.515	0.8
402.876	0.75
403.238	0.68
403.599	0.64
403.96	0.6
404.32	0.55
404.681	0.51
405.042	0.48
405.403	0.44
405.764	0.41
406.125	0.39
406.485	0.36
406.846	0.33
407.207	0.32
407.567	0.3
407.928	0.28
408.288	0.27
408.649	0.26
409.009	0.24
409.37	0.23
409.73	0.22
410.091	0.21
410.451	0.2
410.811	0.19
411.171	0.19
411.532	0.18
411.892	0.16
412.252	0.17
412.612	0.16
412.972	0.15
413.332	0.15
413.692	0.14
414.052	0.14
414.412	0.13
414.772	0.12
415.132	0.13
415.492	0.12
415.851	0.12
416.211	0.12
416.571	0.11
416.931	0.11
417.29	0.11
417.65	0.1
418.009	0.1
418.369	0.1
418.728	0.1
419.088	0.1
419.447	0.09
419.807	0.09
420.166	0.09
420.525	0.09
420.884	0.09
421.244	0.09
421.603	0.08
421.962	0.08
422.321	0.08
422.68	0.08
423.039	0.09
423.398	0.08
423.757	0.07
424.116	0.08
424.475	0.08
424.834	0.07
425.193	0.07
425.551	0.07
425.91	0.07
426.269	0.07
426.628	0.07
426.986	0.08
427.345	0.07
427.703	0.07
428.062	0.06
428.42	0.07
428.779	0.07
429.137	0.07
429.496	0.06
429.854	0.06
430.212	0.06
430.57	0.06
430.929	0.06
431.287	0.05
431.645	0.06
432.003	0.07
432.361	0.06
432.719	0.06
433.077	0.06
433.435	0.06
433.793	0.06
434.151	0.05
434.509	0.06
434.866	0.06
435.224	0.06
435.582	0.05
435.94	0.04
436.297	0.06
436.655	0.06
437.012	0.05
437.37	0.05
437.727	0.05
438.085	0.06
438.442	0.05
438.8	0.06
439.157	0.05
439.514	0.05
439.872	0.05
440.229	0.05
440.586	0.04
440.943	0.05
441.3	0.05
441.657	0.05
442.014	0.05
442.371	0.05
442.728	0.04
443.085	0.04
443.442	0.04
443.799	0.04
444.156	0.04
444.513	0.04
444.869	0.05
445.226	0.03
445.583	0.04
445.939	0.04
446.296	0.04
446.652	0.03
447.009	0.03
447.365	0.04
447.722	0.03
448.078	0.03
448.434	0.03
448.791	0.02
449.147	0.03
449.503	0.03
449.859	0.03
450.215	0.03
450.571	0.03
450.928	0.02
451.284	0.02
451.64	0.01
451.995	0.02
452.351	0.02
452.707	0.01
453.063	0.02
453.419	0.01
453.775	0.01
454.13	0
454.486	0
454.842	-0
455.197	-0
455.553	-0.01
455.908	-0.01
456.264	-0.01
456.619	-0.03
456.975	-0.03
457.33	-0.02
457.685	-0.03
458.04	-0.04
458.396	-0.03
458.751	-0.04
459.106	-0.05
459.461	-0.05
459.816	-0.05
460.171	-0.05
460.526	-0.06
460.881	-0.07
461.236	-0.07
461.591	-0.07
461.946	-0.08
462.301	-0.08
462.655	-0.09
463.01	-0.08
463.365	-0.09
463.719	-0.1
464.074	-0.11
464.428	-0.12
464.783	-0.12
465.137	-0.12
465.492	-0.12
465.846	-0.12
466.201	-0.13
466.555	-0.13
466.909	-0.12
467.263	-0.12
467.618	-0.12
467.972	-0.12
468.326	-0.12
468.68	-0.13
469.034	-0.13
469.388	-0.14
469.742	-0.14
470.096	-0.13
470.45	-0.13
470.804	-0.13
471.157	-0.13
471.511	-0.14
471.865	-0.13
472.218	-0.13
472.572	-0.13
472.926	-0.12
473.279	-0.12
473.633	-0.12
473.986	-0.11
474.34	-0.11
474.693	-0.1
475.046	-0.09
475.4	-0.08
475.753	-0.08
476.106	-0.07
476.459	-0.07
476.812	-0.06
477.165	-0.05
477.519	-0.05
477.872	-0.04
478.224	-0.04
478.577	-0.03
478.93	-0.04
479.283	-0.03
479.636	-0.03
479.989	-0.02
480.341	-0.02
480.694	-0.02
481.047	-0.02
481.399	-0.01
481.752	-0.01
482.104	-0
482.457	0
482.809	0
483.162	0
483.514	0.01
483.866	0.01
484.219	0.01
484.571	0.01
484.923	0.02
485.275	0.02
485.627	0.02
485.979	0.03
486.331	0.02
486.683	0.03
487.035	0.03
487.387	0.03
487.739	0.04
488.091	0.04
488.443	0.05
488.794	0.05
489.146	0.04
489.498	0.05
489.849	0.05
490.201	0.05
490.552	0.05
490.904	0.05
491.255	0.05
491.607	0.05
491.958	0.06
492.309	0.06
492.661	0.06
493.012	0.06
493.363	0.06
493.714	0.06
494.065	0.06
494.416	0.06
494.767	0.06
495.118	0.07
495.469	0.06
495.82	0.07
496.171	0.07
496.522	0.07
496.872	0.07
497.223	0.08
497.574	0.07
497.924	0.08
498.275	0.08
498.626	0.09
498.976	0.08
499.327	0.09
499.677	0.09
500.027	0.09
500.378	0.09
500.728	0.09
501.078	0.09
501.428	0.1
501.779	0.1
502.129	0.1
502.479	0.1
502.829	0.1
503.179	0.1
503.529	0.1
503.879	0.11
504.229	0.11
504.578	0.11
504.928	0.11
505.278	0.11
505.628	0.11
505.977	0.12
506.327	0.11
506.676	0.11
507.026	0.12
507.375	0.12
507.725	0.12
508.074	0.12
508.424	0.12
508.773	0.12
509.122	0.13
509.471	0.12
509.82	0.13
510.17	0.12
510.519	0.13
510.868	0.14
511.217	0.13
511.566	0.13
511.915	0.14
512.263	0.13
512.612	0.13
512.961	0.14
513.31	0.14
513.659	0.14
514.007	0.14
514.356	0.14
514.704	0.15
515.053	0.15
515.401	0.15
515.75	0.15
516.098	0.15
516.447	0.15
516.795	0.15
517.143	0.15
517.491	0.16
517.839	0.16
518.188	0.15
518.536	0.16
518.884	0.16
519.232	0.16
519.58	0.16
519.928	0.16
520.275	0.16
520.623	0.16
520.971	0.16
521.319	0.17
521.666	0.17
522.014	0.17
522.362	0.17
522.709	0.17
523.057	0.18
523.404	0.17
523.752	0.18
524.099	0.18
524.446	0.18
524.794	0.18
525.141	0.18
525.488	0.18
525.835	0.18
526.182	0.18
526.529	0.19
526.876	0.19
527.223	0.19
527.57	0.19
527.917	0.19
528.264	0.19
528.611	0.19
528.958	0.19
529.304	0.2
529.651	0.2
529.998	0.2
530.344	0.2
530.691	0.2
531.037	0.2
531.384	0.2
531.73	0.21
532.076	0.21
532.423	0.21
532.769	0.21
533.115	0.21
533.461	0.22
533.807	0.22
534.154	0.22
534.5	0.22
534.846	0.22
535.192	0.22
535.537	0.22
535.883	0.23
536.229	0.23
536.575	0.23
536.921	0.23
537.266	0.23
537.612	0.23
537.957	0.23
538.303	0.23
538.649	0.24
538.994	0.24
539.339	0.24
539.685	0.24
540.03	0.24
540.375	0.25
540.721	0.25
541.066	0.25
541.411	0.25
541.756	0.25
542.101	0.26
542.446	0.26
542.791	0.26
543.136	0.27
543.481	0.26
543.825	0.26
544.17	0.27
544.515	0.27
544.86	0.27
545.204	0.27
545.549	0.27
545.893	0.27
546.238	0.28
546.582	0.28
546.927	0.28
547.271	0.28
547.615	0.29
547.96	0.29
548.304	0.29
548.648	0.29
548.992	0.29
549.336	0.29
549.68	0.29
550.024	0.29
550.368	0.3
550.712	0.3
551.056	0.3
551.4	0.3
551.743	0.3
552.087	0.3
552.431	0.3
552.774	0.31
553.118	0.31
553.462	0.31
553.805	0.32
554.148	0.31
554.492	0.32
554.835	0.32
555.178	0.31
555.522	0.32
555.865	0.32
556.208	0.32
556.551	0.32
556.894	0.32
557.237	0.33
557.58	0.33
557.923	0.32
558.266	0.32
558.609	0.33
558.952	0.33
559.294	0.33
559.637	0.33
559.98	0.33
560.322	0.33
560.665	0.33
561.007	0.33
561.35	0.33
561.692	0.33
562.034	0.33
562.377	0.34
562.719	0.34
563.061	0.34
563.403	0.34
563.745	0.34
564.088	0.34
564.43	0.34
564.772	0.34
565.113	0.34
565.455	0.34
565.797	0.35
566.139	0.35
566.481	0.34
566.822	0.35
567.164	0.35
567.506	0.35
567.847	0.35
568.189	0.35
568.53	0.35
568.872	0.35
569.213	0.35
569.554	0.35
569.895	0.35
570.237	0.35
570.578	0.35
570.919	0.35
571.26	0.35
571.601	0.35
571.942	0.35
572.283	0.35
572.624	0.35
572.965	0.35
573.306	0.35
573.646	0.35
573.987	0.35
574.328	0.36
574.668	0.35
575.009	0.35
575.349	0.35
575.69	0.35
576.03	0.35
576.37	0.35
576.711	0.34
577.051	0.35
577.391	0.35
577.731	0.36
578.072	0.35
578.412	0.35
578.752	0.36
579.092	0.35
579.431	0.35
579.771	0.34
580.111	0.34
580.451	0.34
580.791	0.36
581.13	0.36
581.47	0.36
581.81	0.35
582.149	0.36
582.489	0.36
582.828	0.35
583.167	0.35
583.507	0.33
583.846	0.31
584.185	0.33
584.525	0.35
584.864	0.35
585.203	0.36
585.542	0.37
585.881	0.37
586.22	0.37
586.559	0.37
586.898	0.37
587.236	0.37
587.575	0.37
587.914	0.37
588.252	0.38
588.591	0.38
588.93	0.38
589.268	0.37
589.607	0.38
589.945	0.38
590.283	0.38
590.622	0.38
590.96	0.39
591.298	0.39
591.636	0.39
591.974	0.39
592.313	0.4
592.651	0.4
592.989	0.4
593.326	0.4
593.664	0.41
594.002	0.41
594.34	0.4
594.678	0.4
595.015	0.4
595.353	0.4
595.691	0.41
596.028	0.41
596.366	0.41
596.703	0.42
597.04	0.42
597.378	0.42
597.715	0.42
598.052	0.42
598.389	0.42
598.726	0.43
599.064	0.43
599.401	0.43
599.738	0.43
600.074	0.43
600.411	0.43
600.748	0.43
601.085	0.43
601.422	0.43
601.758	0.43
602.095	0.43
602.432	0.43
602.768	0.43
603.105	0.43
603.441	0.44
603.777	0.44
604.114	0.44
604.45	0.44
604.786	0.44
605.122	0.44
605.459	0.44
605.795	0.43
606.131	0.44
606.467	0.44
606.803	0.43
607.139	0.43
607.474	0.43
607.81	0.43
608.146	0.43
608.482	0.43
608.817	0.43
609.153	0.42
609.488	0.43
609.824	0.42
610.159	0.43
610.495	0.43
610.83	0.43
611.165	0.43
611.5	0.42
611.836	0.42
612.171	0.42
612.506	0.42
612.841	0.42
613.176	0.42
613.511	0.42
613.845	0.42
614.18	0.42
614.515	0.42
614.85	0.42
615.184	0.42
615.519	0.41
615.854	0.42
616.188	0.41
616.523	0.41
616.857	0.4
617.191	0.4
617.526	0.41
617.86	0.4
618.194	0.4
618.528	0.41
618.862	0.4
619.196	0.4
619.53	0.4
619.864	0.4
620.198	0.4
620.532	0.4
620.866	0.39
621.2	0.4
621.533	0.39
621.867	0.39
622.201	0.39
622.534	0.39
622.868	0.39
623.201	0.39
623.534	0.38
623.868	0.39
624.201	0.38
624.534	0.38
624.868	0.38
625.201	0.38
625.534	0.38
625.867	0.38
626.2	0.38
626.533	0.37
626.865	0.37
627.198	0.37
627.531	0.37
627.864	0.37
628.196	0.37
628.529	0.36
628.862	0.36
629.194	0.36
629.527	0.36
629.859	0.35
630.191	0.35
630.524	0.35
630.856	0.35
631.188	0.35
631.52	0.34
631.852	0.34
632.184	0.34
632.516	0.33
632.848	0.34
633.18	0.33
633.512	0.34
633.844	0.33
634.175	0.33
634.507	0.33
634.839	0.32
635.17	0.32
635.502	0.32
635.833	0.32
636.165	0.31
636.496	0.31
636.827	0.31
637.159	0.3
637.49	0.3
637.821	0.3
638.152	0.3
638.483	0.3
638.814	0.3
639.145	0.29
639.476	0.29
639.807	0.29
640.137	0.29
640.468	0.28
640.799	0.28
641.129	0.28
641.46	0.27
641.791	0.27
642.121	0.27
642.451	0.27
642.782	0.27
643.112	0.27
643.442	0.27
643.773	0.27
644.103	0.26
644.433	0.26
644.763	0.26
645.093	0.26
645.423	0.25
645.753	0.25
646.082	0.25
646.412	0.25
646.742	0.25
647.072	0.25
647.401	0.25
647.731	0.25
648.06	0.25
648.39	0.25
648.719	0.25
649.048	0.25
649.378	0.25
649.707	0.24
650.036	0.24
650.365	0.25
650.694	0.24
651.023	0.24
651.352	0.24
651.681	0.24
652.01	0.24
652.339	0.24
652.668	0.25
652.996	0.24
653.325	0.24
653.654	0.24
653.982	0.24
654.311	0.24
654.639	0.24
654.967	0.24
655.296	0.24
655.624	0.24
655.952	0.24
656.28	0.24
656.609	0.23
656.937	0.24
657.265	0.23
657.593	0.2
657.92	0.08
658.248	0.03
658.576	0.03
658.904	0.12
659.231	0.21
659.559	0.23
659.887	0.23
660.214	0.24
660.542	0.24
660.869	0.23
661.196	0.23
661.524	0.23
661.851	0.23
662.178	0.23
662.505	0.23
662.832	0.23
663.159	0.23
663.486	0.23
663.813	0.23
664.14	0.23
664.467	0.23
664.794	0.23
665.12	0.23
665.447	0.23
665.774	0.23
666.1	0.23
666.427	0.23
666.753	0.22
667.079	0.23
667.406	0.22
667.732	0.22
668.058	0.22
668.384	0.22
668.71	0.22
669.036	0.22
669.362	0.22
669.688	0.22
670.014	0.22
670.34	0.22
670.666	0.22
670.991	0.22
671.317	0.22
671.643	0.21
671.968	0.21
672.294	0.21
672.619	0.21
672.945	0.21
673.27	0.21
673.595	0.21
673.92	0.21
674.246	0.2
674.571	0.2
674.896	0.2
675.221	0.2
675.546	0.2
675.87	0.2
676.195	0.2
676.52	0.2
676.845	0.2
677.169	0.2
677.494	0.2
677.819	0.2
678.143	0.19
678.468	0.19
678.792	0.19
679.116	0.19
679.44	0.18
679.765	0.18
680.089	0.18
680.413	0.17
680.737	0.17
681.061	0.17
681.385	0.17
681.709	0.17
682.033	0.17
682.356	0.17
682.68	0.17
683.004	0.17
683.327	0.17
683.651	0.17
683.974	0.17
684.298	0.16
684.621	0.16
684.944	0.16
685.268	0.16
685.591	0.16
685.914	0.15
686.237	0.15
686.56	0.15
686.883	0.15
687.206	0.15
687.529	0.15
687.852	0.14
688.175	0.15
688.497	0.14
688.82	0.14
689.142	0.14
689.465	0.14
689.787	0.14
690.11	0.14
690.432	0.13
690.755	0.13
691.077	0.13
691.399	0.13
691.721	0.13
692.043	0.13
692.365	0.13
692.687	0.13
693.009	0.12
693.331	0.12
693.653	0.12
693.974	0.12
694.296	0.12
694.618	0.12
694.939	0.12
695.261	0.12
695.582	0.11
695.904	0.11
696.225	0.11
696.546	0.11
696.868	0.11
697.189	0.11
697.51	0.11
697.831	0.11
698.152	0.11
698.473	0.11
698.794	0.1
699.114	0.1
699.435	0.1
699.756	0.1
700.077	0.1
700.397	0.1
700.718	0.1
701.038	0.1
701.359	0.1
701.679	0.1
701.999	0.1
702.32	0.1
702.64	0.1
702.96	0.1
703.28	0.1
703.6	0.1
703.92	0.1
704.24	0.1
704.56	0.09
704.879	0.1
705.199	0.1
705.519	0.1
705.838	0.09
706.158	0.09
706.478	0.09
706.797	0.09
707.116	0.09
707.436	0.09
707.755	0.09
708.074	0.09
708.393	0.09
708.712	0.08
709.031	0.08
709.35	0.08
709.669	0.08
709.988	0.08
710.307	0.08
710.626	0.08
710.944	0.09
711.263	0.09
711.582	0.09
711.9	0.08
712.219	0.09
712.537	0.09
712.855	0.09
713.174	0.09
713.492	0.09
713.81	0.09
714.128	0.08
714.446	0.09
714.764	0.08
715.082	0.08
715.4	0.09
715.718	0.08
716.035	0.08
716.353	0.08
716.671	0.08
716.988	0.08
717.306	0.08
717.623	0.08
717.941	0.09
718.258	0.09
718.575	0.09
718.893	0.09
719.21	0.09
719.527	0.09
719.844	0.09
720.161	0.09
720.478	0.09
720.795	0.09
721.112	0.08
721.428	0.08
721.745	0.09
722.062	0.08
722.378	0.09
722.695	0.09
723.011	0.09
723.328	0.09
723.644	0.09
723.96	0.09
724.276	0.09
724.593	0.09
724.909	0.1
725.225	0.1
725.541	0.1
725.857	0.1
726.173	0.1
726.488	0.1
726.804	0.1
727.12	0.1
727.435	0.1
727.751	0.09
728.067	0.09
728.382	0.1
728.697	0.1
729.013	0.1
729.328	0.09
729.643	0.1
729.958	0.1
730.273	0.1
730.588	0.1
730.903	0.1
731.218	0.1
731.533	0.1
731.848	0.1
732.163	0.1
732.477	0.1
732.792	0.1
733.107	0.09
733.421	0.1
733.736	0.1
734.05	0.1
734.364	0.1
734.678	0.1
734.993	0.09
735.307	0.1
735.621	0.1
735.935	0.09
736.249	0.09
736.563	0.09
736.877	0.1
737.19	0.1
737.504	0.1
737.818	0.1
738.131	0.1
738.445	0.1
738.758	0.09
739.072	0.09
739.385	0.09
739.698	0.1
740.012	0.1
740.325	0.09
740.638	0.09
740.951	0.09
741.264	0.09
741.577	0.09
741.89	0.09
742.203	0.09
742.515	0.09
742.828	0.09
743.141	0.09
743.453	0.09
743.766	0.08
744.078	0.08
744.391	0.08
744.703	0.09
745.015	0.08
745.327	0.09
745.639	0.09
745.952	0.09
746.264	0.08
746.575	0.09
746.887	0.09
747.199	0.08
747.511	0.09
747.823	0.08
748.134	0.08
748.446	0.08
748.757	0.08
749.069	0.08
749.38	0.08
749.692	0.08
750.003	0.08
750.314	0.08
750.625	0.08
750.936	0.08
751.248	0.08
751.559	0.07
751.869	0.07
752.18	0.07
752.491	0.07
752.802	0.07
753.112	0.07
753.423	0.07
753.734	0.07
754.044	0.06
754.355	0.07
754.665	0.07
754.975	0.06
755.285	0.06
755.596	0.06
755.906	0.06
756.216	0.06
756.526	0.06
756.836	0.06
757.146	0.06
757.455	0.06
757.765	0.06
758.075	0.06
758.385	0.05
758.694	0.05
759.004	0.05
759.313	0.06
759.622	0.06
759.932	0.05
760.241	0.05
760.55	0.05
760.859	0.05
761.168	0.05
761.477	0.05
761.786	0.05
762.095	0.05
762.404	0.04
762.713	0.05
763.021	0.04
763.33	0.04
763.639	0.04
763.947	0.04
764.256	0.04
764.564	0.04
764.872	0.04
765.181	0.04
765.489	0.04
765.797	0.04
766.105	0.04
766.413	0.04
766.721	0.04
767.029	0.04
767.337	0.04
767.644	0.04
767.952	0.04
768.26	0.04
768.567	0.04
768.875	0.04
769.182	0.04
769.49	0.04
769.797	0.04
770.104	0.04
770.411	0.04
770.718	0.04
771.026	0.04
771.333	0.04
771.639	0.04
771.946	0.04
772.253	0.04
772.56	0.04
772.867	0.04
773.173	0.04
773.48	0.03
773.786	0.03
774.093	0.03
774.399	0.03
774.705	0.04
775.012	0.03
775.318	0.03
775.624	0.03
775.93	0.04
776.236	0.04
776.542	0.03
776.848	0.04
777.154	0.04
777.459	0.04
777.765	0.04
778.071	0.04
778.376	0.04
778.682	0.04
778.987	0.04
779.292	0.04
779.598	0.04
779.903	0.03
780.208	0.03
780.513	0.03
780.818	0.03
781.123	0.04
781.428	0.03
781.733	0.03
782.038	0.03
782.343	0.03
782.647	0.03
782.952	0.03
783.256	0.03
783.561	0.03
783.865	0.03
784.17	0.03
784.474	0.03
784.778	0.03
785.082	0.04
785.386	0.04
785.69	0.04
785.994	0.04
786.298	0.04
786.602	0.04
786.906	0.04
787.209	0.04
787.513	0.04
787.817	0.04
788.12	0.04
788.424	0.04
788.727	0.04
789.03	0.04
789.333	0.03
789.637	0.03
789.94	0.03
790.243	0.03
790.546	0.03
790.849	0.03
791.152	0.03
791.454	0.02
791.757	0.02
792.06	0.02
792.362	0.02
792.665	0.02
792.967	0.02
793.27	0.02
793.572	0.02
793.874	0.02
794.177	0.02
794.479	0.02
794.781	0.02
795.083	0.02
795.385	0.03
795.687	0.03
795.989	0.03
796.29	0.03
796.592	0.03
796.894	0.03
797.195	0.03
797.497	0.03
797.798	0.03
798.1	0.03
798.401	0.02
798.702	0.03
799.003	0.02
799.304	0.03
799.605	0.03
799.906	0.02
800.207	0.03
800.508	0.02
800.809	0.02
801.11	0.02
801.41	0.02
801.711	0.02
802.011	0.02
802.312	0.03
802.612	0.03
802.913	0.03
803.213	0.03
803.513	0.03
803.813	0.03
804.113	0.02
804.413	0.03
804.713	0.02
805.013	0.03
805.313	0.03
805.613	0.02
805.912	0.02
806.212	0.02
806.511	0.02
806.811	0.03
807.11	0.02
807.41	0.02
807.709	0.03
808.008	0.03
808.307	0.02
808.606	0.03
808.905	0.03
809.204	0.02
809.503	0.03
809.802	0.02
810.101	0.02
810.399	0.02
810.698	0.02
810.997	0.02
811.295	0.03
811.593	0.03
811.892	0.03
812.19	0.03
812.488	0.03
812.786	0.03
813.084	0.03
813.383	0.03
813.68	0.03
813.978	0.03
814.276	0.02
814.574	0.02
814.872	0.02
815.169	0.02
815.467	0.02
815.764	0.02
816.062	0.02
816.359	0.02
816.656	0.01
816.954	0.02
817.251	0.02
817.548	0.02
817.845	0.02
818.142	0.02
818.439	0.02
818.735	0.02
819.032	0.02
819.329	0.02
819.626	0.02
819.922	0.02
820.219	0.02
820.515	0.02
820.811	0.02
821.108	0.02
821.404	0.02
821.7	0.01
821.996	0.02
822.292	0.02
822.588	0.02
822.884	0.02
823.18	0.01
823.475	0.02
823.771	0.02
824.067	0.02
824.362	0.01
824.658	0.02
824.953	0.02
825.249	0.02
825.544	0.01
825.839	0.02
826.134	0.02
826.429	0.02
826.724	0.02
827.019	0.02
827.314	0.02
827.609	0.02
827.904	0.02
828.198	0.02
828.493	0.02
828.787	0.01
829.082	0.02
829.376	0.01
829.671	0.02
829.965	0.02
830.259	0.01
830.553	0.01
830.847	0.01
831.141	0.02
831.435	0.01
831.729	0.01
832.023	0.01
832.317	0.01
832.61	0.01
832.904	0.01
833.197	0.01
833.491	0.01
833.784	0.01
834.077	0.01
834.371	0.02
834.664	0.02
834.957	0.02
835.25	0.02
835.543	0.02
835.836	0.02
836.129	0.02
836.421	0.02
836.714	0.02
837.007	0.01
837.299	0.02
837.592	0.01
837.884	0.01
838.177	0
838.469	0.02
838.761	0.01
839.053	0.01
839.345	0.01
839.637	0.01
839.929	0.01
840.221	0.02
840.513	0.02
840.805	0.01
841.096	0.01
841.388	0.01
841.68	0.01
841.971	0.02
842.262	0.01
842.554	0.02
842.845	0.01
843.136	0.02
843.427	0.02
843.718	0.01
844.009	0.01
844.3	0.01
844.591	0.02
844.882	0
845.173	0.01
845.463	0.01
845.754	0.01
846.044	0.02
846.335	0.01
846.625	0.02
846.915	0.02
847.206	-0
847.496	0.01
847.786	0.02
848.076	0.01
848.366	0.01
848.656	0.01
848.945	0.01
849.235	0.01
849.525	0
849.814	0.02
850.104	0.02
850.393	0.02
850.683	0.02
850.972	0.01
851.261	0.01
851.551	0.03
851.84	0.02
852.129	0.02
852.418	0
852.707	0.01
852.995	0.02
853.284	0.01
853.573	0.01
853.862	0.02
854.15	0
854.439	0.01
854.727	0.01
855.015	0
855.304	0.01
855.592	-0
855.88	0.01
856.168	-0
856.456	0.01
856.744	0.02
857.032	-0.02
857.32	-0.02
857.607	0
857.895	-0.01
858.183	-0
858.47	-0
858.757	-0.01
859.045	0.01
859.332	0.01
859.619	-0
859.907	0.01
860.194	0.01
860.481	-0
860.768	0
861.054	0
861.341	0.01
861.628	-0.01
861.915	-0.01
862.201	-0.01
862.488	-0.02
862.774	-0
863.061	-0.01
863.347	-0.01
863.633	-0.02
863.919	0.01
864.205	0
864.491	0
864.777	-0.01
865.063	-0
865.349	-0
865.635	-0.01
865.92	0.02
866.206	-0.03
866.492	0.02
866.777	-0.04
867.062	-0.04
867.348	-0.04
867.633	0.02
867.918	0.02
868.203	-0
868.488	0.01
868.773	0.01
869.058	-0.06
869.343	-0.04
869.628	-0.04
869.912	-0.01
870.197	-0.02
870.482	-0.03
870.766	-0.03
871.05	0.01
871.335	0.02
871.619	-0.01
871.903	-0.02
872.187	-0.01
872.471	-0.05
872.755	-0.07
873.039	-0.02
873.323	-0.03
873.607	-0.01
873.89	-0.06
874.174	-0.08
874.458	-0.04
874.741	-0.01
875.024	-0.04
875.308	0.01
875.591	-0.03
875.874	0.02
876.157	-0.06
876.44	-0.06
876.723	0.02
877.006	0
877.289	-0.11
877.572	-0.01
877.854	0.01
878.137	-0.03
878.42	0.08
878.702	-0.06
878.984	-0.02
879.267	-0.05
879.549	-0
879.831	-0.02
880.113	-0.13
880.395	-0.02
880.677	-0.06
880.959	0.01
