Data from Rubpy_EV_900_EDTA_Buffered_Absorbance_13-45-34-832.txt Node
Date: Tue Jun 30 13:45:34 BST 2026
User: fpm-admin
Spectrometer: OFX00224
Trigger mode: 0
Integration Time (sec): 7.000000E-2
Scans to average: 3
Nonlinearity correction enabled: false
Boxcar width: 0
Storing dark spectrum: false
XAxis mode: Wavelengths
Number of Pixels in Spectrum: 2136
>>>>>Begin Spectral Data<<<<<
154.91	-0.03
155.289	-0.48
155.669	-0
156.048	-0.58
156.428	-0
156.807	-0.07
157.186	0.07
157.566	-0
157.945	-0.28
158.325	-0.75
158.704	-0.14
159.083	1.34
159.462	-0.22
159.842	0.12
160.221	-0.1
160.6	0.25
160.979	-0.34
161.359	-0
161.738	-0
162.117	-0.41
162.496	-0.2
162.875	-0
163.254	-0.1
163.633	0.16
164.012	-0
164.391	-0.18
164.77	-0.22
165.149	0.19
165.528	0.6
165.907	-0
166.286	-0
166.665	-0
167.044	-0.6
167.423	0.2
167.802	-0
168.181	-0.12
168.559	-0
168.938	-0
169.317	-0
169.696	-0
170.074	-0.1
170.453	-0
170.832	-0
171.21	0.09
171.589	-0
171.968	-0.7
172.346	-0.82
172.725	-0
173.103	-0
173.482	0.2
173.861	-0.16
174.239	0.02
174.617	-0
174.996	-0
175.374	0.12
175.753	-0.09
176.131	-0
176.51	-0.45
176.888	-0
177.266	-0
177.645	-0.02
178.023	0.55
178.401	-0.11
178.779	0.06
179.158	-0
179.536	0.29
179.914	-0.06
180.292	-0
180.67	0.36
181.048	0.54
181.427	-0
181.805	-0.36
182.183	-0.74
182.561	-0
182.939	-0
183.317	-0.05
183.695	0.52
184.073	-0
184.451	-1.01
184.829	0.05
185.206	-0.44
185.584	-0.24
185.962	-0
186.34	0.05
186.718	0.52
187.096	0.4
187.473	0.08
187.851	-0.12
188.229	-0
188.607	0.11
188.984	0.17
189.362	0.03
189.74	0.1
190.117	-0.01
190.495	0.18
190.872	0.15
191.25	0.13
191.627	0.18
192.005	0.13
192.382	0.1
192.76	0.19
193.137	0.06
193.515	0.15
193.892	0.1
194.269	0.14
194.647	0.13
195.024	0.14
195.401	0.29
195.779	0.2
196.156	0.16
196.533	0.17
196.91	0.17
197.288	0.23
197.665	0.11
198.042	0.12
198.419	0.15
198.796	0.2
199.173	0.19
199.55	0.16
199.927	0.21
200.304	0.17
200.681	0.15
201.058	0.17
201.435	0.14
201.812	0.15
202.189	0.16
202.566	0.22
202.943	0.16
203.32	0.11
203.697	0.14
204.073	0.13
204.45	0.25
204.827	0.2
205.204	0.15
205.58	0.16
205.957	0.25
206.334	0.17
206.71	0.17
207.087	0.19
207.464	0.2
207.84	0.22
208.217	0.11
208.593	0.15
208.97	0.12
209.346	0.17
209.723	0.14
210.099	0.19
210.476	0.09
210.852	0.19
211.228	0.18
211.605	0.19
211.981	0.12
212.357	0.17
212.733	0.26
213.11	0.09
213.486	0.05
213.862	0.25
214.238	0.04
214.614	0.22
214.991	0.14
215.367	0.17
215.743	0.2
216.119	0.18
216.495	0.06
216.871	0.11
217.247	0.15
217.623	0.1
217.999	0.13
218.375	0.19
218.751	-0.04
219.127	0.04
219.502	0.18
219.878	0.11
220.254	0.11
220.63	0.1
221.006	0.21
221.381	0.21
221.757	0.19
222.133	0.15
222.508	0.16
222.884	0.24
223.26	0.26
223.635	0.15
224.011	0.16
224.386	0.06
224.762	0.22
225.137	0.18
225.513	0.03
225.888	0.21
226.264	0.06
226.639	0.09
227.014	0.16
227.39	0.04
227.765	0.1
228.14	0.23
228.516	0.07
228.891	0.23
229.266	0.2
229.641	0.07
230.017	0.18
230.392	0.22
230.767	0.15
231.142	0.2
231.517	0.22
231.892	0.2
232.267	0.11
232.642	0.11
233.017	0.1
233.392	0.13
233.767	0.14
234.142	0.16
234.517	0.17
234.892	0.13
235.267	0.23
235.641	0.18
236.016	0.25
236.391	0.21
236.766	0.09
237.14	0.16
237.515	0.17
237.89	0.22
238.264	0.19
238.639	0.17
239.014	0.17
239.388	0.11
239.763	0.18
240.137	0.16
240.512	0.11
240.886	0.11
241.261	0.12
241.635	0.2
242.009	0.18
242.384	0.19
242.758	0.22
243.132	-0.01
243.507	0.21
243.881	0.25
244.255	0.14
244.629	0.29
245.004	0.13
245.378	0.13
245.752	0.1
246.126	0.12
246.5	0.2
246.874	0.18
247.248	0.23
247.622	0.13
247.996	0.23
248.37	0.22
248.744	0.22
249.118	0.17
249.492	0.26
249.866	0.21
250.24	0.1
250.613	0.2
250.987	0.12
251.361	0.11
251.735	0.11
252.108	0.16
252.482	0.15
252.856	0.2
253.229	0.14
253.603	0.13
253.977	0.21
254.35	0.2
254.724	0.12
255.097	0.14
255.471	0.18
255.844	0.22
256.218	0.23
256.591	0.15
256.964	0.1
257.338	0.21
257.711	0.1
258.084	0.11
258.458	0.17
258.831	0.21
259.204	0.11
259.577	0.22
259.95	0.15
260.323	0.13
260.697	0.15
261.07	0.14
261.443	0.09
261.816	0.24
262.189	0.13
262.562	0.24
262.935	0.19
263.308	0.18
263.68	0.15
264.053	0.14
264.426	0.19
264.799	0.22
265.172	0.21
265.545	0.17
265.917	0.18
266.29	0.18
266.663	0.19
267.035	0.21
267.408	0.08
267.781	0.12
268.153	0.15
268.526	0.25
268.898	0.19
269.271	0.12
269.643	0.13
270.016	0.19
270.388	0.23
270.76	0.16
271.133	0.14
271.505	0.18
271.877	0.12
272.25	0.19
272.622	0.2
272.994	0.17
273.366	0.14
273.739	0.06
274.111	0.12
274.483	0.16
274.855	0.14
275.227	0.12
275.599	0.11
275.971	0.14
276.343	0.2
276.715	0.11
277.087	0.19
277.459	0.16
277.831	0.19
278.203	0.27
278.574	0.19
278.946	0.18
279.318	0.21
279.69	0.13
280.061	0.14
280.433	0.11
280.805	0.24
281.176	0.17
281.548	0.17
281.92	0.12
282.291	0.15
282.663	0.17
283.034	0.2
283.406	0.21
283.777	0.19
284.148	0.2
284.52	0.14
284.891	0.19
285.262	0.17
285.634	0.2
286.005	0.11
286.376	0.2
286.747	0.18
287.119	0.12
287.49	0.15
287.861	0.2
288.232	0.14
288.603	0.21
288.974	0.23
289.345	0.17
289.716	0.15
290.087	0.18
290.458	0.25
290.829	0.29
291.2	0.12
291.571	0.13
291.941	0.13
292.312	0.22
292.683	0.21
293.054	0.24
293.424	0.13
293.795	0.21
294.166	0.2
294.536	0.25
294.907	0.21
295.277	0.18
295.648	0.15
296.018	0.15
296.389	0.16
296.759	0.11
297.13	0.13
297.5	0.2
297.871	0.14
298.241	0.1
298.611	0.19
298.981	0.17
299.352	0.11
299.722	0.22
300.092	0.17
300.462	0.17
300.832	0.16
301.202	0.12
301.573	0.15
301.943	0.15
302.313	0.12
302.683	0.12
303.053	0.11
303.422	0.11
303.792	0.11
304.162	0.14
304.532	0.14
304.902	0.13
305.272	0.13
305.641	0.13
306.011	0.11
306.381	0.13
306.75	0.13
307.12	0.13
307.49	0.14
307.859	0.14
308.229	0.14
308.598	0.15
308.968	0.15
309.337	0.15
309.707	0.15
310.076	0.15
310.445	0.16
310.815	0.16
311.184	0.16
311.553	0.16
311.923	0.17
312.292	0.16
312.661	0.16
313.03	0.17
313.399	0.16
313.768	0.17
314.137	0.16
314.506	0.17
314.875	0.15
315.244	0.16
315.613	0.16
315.982	0.16
316.351	0.16
316.72	0.16
317.089	0.16
317.458	0.16
317.826	0.16
318.195	0.16
318.564	0.16
318.933	0.16
319.301	0.16
319.67	0.15
320.038	0.16
320.407	0.16
320.775	0.16
321.144	0.15
321.512	0.14
321.881	0.15
322.249	0.15
322.618	0.14
322.986	0.14
323.354	0.14
323.723	0.14
324.091	0.14
324.459	0.14
324.827	0.14
325.195	0.14
325.564	0.13
325.932	0.14
326.3	0.13
326.668	0.13
327.036	0.14
327.404	0.13
327.772	0.14
328.14	0.13
328.508	0.13
328.875	0.14
329.243	0.13
329.611	0.14
329.979	0.14
330.346	0.14
330.714	0.14
331.082	0.14
331.449	0.13
331.817	0.14
332.185	0.14
332.552	0.14
332.92	0.14
333.287	0.14
333.655	0.14
334.022	0.14
334.389	0.15
334.757	0.14
335.124	0.15
335.491	0.14
335.859	0.15
336.226	0.15
336.593	0.15
336.96	0.15
337.327	0.16
337.695	0.16
338.062	0.16
338.429	0.16
338.796	0.16
339.163	0.17
339.53	0.17
339.897	0.17
340.263	0.18
340.63	0.18
340.997	0.18
341.364	0.19
341.731	0.18
342.097	0.18
342.464	0.19
342.831	0.19
343.197	0.19
343.564	0.2
343.931	0.2
344.297	0.21
344.664	0.21
345.03	0.21
345.396	0.21
345.763	0.22
346.129	0.22
346.496	0.22
346.862	0.23
347.228	0.23
347.594	0.24
347.961	0.24
348.327	0.24
348.693	0.24
349.059	0.25
349.425	0.25
349.791	0.26
350.157	0.26
350.523	0.26
350.889	0.27
351.255	0.27
351.621	0.28
351.987	0.28
352.353	0.29
352.719	0.29
353.084	0.3
353.45	0.3
353.816	0.31
354.181	0.32
354.547	0.32
354.913	0.33
355.278	0.34
355.644	0.34
356.009	0.35
356.375	0.36
356.74	0.37
357.106	0.38
357.471	0.38
357.836	0.39
358.202	0.4
358.567	0.4
358.932	0.41
359.297	0.42
359.663	0.43
360.028	0.43
360.393	0.44
360.758	0.44
361.123	0.45
361.488	0.46
361.853	0.46
362.218	0.46
362.583	0.47
362.948	0.47
363.312	0.48
363.677	0.48
364.042	0.49
364.407	0.51
364.772	0.51
365.136	0.52
365.501	0.53
365.865	0.54
366.23	0.55
366.595	0.56
366.959	0.57
367.324	0.58
367.688	0.6
368.052	0.61
368.417	0.62
368.781	0.63
369.145	0.63
369.51	0.63
369.874	0.64
370.238	0.64
370.602	0.64
370.967	0.64
371.331	0.62
371.695	0.63
372.059	0.63
372.423	0.63
372.787	0.63
373.151	0.61
373.515	0.61
373.878	0.62
374.242	0.62
374.606	0.62
374.97	0.62
375.334	0.63
375.697	0.62
376.061	0.63
376.425	0.63
376.788	0.63
377.152	0.64
377.515	0.64
377.879	0.65
378.242	0.66
378.606	0.66
378.969	0.67
379.333	0.68
379.696	0.68
380.059	0.7
380.422	0.71
380.786	0.73
381.149	0.74
381.512	0.75
381.875	0.76
382.238	0.79
382.601	0.8
382.964	0.83
383.327	0.84
383.69	0.87
384.053	0.89
384.416	0.91
384.779	0.94
385.142	0.95
385.504	0.97
385.867	0.98
386.23	1
386.593	0.99
386.955	0.99
387.318	0.99
387.68	0.99
388.043	0.99
388.405	0.98
388.768	0.99
389.13	0.97
389.493	0.97
389.855	0.96
390.217	0.95
390.58	0.96
390.942	0.95
391.304	0.97
391.666	0.97
392.028	0.99
392.391	1.01
392.753	1.04
393.115	1.07
393.477	1.11
393.839	1.15
394.201	1.18
394.563	1.23
394.924	1.29
395.286	1.31
395.648	1.37
396.01	1.38
396.371	1.41
396.733	1.46
397.095	1.47
397.456	1.48
397.818	1.5
398.18	1.48
398.541	1.46
398.903	1.43
399.264	1.4
399.625	1.35
399.987	1.31
400.348	1.25
400.709	1.2
401.071	1.14
401.432	1.07
401.793	1.01
402.154	0.94
402.515	0.89
402.876	0.82
403.238	0.76
403.599	0.71
403.96	0.66
404.32	0.62
404.681	0.57
405.042	0.54
405.403	0.5
405.764	0.46
406.125	0.43
406.485	0.4
406.846	0.38
407.207	0.36
407.567	0.34
407.928	0.32
408.288	0.3
408.649	0.29
409.009	0.26
409.37	0.26
409.73	0.24
410.091	0.23
410.451	0.22
410.811	0.21
411.171	0.2
411.532	0.19
411.892	0.18
412.252	0.18
412.612	0.17
412.972	0.16
413.332	0.16
413.692	0.16
414.052	0.16
414.412	0.15
414.772	0.14
415.132	0.13
415.492	0.14
415.851	0.13
416.211	0.13
416.571	0.13
416.931	0.12
417.29	0.12
417.65	0.11
418.009	0.11
418.369	0.11
418.728	0.11
419.088	0.11
419.447	0.11
419.807	0.11
420.166	0.1
420.525	0.1
420.884	0.1
421.244	0.1
421.603	0.09
421.962	0.09
422.321	0.09
422.68	0.09
423.039	0.09
423.398	0.09
423.757	0.08
424.116	0.09
424.475	0.09
424.834	0.08
425.193	0.08
425.551	0.08
425.91	0.08
426.269	0.08
426.628	0.08
426.986	0.08
427.345	0.07
427.703	0.09
428.062	0.07
428.42	0.07
428.779	0.07
429.137	0.08
429.496	0.07
429.854	0.07
430.212	0.07
430.57	0.07
430.929	0.06
431.287	0.05
431.645	0.07
432.003	0.06
432.361	0.07
432.719	0.06
433.077	0.06
433.435	0.07
433.793	0.06
434.151	0.07
434.509	0.06
434.866	0.06
435.224	0.07
435.582	0.06
435.94	0.06
436.297	0.06
436.655	0.06
437.012	0.06
437.37	0.06
437.727	0.06
438.085	0.06
438.442	0.05
438.8	0.06
439.157	0.05
439.514	0.05
439.872	0.05
440.229	0.06
440.586	0.06
440.943	0.05
441.3	0.05
441.657	0.05
442.014	0.06
442.371	0.05
442.728	0.05
443.085	0.04
443.442	0.04
443.799	0.05
444.156	0.04
444.513	0.05
444.869	0.04
445.226	0.04
445.583	0.05
445.939	0.04
446.296	0.04
446.652	0.03
447.009	0.05
447.365	0.04
447.722	0.03
448.078	0.03
448.434	0.04
448.791	0.02
449.147	0.04
449.503	0.04
449.859	0.04
450.215	0.03
450.571	0.03
450.928	0.03
451.284	0.02
451.64	0.02
451.995	0.02
452.351	0.02
452.707	0.01
453.063	0.01
453.419	0.02
453.775	0.01
454.13	0
454.486	0.01
454.842	0.01
455.197	-0.01
455.553	-0.01
455.908	-0.01
456.264	-0.01
456.619	-0.02
456.975	-0.02
457.33	-0.01
457.685	-0.02
458.04	-0.03
458.396	-0.03
458.751	-0.03
459.106	-0.05
459.461	-0.05
459.816	-0.04
460.171	-0.05
460.526	-0.06
460.881	-0.07
461.236	-0.07
461.591	-0.07
461.946	-0.08
462.301	-0.08
462.655	-0.09
463.01	-0.08
463.365	-0.09
463.719	-0.09
464.074	-0.1
464.428	-0.12
464.783	-0.12
465.137	-0.12
465.492	-0.12
465.846	-0.12
466.201	-0.12
466.555	-0.12
466.909	-0.12
467.263	-0.12
467.618	-0.11
467.972	-0.12
468.326	-0.12
468.68	-0.12
469.034	-0.13
469.388	-0.13
469.742	-0.13
470.096	-0.13
470.45	-0.13
470.804	-0.12
471.157	-0.13
471.511	-0.14
471.865	-0.13
472.218	-0.13
472.572	-0.13
472.926	-0.11
473.279	-0.12
473.633	-0.12
473.986	-0.11
474.34	-0.1
474.693	-0.1
475.046	-0.09
475.4	-0.08
475.753	-0.07
476.106	-0.07
476.459	-0.06
476.812	-0.06
477.165	-0.05
477.519	-0.04
477.872	-0.04
478.224	-0.04
478.577	-0.03
478.93	-0.03
479.283	-0.03
479.636	-0.02
479.989	-0.02
480.341	-0.01
480.694	-0.01
481.047	-0.01
481.399	-0
481.752	-0
482.104	0.01
482.457	0.01
482.809	0.01
483.162	0.01
483.514	0.01
483.866	0.02
484.219	0.02
484.571	0.02
484.923	0.02
485.275	0.03
485.627	0.03
485.979	0.03
486.331	0.03
486.683	0.04
487.035	0.04
487.387	0.04
487.739	0.05
488.091	0.05
488.443	0.05
488.794	0.05
489.146	0.05
489.498	0.06
489.849	0.06
490.201	0.06
490.552	0.06
490.904	0.06
491.255	0.06
491.607	0.06
491.958	0.07
492.309	0.06
492.661	0.07
493.012	0.07
493.363	0.07
493.714	0.08
494.065	0.07
494.416	0.08
494.767	0.07
495.118	0.07
495.469	0.08
495.82	0.08
496.171	0.08
496.522	0.08
496.872	0.08
497.223	0.09
497.574	0.08
497.924	0.08
498.275	0.09
498.626	0.09
498.976	0.1
499.327	0.1
499.677	0.1
500.027	0.1
500.378	0.1
500.728	0.1
501.078	0.1
501.428	0.1
501.779	0.11
502.129	0.11
502.479	0.11
502.829	0.12
503.179	0.11
503.529	0.11
503.879	0.12
504.229	0.12
504.578	0.12
504.928	0.12
505.278	0.12
505.628	0.13
505.977	0.13
506.327	0.13
506.676	0.13
507.026	0.13
507.375	0.13
507.725	0.14
508.074	0.13
508.424	0.13
508.773	0.14
509.122	0.14
509.471	0.14
509.82	0.14
510.17	0.14
510.519	0.14
510.868	0.15
511.217	0.14
511.566	0.15
511.915	0.15
512.263	0.15
512.612	0.15
512.961	0.15
513.31	0.16
513.659	0.15
514.007	0.15
514.356	0.16
514.704	0.16
515.053	0.16
515.401	0.16
515.75	0.17
516.098	0.16
516.447	0.17
516.795	0.17
517.143	0.17
517.491	0.17
517.839	0.17
518.188	0.17
518.536	0.18
518.884	0.18
519.232	0.18
519.58	0.18
519.928	0.18
520.275	0.18
520.623	0.18
520.971	0.18
521.319	0.19
521.666	0.19
522.014	0.19
522.362	0.19
522.709	0.19
523.057	0.19
523.404	0.19
523.752	0.19
524.099	0.2
524.446	0.2
524.794	0.2
525.141	0.2
525.488	0.2
525.835	0.21
526.182	0.21
526.529	0.21
526.876	0.21
527.223	0.21
527.57	0.21
527.917	0.22
528.264	0.21
528.611	0.22
528.958	0.22
529.304	0.22
529.651	0.22
529.998	0.22
530.344	0.22
530.691	0.22
531.037	0.23
531.384	0.23
531.73	0.23
532.076	0.23
532.423	0.24
532.769	0.24
533.115	0.24
533.461	0.24
533.807	0.24
534.154	0.24
534.5	0.24
534.846	0.25
535.192	0.25
535.537	0.25
535.883	0.25
536.229	0.26
536.575	0.25
536.921	0.26
537.266	0.26
537.612	0.26
537.957	0.26
538.303	0.26
538.649	0.26
538.994	0.26
539.339	0.27
539.685	0.27
540.03	0.27
540.375	0.28
540.721	0.27
541.066	0.28
541.411	0.28
541.756	0.28
542.101	0.28
542.446	0.28
542.791	0.28
543.136	0.29
543.481	0.29
543.825	0.29
544.17	0.3
544.515	0.3
544.86	0.3
545.204	0.3
545.549	0.31
545.893	0.31
546.238	0.31
546.582	0.31
546.927	0.32
547.271	0.32
547.615	0.32
547.96	0.32
548.304	0.32
548.648	0.33
548.992	0.32
549.336	0.33
549.68	0.32
550.024	0.33
550.368	0.33
550.712	0.33
551.056	0.33
551.4	0.33
551.743	0.33
552.087	0.34
552.431	0.34
552.774	0.34
553.118	0.34
553.462	0.35
553.805	0.35
554.148	0.35
554.492	0.35
554.835	0.35
555.178	0.35
555.522	0.35
555.865	0.35
556.208	0.36
556.551	0.35
556.894	0.36
557.237	0.36
557.58	0.36
557.923	0.36
558.266	0.36
558.609	0.37
558.952	0.37
559.294	0.36
559.637	0.37
559.98	0.37
560.322	0.37
560.665	0.37
561.007	0.37
561.35	0.37
561.692	0.37
562.034	0.37
562.377	0.38
562.719	0.38
563.061	0.37
563.403	0.38
563.745	0.38
564.088	0.37
564.43	0.38
564.772	0.38
565.113	0.38
565.455	0.38
565.797	0.38
566.139	0.39
566.481	0.39
566.822	0.39
567.164	0.39
567.506	0.39
567.847	0.39
568.189	0.39
568.53	0.39
568.872	0.39
569.213	0.39
569.554	0.39
569.895	0.39
570.237	0.39
570.578	0.39
570.919	0.39
571.26	0.39
571.601	0.39
571.942	0.39
572.283	0.39
572.624	0.39
572.965	0.39
573.306	0.39
573.646	0.39
573.987	0.39
574.328	0.39
574.668	0.4
575.009	0.39
575.349	0.39
575.69	0.39
576.03	0.39
576.37	0.39
576.711	0.39
577.051	0.39
577.391	0.39
577.731	0.4
578.072	0.4
578.412	0.39
578.752	0.4
579.092	0.39
579.431	0.39
579.771	0.38
580.111	0.38
580.451	0.39
580.791	0.4
581.13	0.4
581.47	0.4
581.81	0.4
582.149	0.4
582.489	0.4
582.828	0.4
583.167	0.39
583.507	0.37
583.846	0.35
584.185	0.37
584.525	0.39
584.864	0.4
585.203	0.41
585.542	0.41
585.881	0.41
586.22	0.42
586.559	0.41
586.898	0.41
587.236	0.41
587.575	0.41
587.914	0.41
588.252	0.42
588.591	0.42
588.93	0.42
589.268	0.42
589.607	0.42
589.945	0.42
590.283	0.43
590.622	0.43
590.96	0.43
591.298	0.44
591.636	0.44
591.974	0.44
592.313	0.44
592.651	0.45
592.989	0.45
593.326	0.45
593.664	0.45
594.002	0.45
594.34	0.45
594.678	0.45
595.015	0.45
595.353	0.45
595.691	0.45
596.028	0.46
596.366	0.47
596.703	0.47
597.04	0.47
597.378	0.47
597.715	0.47
598.052	0.47
598.389	0.47
598.726	0.48
599.064	0.47
599.401	0.48
599.738	0.48
600.074	0.48
600.411	0.48
600.748	0.48
601.085	0.48
601.422	0.47
601.758	0.47
602.095	0.48
602.432	0.48
602.768	0.48
603.105	0.48
603.441	0.49
603.777	0.49
604.114	0.49
604.45	0.49
604.786	0.48
605.122	0.49
605.459	0.48
605.795	0.49
606.131	0.49
606.467	0.49
606.803	0.48
607.139	0.49
607.474	0.48
607.81	0.48
608.146	0.48
608.482	0.48
608.817	0.48
609.153	0.48
609.488	0.47
609.824	0.47
610.159	0.47
610.495	0.47
610.83	0.48
611.165	0.48
611.5	0.47
611.836	0.47
612.171	0.47
612.506	0.47
612.841	0.47
613.176	0.47
613.511	0.47
613.845	0.47
614.18	0.46
614.515	0.47
614.85	0.46
615.184	0.47
615.519	0.46
615.854	0.46
616.188	0.46
616.523	0.45
616.857	0.45
617.191	0.45
617.526	0.45
617.86	0.45
618.194	0.45
618.528	0.45
618.862	0.45
619.196	0.45
619.53	0.45
619.864	0.45
620.198	0.44
620.532	0.44
620.866	0.44
621.2	0.44
621.533	0.43
621.867	0.43
622.201	0.43
622.534	0.43
622.868	0.43
623.201	0.43
623.534	0.43
623.868	0.43
624.201	0.43
624.534	0.42
624.868	0.42
625.201	0.42
625.534	0.42
625.867	0.42
626.2	0.42
626.533	0.41
626.865	0.42
627.198	0.41
627.531	0.41
627.864	0.41
628.196	0.4
628.529	0.41
628.862	0.4
629.194	0.4
629.527	0.4
629.859	0.4
630.191	0.39
630.524	0.39
630.856	0.39
631.188	0.39
631.52	0.38
631.852	0.38
632.184	0.38
632.516	0.37
632.848	0.37
633.18	0.37
633.512	0.37
633.844	0.37
634.175	0.36
634.507	0.36
634.839	0.36
635.17	0.36
635.502	0.35
635.833	0.35
636.165	0.35
636.496	0.34
636.827	0.34
637.159	0.34
637.49	0.34
637.821	0.34
638.152	0.34
638.483	0.33
638.814	0.33
639.145	0.33
639.476	0.32
639.807	0.32
640.137	0.32
640.468	0.31
640.799	0.31
641.129	0.31
641.46	0.3
641.791	0.31
642.121	0.3
642.451	0.3
642.782	0.3
643.112	0.3
643.442	0.3
643.773	0.29
644.103	0.29
644.433	0.29
644.763	0.29
645.093	0.29
645.423	0.28
645.753	0.28
646.082	0.28
646.412	0.28
646.742	0.28
647.072	0.28
647.401	0.28
647.731	0.28
648.06	0.28
648.39	0.28
648.719	0.27
649.048	0.27
649.378	0.27
649.707	0.27
650.036	0.27
650.365	0.27
650.694	0.27
651.023	0.27
651.352	0.26
651.681	0.27
652.01	0.27
652.339	0.27
652.668	0.27
652.996	0.27
653.325	0.27
653.654	0.27
653.982	0.27
654.311	0.27
654.639	0.27
654.967	0.26
655.296	0.26
655.624	0.27
655.952	0.26
656.28	0.27
656.609	0.26
656.937	0.26
657.265	0.25
657.593	0.23
657.92	0.1
658.248	0.05
658.576	0.05
658.904	0.14
659.231	0.23
659.559	0.26
659.887	0.26
660.214	0.26
660.542	0.26
660.869	0.26
661.196	0.26
661.524	0.26
661.851	0.26
662.178	0.26
662.505	0.26
662.832	0.26
663.159	0.26
663.486	0.25
663.813	0.26
664.14	0.25
664.467	0.26
664.794	0.26
665.12	0.26
665.447	0.25
665.774	0.25
666.1	0.25
666.427	0.25
666.753	0.25
667.079	0.25
667.406	0.25
667.732	0.24
668.058	0.24
668.384	0.24
668.71	0.25
669.036	0.24
669.362	0.24
669.688	0.25
670.014	0.25
670.34	0.24
670.666	0.24
670.991	0.24
671.317	0.24
671.643	0.23
671.968	0.24
672.294	0.24
672.619	0.24
672.945	0.23
673.27	0.24
673.595	0.23
673.92	0.23
674.246	0.23
674.571	0.23
674.896	0.22
675.221	0.23
675.546	0.22
675.87	0.22
676.195	0.22
676.52	0.22
676.845	0.22
677.169	0.22
677.494	0.22
677.819	0.22
678.143	0.21
678.468	0.21
678.792	0.21
679.116	0.21
679.44	0.2
679.765	0.2
680.089	0.19
680.413	0.19
680.737	0.2
681.061	0.19
681.385	0.19
681.709	0.19
682.033	0.19
682.356	0.19
682.68	0.19
683.004	0.19
683.327	0.18
683.651	0.18
683.974	0.18
684.298	0.18
684.621	0.18
684.944	0.17
685.268	0.17
685.591	0.17
685.914	0.17
686.237	0.17
686.56	0.17
686.883	0.16
687.206	0.16
687.529	0.16
687.852	0.16
688.175	0.16
688.497	0.16
688.82	0.16
689.142	0.15
689.465	0.16
689.787	0.15
690.11	0.15
690.432	0.15
690.755	0.15
691.077	0.15
691.399	0.14
691.721	0.15
692.043	0.14
692.365	0.14
692.687	0.14
693.009	0.14
693.331	0.13
693.653	0.13
693.974	0.13
694.296	0.13
694.618	0.13
694.939	0.13
695.261	0.13
695.582	0.12
695.904	0.12
696.225	0.12
696.546	0.12
696.868	0.12
697.189	0.12
697.51	0.12
697.831	0.12
698.152	0.12
698.473	0.12
698.794	0.11
699.114	0.11
699.435	0.11
699.756	0.11
700.077	0.11
700.397	0.11
700.718	0.11
701.038	0.11
701.359	0.11
701.679	0.11
701.999	0.12
702.32	0.11
702.64	0.11
702.96	0.11
703.28	0.11
703.6	0.11
703.92	0.11
704.24	0.1
704.56	0.1
704.879	0.1
705.199	0.1
705.519	0.1
705.838	0.1
706.158	0.1
706.478	0.1
706.797	0.1
707.116	0.1
707.436	0.09
707.755	0.09
708.074	0.09
708.393	0.09
708.712	0.09
709.031	0.09
709.35	0.09
709.669	0.09
709.988	0.09
710.307	0.09
710.626	0.09
710.944	0.09
711.263	0.1
711.582	0.09
711.9	0.09
712.219	0.09
712.537	0.1
712.855	0.09
713.174	0.1
713.492	0.09
713.81	0.1
714.128	0.09
714.446	0.09
714.764	0.09
715.082	0.09
715.4	0.09
715.718	0.09
716.035	0.09
716.353	0.09
716.671	0.09
716.988	0.09
717.306	0.09
717.623	0.1
717.941	0.1
718.258	0.1
718.575	0.1
718.893	0.1
719.21	0.1
719.527	0.09
719.844	0.1
720.161	0.09
720.478	0.1
720.795	0.1
721.112	0.1
721.428	0.1
721.745	0.1
722.062	0.1
722.378	0.1
722.695	0.1
723.011	0.1
723.328	0.1
723.644	0.1
723.96	0.1
724.276	0.1
724.593	0.1
724.909	0.11
725.225	0.11
725.541	0.11
725.857	0.11
726.173	0.11
726.488	0.11
726.804	0.1
727.12	0.1
727.435	0.1
727.751	0.1
728.067	0.1
728.382	0.11
728.697	0.11
729.013	0.11
729.328	0.1
729.643	0.1
729.958	0.11
730.273	0.11
730.588	0.11
730.903	0.11
731.218	0.11
731.533	0.11
731.848	0.11
732.163	0.1
732.477	0.11
732.792	0.11
733.107	0.1
733.421	0.11
733.736	0.1
734.05	0.1
734.364	0.1
734.678	0.1
734.993	0.1
735.307	0.1
735.621	0.1
735.935	0.1
736.249	0.1
736.563	0.1
736.877	0.1
737.19	0.1
737.504	0.1
737.818	0.1
738.131	0.1
738.445	0.1
738.758	0.1
739.072	0.1
739.385	0.1
739.698	0.1
740.012	0.1
740.325	0.1
740.638	0.1
740.951	0.1
741.264	0.09
741.577	0.1
741.89	0.1
742.203	0.1
742.515	0.09
742.828	0.1
743.141	0.1
743.453	0.1
743.766	0.09
744.078	0.09
744.391	0.09
744.703	0.09
745.015	0.1
745.327	0.1
745.639	0.09
745.952	0.09
746.264	0.09
746.575	0.09
746.887	0.09
747.199	0.09
747.511	0.09
747.823	0.09
748.134	0.09
748.446	0.09
748.757	0.09
749.069	0.09
749.38	0.08
749.692	0.08
750.003	0.08
750.314	0.08
750.625	0.08
750.936	0.08
751.248	0.08
751.559	0.08
751.869	0.08
752.18	0.08
752.491	0.07
752.802	0.07
753.112	0.07
753.423	0.07
753.734	0.07
754.044	0.07
754.355	0.07
754.665	0.07
754.975	0.07
755.285	0.07
755.596	0.07
755.906	0.07
756.216	0.07
756.526	0.07
756.836	0.07
757.146	0.07
757.455	0.07
757.765	0.07
758.075	0.06
758.385	0.06
758.694	0.06
759.004	0.06
759.313	0.06
759.622	0.06
759.932	0.06
760.241	0.06
760.55	0.05
760.859	0.05
761.168	0.05
761.477	0.05
761.786	0.05
762.095	0.05
762.404	0.05
762.713	0.05
763.021	0.05
763.33	0.05
763.639	0.05
763.947	0.05
764.256	0.04
764.564	0.04
764.872	0.04
765.181	0.04
765.489	0.04
765.797	0.04
766.105	0.04
766.413	0.04
766.721	0.04
767.029	0.04
767.337	0.04
767.644	0.04
767.952	0.04
768.26	0.04
768.567	0.04
768.875	0.04
769.182	0.04
769.49	0.04
769.797	0.04
770.104	0.04
770.411	0.04
770.718	0.04
771.026	0.04
771.333	0.04
771.639	0.04
771.946	0.04
772.253	0.04
772.56	0.04
772.867	0.04
773.173	0.04
773.48	0.04
773.786	0.04
774.093	0.04
774.399	0.04
774.705	0.04
775.012	0.04
775.318	0.04
775.624	0.04
775.93	0.04
776.236	0.04
776.542	0.04
776.848	0.04
777.154	0.04
777.459	0.04
777.765	0.04
778.071	0.04
778.376	0.04
778.682	0.04
778.987	0.04
779.292	0.03
779.598	0.04
779.903	0.04
780.208	0.03
780.513	0.03
780.818	0.03
781.123	0.04
781.428	0.03
781.733	0.03
782.038	0.03
782.343	0.03
782.647	0.03
782.952	0.04
783.256	0.04
783.561	0.04
783.865	0.03
784.17	0.04
784.474	0.04
784.778	0.04
785.082	0.04
785.386	0.04
785.69	0.04
785.994	0.04
786.298	0.04
786.602	0.04
786.906	0.04
787.209	0.04
787.513	0.04
787.817	0.04
788.12	0.04
788.424	0.04
788.727	0.04
789.03	0.04
789.333	0.04
789.637	0.03
789.94	0.03
790.243	0.03
790.546	0.03
790.849	0.03
791.152	0.03
791.454	0.02
791.757	0.03
792.06	0.03
792.362	0.02
792.665	0.02
792.967	0.02
793.27	0.02
793.572	0.02
793.874	0.03
794.177	0.02
794.479	0.03
794.781	0.03
795.083	0.02
795.385	0.03
795.687	0.03
795.989	0.03
796.29	0.03
796.592	0.03
796.894	0.03
797.195	0.03
797.497	0.04
797.798	0.03
798.1	0.03
798.401	0.03
798.702	0.03
799.003	0.03
799.304	0.03
799.605	0.02
799.906	0.03
800.207	0.02
800.508	0.02
800.809	0.02
801.11	0.02
801.41	0.02
801.711	0.02
802.011	0.03
802.312	0.03
802.612	0.02
802.913	0.03
803.213	0.03
803.513	0.03
803.813	0.03
804.113	0.02
804.413	0.02
804.713	0.02
805.013	0.03
805.313	0.03
805.613	0.03
805.912	0.02
806.212	0.02
806.511	0.02
806.811	0.03
807.11	0.03
807.41	0.03
807.709	0.03
808.008	0.02
808.307	0.02
808.606	0.03
808.905	0.03
809.204	0.02
809.503	0.02
809.802	0.02
810.101	0.02
810.399	0.02
810.698	0.02
810.997	0.03
811.295	0.03
811.593	0.03
811.892	0.03
812.19	0.03
812.488	0.03
812.786	0.03
813.084	0.03
813.383	0.03
813.68	0.02
813.978	0.03
814.276	0.03
814.574	0.02
814.872	0.02
815.169	0.02
815.467	0.02
815.764	0.03
816.062	0.02
816.359	0.02
816.656	0.02
816.954	0.02
817.251	0.03
817.548	0.02
817.845	0.02
818.142	0.02
818.439	0.02
818.735	0.02
819.032	0.02
819.329	0.02
819.626	0.02
819.922	0.02
820.219	0.03
820.515	0.03
820.811	0.02
821.108	0.02
821.404	0.02
821.7	0.02
821.996	0.02
822.292	0.02
822.588	0.02
822.884	0.02
823.18	0.02
823.475	0.02
823.771	0.02
824.067	0.02
824.362	0.01
824.658	0.02
824.953	0.02
825.249	0.02
825.544	0.02
825.839	0.02
826.134	0.02
826.429	0.02
826.724	0.02
827.019	0.02
827.314	0.02
827.609	0.02
827.904	0.02
828.198	0.01
828.493	0.02
828.787	0.02
829.082	0.01
829.376	0.02
829.671	0.01
829.965	0.01
830.259	0.02
830.553	0.01
830.847	0.01
831.141	0.01
831.435	0.01
831.729	0.01
832.023	0.01
832.317	0.01
832.61	0.01
832.904	0.02
833.197	0.01
833.491	0.01
833.784	0.01
834.077	0.01
834.371	0.02
834.664	0.03
834.957	0.02
835.25	0.03
835.543	0.02
835.836	0.02
836.129	0.02
836.421	0.02
836.714	0.02
837.007	0.02
837.299	0.02
837.592	0.01
837.884	0.02
838.177	0.01
838.469	0.02
838.761	0.01
839.053	0.01
839.345	0.01
839.637	0.01
839.929	0.01
840.221	0.02
840.513	0.02
840.805	0.01
841.096	0.02
841.388	0.01
841.68	0.01
841.971	0.02
842.262	0.02
842.554	0.02
842.845	0.02
843.136	0.02
843.427	0.02
843.718	0
844.009	0.01
844.3	0.01
844.591	0.02
844.882	0.01
845.173	0.01
845.463	0.02
845.754	0.02
846.044	0.01
846.335	0.01
846.625	0.02
846.915	0.01
847.206	0.01
847.496	0.01
847.786	0.02
848.076	0.01
848.366	0
848.656	0.01
848.945	0
849.235	0.02
849.525	0.01
849.814	0.02
850.104	0.01
850.393	0.02
850.683	0
850.972	0.02
851.261	0.02
851.551	0.03
851.84	0.03
852.129	0.01
852.418	0.01
852.707	0.02
852.995	0.01
853.284	0.01
853.573	0.02
853.862	0.02
854.15	0.03
854.439	-0
854.727	0
855.015	-0.01
855.304	-0
855.592	0
855.88	0
856.168	-0.01
856.456	0
856.744	0.01
857.032	-0.02
857.32	-0.01
857.607	0.01
857.895	-0
858.183	0.01
858.47	0.01
858.757	-0
859.045	-0.01
859.332	0.01
859.619	0.01
859.907	0
860.194	0.01
860.481	-0
860.768	-0.01
861.054	-0.01
861.341	0.01
861.628	0.01
861.915	-0
862.201	0
862.488	-0.02
862.774	-0.01
863.061	-0
863.347	-0
863.633	-0.01
863.919	0
864.205	-0
864.491	-0.01
864.777	-0
865.063	0.02
865.349	0.02
865.635	0
865.92	0.01
866.206	-0.02
866.492	-0.01
866.777	-0.02
867.062	-0.03
867.348	-0.03
867.633	0.01
867.918	-0.04
868.203	0.01
868.488	-0.01
868.773	-0.02
869.058	-0.07
869.343	-0.05
869.628	-0.02
869.912	-0.01
870.197	-0.02
870.482	-0.02
870.766	-0.03
871.05	0.01
871.335	0.03
871.619	-0.02
871.903	-0.02
872.187	-0
872.471	-0.03
872.755	-0.05
873.039	-0.06
873.323	-0.01
873.607	0.04
873.89	-0.03
874.174	-0.01
874.458	-0.02
874.741	0.02
875.024	-0
875.308	0.02
875.591	-0.04
875.874	-0.01
876.157	-0.06
876.44	-0.04
876.723	0.06
877.006	0.05
877.289	-0.04
877.572	0.01
877.854	0.03
878.137	-0.04
878.42	0.03
878.702	-0.06
878.984	0.02
879.267	-0.02
879.549	0.03
879.831	-0.07
880.113	-0.11
880.395	-0.07
880.677	-0.15
880.959	-0.06
