Data from Rubpy_EV_900_EDTA_Buffered_Absorbance_13-39-57-825.txt Node
Date: Tue Jun 30 13:39:57 BST 2026
User: fpm-admin
Spectrometer: OFX00224
Trigger mode: 0
Integration Time (sec): 7.000000E-2
Scans to average: 3
Nonlinearity correction enabled: false
Boxcar width: 0
Storing dark spectrum: false
XAxis mode: Wavelengths
Number of Pixels in Spectrum: 2136
>>>>>Begin Spectral Data<<<<<
154.91	-0
155.289	-0.95
155.669	-0
156.048	-0.48
156.428	-0
156.807	1.23
157.186	0.03
157.566	-0
157.945	0.3
158.325	-0
158.704	-0
159.083	-0
159.462	-0.14
159.842	-0
160.221	0.09
160.6	0.23
160.979	-0.07
161.359	-0
161.738	-0
162.117	-0.29
162.496	-0
162.875	-1
163.254	-0
163.633	0.26
164.012	-1.26
164.391	0.99
164.77	-0
165.149	0.37
165.528	0.48
165.907	-0
166.286	-0
166.665	-0.3
167.044	-0
167.423	0.43
167.802	-0.12
168.181	-0
168.559	-0
168.938	-0
169.317	0.22
169.696	-0
170.074	-0.6
170.453	-0
170.832	-0
171.21	-0.18
171.589	-0
171.968	-0
172.346	-0.64
172.725	-0
173.103	-0
173.482	-0
173.861	0.26
174.239	0.07
174.617	-0
174.996	-0
175.374	-0
175.753	0.07
176.131	-0
176.51	-0.19
176.888	-0
177.266	0.83
177.645	-0.06
178.023	1.21
178.401	-0.02
178.779	-0.04
179.158	-0
179.536	0.52
179.914	-0.01
180.292	-0
180.67	-0.26
181.048	-0
181.427	-0
181.805	-0
182.183	-1.08
182.561	-0
182.939	-0.67
183.317	0.51
183.695	0.24
184.073	-0
184.451	-0.78
184.829	0.31
185.206	-0.33
185.584	-0
185.962	-0
186.34	0.1
186.718	0.22
187.096	-0
187.473	0.11
187.851	-0.54
188.229	-0.27
188.607	0.04
188.984	0.09
189.362	0.02
189.74	0.05
190.117	-0
190.495	0.08
190.872	0.12
191.25	0.14
191.627	0.04
192.005	0.13
192.382	0.04
192.76	0.15
193.137	0.03
193.515	0.04
193.892	0.11
194.269	0.1
194.647	0.15
195.024	0.09
195.401	0.1
195.779	0.15
196.156	0.14
196.533	0.05
196.91	0.09
197.288	0.18
197.665	0.02
198.042	0.06
198.419	-0
198.796	0.15
199.173	0.1
199.55	0.28
199.927	0.1
200.304	0.05
200.681	0.06
201.058	0.13
201.435	0.12
201.812	0.1
202.189	0.09
202.566	0.1
202.943	0.14
203.32	0.16
203.697	0.03
204.073	0.1
204.45	0.14
204.827	0.13
205.204	0.13
205.58	0.09
205.957	0.18
206.334	0.12
206.71	0.21
207.087	0.01
207.464	0.24
207.84	0.08
208.217	0.05
208.593	0.18
208.97	0.06
209.346	0.12
209.723	0.14
210.099	0.15
210.476	0.07
210.852	0
211.228	0.09
211.605	0.1
211.981	0.18
212.357	0.1
212.733	0.2
213.11	0.07
213.486	0.04
213.862	0.17
214.238	0.15
214.614	0.12
214.991	0.16
215.367	-0.02
215.743	0.04
216.119	0.08
216.495	0.07
216.871	0.11
217.247	0.15
217.623	0.16
217.999	0.09
218.375	0.14
218.751	0.05
219.127	0.08
219.502	0.08
219.878	0.07
220.254	0.15
220.63	-0.01
221.006	0.17
221.381	0.09
221.757	0.09
222.133	0.08
222.508	0.14
222.884	0.26
223.26	0.14
223.635	0.2
224.011	0.12
224.386	0.11
224.762	0.17
225.137	0.19
225.513	0.02
225.888	0.11
226.264	0.09
226.639	0.01
227.014	0.1
227.39	0.04
227.765	0.19
228.14	0.14
228.516	0.08
228.891	0.19
229.266	0.17
229.641	0.13
230.017	0.13
230.392	0.13
230.767	0.12
231.142	0.09
231.517	0.16
231.892	0.07
232.267	0.15
232.642	0.1
233.017	0.13
233.392	0.06
233.767	0.13
234.142	0.05
234.517	0.09
234.892	0.04
235.267	0.15
235.641	0.1
236.016	0.16
236.391	0.15
236.766	0.09
237.14	0.04
237.515	0.13
237.89	0.2
238.264	0.09
238.639	0.11
239.014	0.1
239.388	0.13
239.763	0.05
240.137	0.14
240.512	0.03
240.886	0.08
241.261	0.1
241.635	0.11
242.009	0.15
242.384	0.15
242.758	0.24
243.132	0.05
243.507	0.13
243.881	0.2
244.255	0.14
244.629	0.14
245.004	0.15
245.378	0.11
245.752	0.08
246.126	0.12
246.5	0.17
246.874	0.17
247.248	0.18
247.622	0.07
247.996	0.06
248.37	0.14
248.744	0.2
249.118	0.24
249.492	0.28
249.866	0.13
250.24	0.05
250.613	0.16
250.987	0.12
251.361	0.14
251.735	0.11
252.108	0.12
252.482	0.15
252.856	0.12
253.229	0.13
253.603	0.15
253.977	0.18
254.35	0.18
254.724	0.08
255.097	0.08
255.471	0.16
255.844	0.2
256.218	0.13
256.591	0.12
256.964	0.1
257.338	0.19
257.711	0.07
258.084	0.04
258.458	0.12
258.831	0.22
259.204	0.1
259.577	0.07
259.95	0.13
260.323	0.13
260.697	0.13
261.07	0.13
261.443	0.07
261.816	0.21
262.189	0.12
262.562	0.25
262.935	0.19
263.308	0.21
263.68	0.08
264.053	0.15
264.426	0.13
264.799	0.13
265.172	0.03
265.545	0.08
265.917	0.13
266.29	0.12
266.663	0.16
267.035	0.1
267.408	0.16
267.781	0.12
268.153	0.08
268.526	0.28
268.898	0.16
269.271	0.08
269.643	0.1
270.016	0.12
270.388	0.14
270.76	0.16
271.133	0.16
271.505	0.13
271.877	0.07
272.25	0.11
272.622	0.16
272.994	0.14
273.366	0.12
273.739	0.11
274.111	0.06
274.483	0.18
274.855	0.13
275.227	0.12
275.599	0.12
275.971	0.13
276.343	0.13
276.715	0.11
277.087	0.18
277.459	0.21
277.831	0.16
278.203	0.22
278.574	0.08
278.946	0.14
279.318	0.14
279.69	0.09
280.061	0.14
280.433	0.12
280.805	0.15
281.176	0.13
281.548	0.15
281.92	0.15
282.291	0.11
282.663	0.07
283.034	0.11
283.406	0.12
283.777	0.13
284.148	0.14
284.52	0.15
284.891	0.15
285.262	0.16
285.634	0.18
286.005	0.15
286.376	0.11
286.747	0.12
287.119	0.09
287.49	0.12
287.861	0.14
288.232	0.08
288.603	0.17
288.974	0.16
289.345	0.12
289.716	0.15
290.087	0.13
290.458	0.18
290.829	0.16
291.2	0.19
291.571	0.06
291.941	0.1
292.312	0.09
292.683	0.15
293.054	0.13
293.424	0.12
293.795	0.15
294.166	0.14
294.536	0.18
294.907	0.1
295.277	0.14
295.648	0.11
296.018	0.18
296.389	0.1
296.759	0.1
297.13	0.08
297.5	0.14
297.871	0.12
298.241	0.06
298.611	0.17
298.981	0.11
299.352	0.12
299.722	0.13
300.092	0.12
300.462	0.14
300.832	0.12
301.202	0.09
301.573	0.07
301.943	0.1
302.313	0.11
302.683	0.06
303.053	0.09
303.422	0.08
303.792	0.08
304.162	0.09
304.532	0.1
304.902	0.08
305.272	0.08
305.641	0.08
306.011	0.08
306.381	0.08
306.75	0.08
307.12	0.07
307.49	0.1
307.859	0.09
308.229	0.1
308.598	0.09
308.968	0.1
309.337	0.1
309.707	0.1
310.076	0.1
310.445	0.1
310.815	0.1
311.184	0.09
311.553	0.1
311.923	0.11
312.292	0.1
312.661	0.11
313.03	0.1
313.399	0.11
313.768	0.1
314.137	0.1
314.506	0.1
314.875	0.1
315.244	0.11
315.613	0.1
315.982	0.11
316.351	0.11
316.72	0.1
317.089	0.1
317.458	0.1
317.826	0.1
318.195	0.1
318.564	0.1
318.933	0.1
319.301	0.1
319.67	0.09
320.038	0.09
320.407	0.09
320.775	0.1
321.144	0.1
321.512	0.09
321.881	0.09
322.249	0.09
322.618	0.09
322.986	0.09
323.354	0.08
323.723	0.09
324.091	0.09
324.459	0.09
324.827	0.09
325.195	0.08
325.564	0.08
325.932	0.09
326.3	0.08
326.668	0.08
327.036	0.08
327.404	0.07
327.772	0.08
328.14	0.08
328.508	0.08
328.875	0.08
329.243	0.08
329.611	0.09
329.979	0.09
330.346	0.08
330.714	0.09
331.082	0.09
331.449	0.08
331.817	0.09
332.185	0.09
332.552	0.09
332.92	0.09
333.287	0.09
333.655	0.09
334.022	0.09
334.389	0.09
334.757	0.09
335.124	0.09
335.491	0.09
335.859	0.09
336.226	0.09
336.593	0.1
336.96	0.1
337.327	0.09
337.695	0.1
338.062	0.1
338.429	0.1
338.796	0.1
339.163	0.1
339.53	0.11
339.897	0.1
340.263	0.1
340.63	0.11
340.997	0.11
341.364	0.11
341.731	0.11
342.097	0.11
342.464	0.11
342.831	0.12
343.197	0.12
343.564	0.12
343.931	0.13
344.297	0.12
344.664	0.13
345.03	0.13
345.396	0.13
345.763	0.13
346.129	0.13
346.496	0.13
346.862	0.14
347.228	0.14
347.594	0.14
347.961	0.14
348.327	0.15
348.693	0.15
349.059	0.15
349.425	0.15
349.791	0.16
350.157	0.16
350.523	0.16
350.889	0.17
351.255	0.17
351.621	0.17
351.987	0.17
352.353	0.18
352.719	0.18
353.084	0.18
353.45	0.19
353.816	0.19
354.181	0.19
354.547	0.2
354.913	0.2
355.278	0.21
355.644	0.21
356.009	0.22
356.375	0.23
356.74	0.22
357.106	0.23
357.471	0.24
357.836	0.24
358.202	0.24
358.567	0.25
358.932	0.25
359.297	0.25
359.663	0.26
360.028	0.26
360.393	0.27
360.758	0.27
361.123	0.28
361.488	0.28
361.853	0.29
362.218	0.28
362.583	0.28
362.948	0.29
363.312	0.3
363.677	0.3
364.042	0.31
364.407	0.31
364.772	0.32
365.136	0.32
365.501	0.33
365.865	0.33
366.23	0.34
366.595	0.35
366.959	0.36
367.324	0.37
367.688	0.37
368.052	0.37
368.417	0.38
368.781	0.39
369.145	0.39
369.51	0.39
369.874	0.39
370.238	0.4
370.602	0.4
370.967	0.4
371.331	0.39
371.695	0.4
372.059	0.39
372.423	0.39
372.787	0.39
373.151	0.38
373.515	0.39
373.878	0.39
374.242	0.39
374.606	0.39
374.97	0.39
375.334	0.4
375.697	0.39
376.061	0.39
376.425	0.4
376.788	0.39
377.152	0.4
377.515	0.4
377.879	0.41
378.242	0.42
378.606	0.42
378.969	0.42
379.333	0.42
379.696	0.43
380.059	0.44
380.422	0.45
380.786	0.46
381.149	0.46
381.512	0.48
381.875	0.48
382.238	0.49
382.601	0.51
382.964	0.52
383.327	0.54
383.69	0.55
384.053	0.57
384.416	0.59
384.779	0.6
385.142	0.61
385.504	0.62
385.867	0.62
386.23	0.63
386.593	0.63
386.955	0.64
387.318	0.64
387.68	0.64
388.043	0.63
388.405	0.63
388.768	0.63
389.13	0.62
389.493	0.62
389.855	0.61
390.217	0.61
390.58	0.61
390.942	0.61
391.304	0.62
391.666	0.62
392.028	0.63
392.391	0.65
392.753	0.66
393.115	0.68
393.477	0.71
393.839	0.74
394.201	0.77
394.563	0.79
394.924	0.83
395.286	0.86
395.648	0.89
396.01	0.91
396.371	0.94
396.733	0.96
397.095	0.97
397.456	0.98
397.818	0.99
398.18	0.99
398.541	0.96
398.903	0.94
399.264	0.92
399.625	0.9
399.987	0.86
400.348	0.83
400.709	0.77
401.071	0.74
401.432	0.69
401.793	0.65
402.154	0.61
402.515	0.57
402.876	0.53
403.238	0.49
403.599	0.46
403.96	0.42
404.32	0.4
404.681	0.37
405.042	0.35
405.403	0.32
405.764	0.3
406.125	0.28
406.485	0.25
406.846	0.24
407.207	0.22
407.567	0.21
407.928	0.2
408.288	0.19
408.649	0.19
409.009	0.17
409.37	0.16
409.73	0.16
410.091	0.15
410.451	0.14
410.811	0.13
411.171	0.13
411.532	0.12
411.892	0.12
412.252	0.12
412.612	0.11
412.972	0.1
413.332	0.11
413.692	0.1
414.052	0.1
414.412	0.1
414.772	0.09
415.132	0.09
415.492	0.09
415.851	0.08
416.211	0.09
416.571	0.08
416.931	0.08
417.29	0.08
417.65	0.07
418.009	0.08
418.369	0.07
418.728	0.07
419.088	0.07
419.447	0.07
419.807	0.07
420.166	0.06
420.525	0.07
420.884	0.07
421.244	0.06
421.603	0.05
421.962	0.06
422.321	0.06
422.68	0.06
423.039	0.06
423.398	0.06
423.757	0.05
424.116	0.06
424.475	0.06
424.834	0.05
425.193	0.05
425.551	0.06
425.91	0.05
426.269	0.06
426.628	0.06
426.986	0.05
427.345	0.05
427.703	0.06
428.062	0.04
428.42	0.05
428.779	0.05
429.137	0.06
429.496	0.05
429.854	0.05
430.212	0.05
430.57	0.05
430.929	0.04
431.287	0.03
431.645	0.05
432.003	0.04
432.361	0.04
432.719	0.04
433.077	0.05
433.435	0.04
433.793	0.04
434.151	0.04
434.509	0.04
434.866	0.04
435.224	0.05
435.582	0.04
435.94	0.04
436.297	0.05
436.655	0.04
437.012	0.04
437.37	0.03
437.727	0.04
438.085	0.04
438.442	0.03
438.8	0.04
439.157	0.03
439.514	0.03
439.872	0.03
440.229	0.04
440.586	0.03
440.943	0.03
441.3	0.03
441.657	0.04
442.014	0.04
442.371	0.03
442.728	0.03
443.085	0.03
443.442	0.01
443.799	0.03
444.156	0.03
444.513	0.03
444.869	0.03
445.226	0.03
445.583	0.02
445.939	0.02
446.296	0.02
446.652	0.02
447.009	0.03
447.365	0.02
447.722	0.02
448.078	0.02
448.434	0.02
448.791	0.02
449.147	0.02
449.503	0.02
449.859	0.02
450.215	0.02
450.571	0.01
450.928	0.01
451.284	0.01
451.64	0.01
451.995	-0
452.351	0
452.707	0
453.063	-0
453.419	-0
453.775	-0
454.13	-0.01
454.486	-0.01
454.842	-0.01
455.197	-0.02
455.553	-0.02
455.908	-0.03
456.264	-0.02
456.619	-0.04
456.975	-0.04
457.33	-0.03
457.685	-0.04
458.04	-0.06
458.396	-0.05
458.751	-0.05
459.106	-0.05
459.461	-0.06
459.816	-0.06
460.171	-0.07
460.526	-0.07
460.881	-0.08
461.236	-0.08
461.591	-0.08
461.946	-0.09
462.301	-0.09
462.655	-0.1
463.01	-0.1
463.365	-0.1
463.719	-0.1
464.074	-0.11
464.428	-0.12
464.783	-0.13
465.137	-0.13
465.492	-0.13
465.846	-0.13
466.201	-0.13
466.555	-0.13
466.909	-0.12
467.263	-0.13
467.618	-0.12
467.972	-0.13
468.326	-0.13
468.68	-0.13
469.034	-0.14
469.388	-0.15
469.742	-0.14
470.096	-0.14
470.45	-0.14
470.804	-0.14
471.157	-0.14
471.511	-0.15
471.865	-0.14
472.218	-0.15
472.572	-0.14
472.926	-0.13
473.279	-0.13
473.633	-0.13
473.986	-0.12
474.34	-0.12
474.693	-0.11
475.046	-0.1
475.4	-0.09
475.753	-0.08
476.106	-0.09
476.459	-0.08
476.812	-0.08
477.165	-0.06
477.519	-0.06
477.872	-0.05
478.224	-0.06
478.577	-0.04
478.93	-0.05
479.283	-0.05
479.636	-0.04
479.989	-0.04
480.341	-0.03
480.694	-0.03
481.047	-0.03
481.399	-0.02
481.752	-0.02
482.104	-0.02
482.457	-0.01
482.809	-0.01
483.162	-0.01
483.514	-0.01
483.866	-0
484.219	-0
484.571	-0
484.923	-0
485.275	0
485.627	0
485.979	0.01
486.331	0
486.683	0.01
487.035	0.01
487.387	0.02
487.739	0.02
488.091	0.02
488.443	0.03
488.794	0.03
489.146	0.02
489.498	0.03
489.849	0.02
490.201	0.02
490.552	0.03
490.904	0.03
491.255	0.03
491.607	0.03
491.958	0.03
492.309	0.03
492.661	0.03
493.012	0.04
493.363	0.03
493.714	0.04
494.065	0.03
494.416	0.04
494.767	0.04
495.118	0.04
495.469	0.04
495.82	0.04
496.171	0.04
496.522	0.04
496.872	0.05
497.223	0.05
497.574	0.05
497.924	0.05
498.275	0.05
498.626	0.05
498.976	0.05
499.327	0.06
499.677	0.06
500.027	0.07
500.378	0.06
500.728	0.06
501.078	0.06
501.428	0.06
501.779	0.06
502.129	0.06
502.479	0.07
502.829	0.07
503.179	0.07
503.529	0.07
503.879	0.07
504.229	0.07
504.578	0.07
504.928	0.07
505.278	0.08
505.628	0.07
505.977	0.08
506.327	0.08
506.676	0.08
507.026	0.08
507.375	0.08
507.725	0.08
508.074	0.08
508.424	0.08
508.773	0.08
509.122	0.09
509.471	0.08
509.82	0.08
510.17	0.08
510.519	0.09
510.868	0.09
511.217	0.09
511.566	0.09
511.915	0.09
512.263	0.09
512.612	0.09
512.961	0.09
513.31	0.09
513.659	0.1
514.007	0.09
514.356	0.1
514.704	0.1
515.053	0.1
515.401	0.1
515.75	0.1
516.098	0.1
516.447	0.11
516.795	0.11
517.143	0.11
517.491	0.11
517.839	0.11
518.188	0.11
518.536	0.11
518.884	0.11
519.232	0.11
519.58	0.11
519.928	0.11
520.275	0.11
520.623	0.11
520.971	0.11
521.319	0.12
521.666	0.12
522.014	0.12
522.362	0.12
522.709	0.11
523.057	0.12
523.404	0.12
523.752	0.12
524.099	0.13
524.446	0.12
524.794	0.12
525.141	0.13
525.488	0.13
525.835	0.13
526.182	0.13
526.529	0.13
526.876	0.13
527.223	0.13
527.57	0.13
527.917	0.13
528.264	0.13
528.611	0.13
528.958	0.14
529.304	0.14
529.651	0.14
529.998	0.13
530.344	0.14
530.691	0.14
531.037	0.14
531.384	0.14
531.73	0.14
532.076	0.15
532.423	0.14
532.769	0.15
533.115	0.15
533.461	0.15
533.807	0.15
534.154	0.15
534.5	0.16
534.846	0.16
535.192	0.15
535.537	0.16
535.883	0.16
536.229	0.16
536.575	0.16
536.921	0.16
537.266	0.16
537.612	0.16
537.957	0.16
538.303	0.16
538.649	0.17
538.994	0.17
539.339	0.17
539.685	0.17
540.03	0.17
540.375	0.17
540.721	0.17
541.066	0.17
541.411	0.18
541.756	0.18
542.101	0.18
542.446	0.18
542.791	0.18
543.136	0.18
543.481	0.18
543.825	0.18
544.17	0.19
544.515	0.19
544.86	0.19
545.204	0.19
545.549	0.19
545.893	0.19
546.238	0.19
546.582	0.2
546.927	0.2
547.271	0.2
547.615	0.2
547.96	0.2
548.304	0.2
548.648	0.2
548.992	0.2
549.336	0.2
549.68	0.2
550.024	0.21
550.368	0.21
550.712	0.21
551.056	0.21
551.4	0.21
551.743	0.21
552.087	0.21
552.431	0.22
552.774	0.21
553.118	0.22
553.462	0.22
553.805	0.22
554.148	0.22
554.492	0.23
554.835	0.22
555.178	0.22
555.522	0.22
555.865	0.22
556.208	0.22
556.551	0.22
556.894	0.23
557.237	0.23
557.58	0.23
557.923	0.23
558.266	0.23
558.609	0.23
558.952	0.23
559.294	0.23
559.637	0.23
559.98	0.23
560.322	0.23
560.665	0.23
561.007	0.23
561.35	0.23
561.692	0.23
562.034	0.24
562.377	0.24
562.719	0.24
563.061	0.24
563.403	0.24
563.745	0.24
564.088	0.24
564.43	0.24
564.772	0.24
565.113	0.24
565.455	0.24
565.797	0.24
566.139	0.24
566.481	0.25
566.822	0.25
567.164	0.24
567.506	0.25
567.847	0.24
568.189	0.24
568.53	0.25
568.872	0.25
569.213	0.25
569.554	0.25
569.895	0.25
570.237	0.25
570.578	0.25
570.919	0.25
571.26	0.24
571.601	0.25
571.942	0.25
572.283	0.24
572.624	0.25
572.965	0.25
573.306	0.24
573.646	0.24
573.987	0.25
574.328	0.25
574.668	0.25
575.009	0.25
575.349	0.24
575.69	0.25
576.03	0.25
576.37	0.24
576.711	0.24
577.051	0.25
577.391	0.25
577.731	0.25
578.072	0.25
578.412	0.25
578.752	0.25
579.092	0.25
579.431	0.24
579.771	0.24
580.111	0.24
580.451	0.24
580.791	0.25
581.13	0.25
581.47	0.25
581.81	0.25
582.149	0.25
582.489	0.25
582.828	0.25
583.167	0.25
583.507	0.22
583.846	0.2
584.185	0.22
584.525	0.24
584.864	0.24
585.203	0.25
585.542	0.25
585.881	0.26
586.22	0.26
586.559	0.26
586.898	0.26
587.236	0.25
587.575	0.25
587.914	0.25
588.252	0.26
588.591	0.26
588.93	0.27
589.268	0.26
589.607	0.26
589.945	0.27
590.283	0.26
590.622	0.27
590.96	0.27
591.298	0.27
591.636	0.27
591.974	0.28
592.313	0.28
592.651	0.28
592.989	0.29
593.326	0.28
593.664	0.29
594.002	0.29
594.34	0.28
594.678	0.28
595.015	0.28
595.353	0.28
595.691	0.28
596.028	0.29
596.366	0.29
596.703	0.29
597.04	0.29
597.378	0.29
597.715	0.3
598.052	0.3
598.389	0.3
598.726	0.3
599.064	0.3
599.401	0.3
599.738	0.3
600.074	0.3
600.411	0.3
600.748	0.3
601.085	0.3
601.422	0.3
601.758	0.3
602.095	0.3
602.432	0.3
602.768	0.3
603.105	0.3
603.441	0.31
603.777	0.31
604.114	0.31
604.45	0.31
604.786	0.31
605.122	0.31
605.459	0.31
605.795	0.3
606.131	0.3
606.467	0.31
606.803	0.3
607.139	0.31
607.474	0.3
607.81	0.3
608.146	0.3
608.482	0.3
608.817	0.3
609.153	0.3
609.488	0.3
609.824	0.29
610.159	0.3
610.495	0.3
610.83	0.3
611.165	0.3
611.5	0.3
611.836	0.3
612.171	0.3
612.506	0.3
612.841	0.3
613.176	0.3
613.511	0.3
613.845	0.29
614.18	0.29
614.515	0.3
614.85	0.29
615.184	0.29
615.519	0.29
615.854	0.29
616.188	0.29
616.523	0.29
616.857	0.28
617.191	0.29
617.526	0.29
617.86	0.28
618.194	0.28
618.528	0.29
618.862	0.29
619.196	0.28
619.53	0.28
619.864	0.28
620.198	0.28
620.532	0.28
620.866	0.28
621.2	0.28
621.533	0.27
621.867	0.27
622.201	0.27
622.534	0.27
622.868	0.27
623.201	0.27
623.534	0.27
623.868	0.27
624.201	0.27
624.534	0.27
624.868	0.27
625.201	0.27
625.534	0.27
625.867	0.27
626.2	0.27
626.533	0.26
626.865	0.27
627.198	0.26
627.531	0.26
627.864	0.26
628.196	0.26
628.529	0.26
628.862	0.26
629.194	0.26
629.527	0.25
629.859	0.25
630.191	0.25
630.524	0.25
630.856	0.25
631.188	0.25
631.52	0.24
631.852	0.24
632.184	0.24
632.516	0.24
632.848	0.24
633.18	0.23
633.512	0.24
633.844	0.23
634.175	0.23
634.507	0.23
634.839	0.23
635.17	0.23
635.502	0.23
635.833	0.23
636.165	0.22
636.496	0.22
636.827	0.22
637.159	0.21
637.49	0.22
637.821	0.22
638.152	0.22
638.483	0.21
638.814	0.21
639.145	0.21
639.476	0.21
639.807	0.21
640.137	0.2
640.468	0.2
640.799	0.2
641.129	0.19
641.46	0.19
641.791	0.19
642.121	0.19
642.451	0.19
642.782	0.19
643.112	0.19
643.442	0.19
643.773	0.19
644.103	0.19
644.433	0.19
644.763	0.18
645.093	0.18
645.423	0.18
645.753	0.18
646.082	0.18
646.412	0.18
646.742	0.18
647.072	0.17
647.401	0.17
647.731	0.17
648.06	0.17
648.39	0.18
648.719	0.17
649.048	0.18
649.378	0.18
649.707	0.17
650.036	0.17
650.365	0.17
650.694	0.17
651.023	0.17
651.352	0.17
651.681	0.17
652.01	0.17
652.339	0.17
652.668	0.17
652.996	0.17
653.325	0.17
653.654	0.17
653.982	0.17
654.311	0.17
654.639	0.17
654.967	0.17
655.296	0.17
655.624	0.17
655.952	0.17
656.28	0.17
656.609	0.17
656.937	0.17
657.265	0.16
657.593	0.15
657.92	0.03
658.248	0
658.576	0
658.904	0.05
659.231	0.14
659.559	0.16
659.887	0.16
660.214	0.17
660.542	0.17
660.869	0.17
661.196	0.17
661.524	0.17
661.851	0.16
662.178	0.16
662.505	0.16
662.832	0.17
663.159	0.16
663.486	0.17
663.813	0.17
664.14	0.17
664.467	0.17
664.794	0.16
665.12	0.17
665.447	0.16
665.774	0.17
666.1	0.16
666.427	0.16
666.753	0.16
667.079	0.16
667.406	0.16
667.732	0.16
668.058	0.16
668.384	0.16
668.71	0.16
669.036	0.16
669.362	0.16
669.688	0.16
670.014	0.16
670.34	0.16
670.666	0.16
670.991	0.15
671.317	0.16
671.643	0.15
671.968	0.15
672.294	0.15
672.619	0.15
672.945	0.15
673.27	0.15
673.595	0.15
673.92	0.15
674.246	0.15
674.571	0.14
674.896	0.14
675.221	0.14
675.546	0.14
675.87	0.14
676.195	0.14
676.52	0.14
676.845	0.14
677.169	0.14
677.494	0.14
677.819	0.14
678.143	0.14
678.468	0.14
678.792	0.14
679.116	0.13
679.44	0.13
679.765	0.13
680.089	0.13
680.413	0.12
680.737	0.12
681.061	0.12
681.385	0.13
681.709	0.12
682.033	0.12
682.356	0.12
682.68	0.12
683.004	0.12
683.327	0.12
683.651	0.12
683.974	0.12
684.298	0.12
684.621	0.12
684.944	0.11
685.268	0.11
685.591	0.11
685.914	0.11
686.237	0.11
686.56	0.11
686.883	0.11
687.206	0.11
687.529	0.1
687.852	0.1
688.175	0.1
688.497	0.1
688.82	0.1
689.142	0.1
689.465	0.1
689.787	0.1
690.11	0.1
690.432	0.1
690.755	0.1
691.077	0.1
691.399	0.09
691.721	0.1
692.043	0.09
692.365	0.09
692.687	0.09
693.009	0.09
693.331	0.09
693.653	0.09
693.974	0.08
694.296	0.08
694.618	0.08
694.939	0.08
695.261	0.08
695.582	0.08
695.904	0.08
696.225	0.08
696.546	0.08
696.868	0.08
697.189	0.08
697.51	0.08
697.831	0.08
698.152	0.08
698.473	0.08
698.794	0.07
699.114	0.08
699.435	0.07
699.756	0.07
700.077	0.07
700.397	0.07
700.718	0.07
701.038	0.07
701.359	0.08
701.679	0.08
701.999	0.08
702.32	0.08
702.64	0.08
702.96	0.07
703.28	0.07
703.6	0.07
703.92	0.07
704.24	0.07
704.56	0.07
704.879	0.07
705.199	0.07
705.519	0.07
705.838	0.07
706.158	0.07
706.478	0.07
706.797	0.06
707.116	0.06
707.436	0.06
707.755	0.06
708.074	0.06
708.393	0.06
708.712	0.06
709.031	0.06
709.35	0.06
709.669	0.06
709.988	0.06
710.307	0.06
710.626	0.06
710.944	0.06
711.263	0.06
711.582	0.06
711.9	0.06
712.219	0.06
712.537	0.07
712.855	0.06
713.174	0.06
713.492	0.06
713.81	0.07
714.128	0.06
714.446	0.06
714.764	0.06
715.082	0.06
715.4	0.06
715.718	0.06
716.035	0.06
716.353	0.06
716.671	0.06
716.988	0.06
717.306	0.06
717.623	0.06
717.941	0.07
718.258	0.07
718.575	0.07
718.893	0.06
719.21	0.06
719.527	0.06
719.844	0.06
720.161	0.06
720.478	0.06
720.795	0.06
721.112	0.06
721.428	0.06
721.745	0.06
722.062	0.06
722.378	0.06
722.695	0.06
723.011	0.06
723.328	0.06
723.644	0.07
723.96	0.07
724.276	0.07
724.593	0.07
724.909	0.08
725.225	0.08
725.541	0.08
725.857	0.08
726.173	0.07
726.488	0.07
726.804	0.07
727.12	0.07
727.435	0.07
727.751	0.07
728.067	0.07
728.382	0.07
728.697	0.07
729.013	0.07
729.328	0.07
729.643	0.07
729.958	0.07
730.273	0.07
730.588	0.07
730.903	0.07
731.218	0.08
731.533	0.08
731.848	0.07
732.163	0.07
732.477	0.07
732.792	0.07
733.107	0.07
733.421	0.07
733.736	0.07
734.05	0.07
734.364	0.07
734.678	0.07
734.993	0.07
735.307	0.07
735.621	0.07
735.935	0.07
736.249	0.07
736.563	0.07
736.877	0.07
737.19	0.07
737.504	0.07
737.818	0.07
738.131	0.07
738.445	0.07
738.758	0.07
739.072	0.07
739.385	0.07
739.698	0.07
740.012	0.07
740.325	0.07
740.638	0.07
740.951	0.07
741.264	0.06
741.577	0.07
741.89	0.07
742.203	0.06
742.515	0.06
742.828	0.07
743.141	0.07
743.453	0.06
743.766	0.06
744.078	0.06
744.391	0.06
744.703	0.06
745.015	0.06
745.327	0.06
745.639	0.06
745.952	0.06
746.264	0.06
746.575	0.06
746.887	0.06
747.199	0.06
747.511	0.07
747.823	0.07
748.134	0.06
748.446	0.06
748.757	0.06
749.069	0.06
749.38	0.06
749.692	0.06
750.003	0.06
750.314	0.06
750.625	0.06
750.936	0.06
751.248	0.06
751.559	0.06
751.869	0.06
752.18	0.06
752.491	0.05
752.802	0.05
753.112	0.05
753.423	0.05
753.734	0.05
754.044	0.05
754.355	0.05
754.665	0.05
754.975	0.05
755.285	0.05
755.596	0.05
755.906	0.05
756.216	0.05
756.526	0.05
756.836	0.05
757.146	0.05
757.455	0.05
757.765	0.05
758.075	0.04
758.385	0.04
758.694	0.04
759.004	0.04
759.313	0.04
759.622	0.04
759.932	0.04
760.241	0.04
760.55	0.04
760.859	0.04
761.168	0.04
761.477	0.04
761.786	0.03
762.095	0.03
762.404	0.03
762.713	0.03
763.021	0.03
763.33	0.03
763.639	0.03
763.947	0.03
764.256	0.03
764.564	0.03
764.872	0.03
765.181	0.03
765.489	0.03
765.797	0.03
766.105	0.03
766.413	0.03
766.721	0.03
767.029	0.03
767.337	0.03
767.644	0.03
767.952	0.03
768.26	0.03
768.567	0.03
768.875	0.03
769.182	0.03
769.49	0.03
769.797	0.03
770.104	0.03
770.411	0.03
770.718	0.03
771.026	0.03
771.333	0.03
771.639	0.03
771.946	0.03
772.253	0.03
772.56	0.03
772.867	0.03
773.173	0.03
773.48	0.03
773.786	0.02
774.093	0.03
774.399	0.03
774.705	0.03
775.012	0.03
775.318	0.02
775.624	0.03
775.93	0.03
776.236	0.03
776.542	0.03
776.848	0.03
777.154	0.03
777.459	0.03
777.765	0.03
778.071	0.03
778.376	0.03
778.682	0.03
778.987	0.03
779.292	0.03
779.598	0.03
779.903	0.03
780.208	0.03
780.513	0.02
780.818	0.02
781.123	0.03
781.428	0.02
781.733	0.02
782.038	0.02
782.343	0.02
782.647	0.03
782.952	0.03
783.256	0.03
783.561	0.03
783.865	0.03
784.17	0.03
784.474	0.03
784.778	0.03
785.082	0.03
785.386	0.03
785.69	0.03
785.994	0.03
786.298	0.03
786.602	0.03
786.906	0.03
787.209	0.03
787.513	0.03
787.817	0.04
788.12	0.04
788.424	0.04
788.727	0.03
789.03	0.03
789.333	0.03
789.637	0.03
789.94	0.02
790.243	0.02
790.546	0.02
790.849	0.02
791.152	0.02
791.454	0.02
791.757	0.02
792.06	0.02
792.362	0.02
792.665	0.02
792.967	0.02
793.27	0.01
793.572	0.02
793.874	0.02
794.177	0.02
794.479	0.01
794.781	0.02
795.083	0.02
795.385	0.02
795.687	0.02
795.989	0.02
796.29	0.02
796.592	0.03
796.894	0.03
797.195	0.03
797.497	0.02
797.798	0.02
798.1	0.02
798.401	0.02
798.702	0.02
799.003	0.02
799.304	0.02
799.605	0.02
799.906	0.02
800.207	0.02
800.508	0.02
800.809	0.02
801.11	0.02
801.41	0.02
801.711	0.02
802.011	0.02
802.312	0.02
802.612	0.02
802.913	0.02
803.213	0.02
803.513	0.02
803.813	0.02
804.113	0.01
804.413	0.02
804.713	0.02
805.013	0.02
805.313	0.02
805.613	0.02
805.912	0.01
806.212	0.01
806.511	0.01
806.811	0.02
807.11	0.02
807.41	0.02
807.709	0.02
808.008	0.02
808.307	0.02
808.606	0.02
808.905	0.02
809.204	0.02
809.503	0.02
809.802	0.02
810.101	0.02
810.399	0.02
810.698	0.02
810.997	0.02
811.295	0.02
811.593	0.02
811.892	0.02
812.19	0.02
812.488	0.02
812.786	0.02
813.084	0.02
813.383	0.02
813.68	0.02
813.978	0.02
814.276	0.02
814.574	0.01
814.872	0.02
815.169	0.01
815.467	0.02
815.764	0.02
816.062	0.01
816.359	0.01
816.656	0.01
816.954	0.01
817.251	0.02
817.548	0.01
817.845	0.02
818.142	0.01
818.439	0.01
818.735	0.02
819.032	0.01
819.329	0.01
819.626	0.02
819.922	0.02
820.219	0.02
820.515	0.02
820.811	0.02
821.108	0.01
821.404	0.01
821.7	0.01
821.996	0.01
822.292	0.01
822.588	0.01
822.884	0.01
823.18	0.01
823.475	0.01
823.771	0.01
824.067	0.01
824.362	0
824.658	0.01
824.953	0.02
825.249	0.01
825.544	0.01
825.839	0.02
826.134	0.01
826.429	0.01
826.724	0.01
827.019	0.01
827.314	0.01
827.609	0.01
827.904	0.01
828.198	0.01
828.493	0.01
828.787	0.01
829.082	0.01
829.376	0.01
829.671	0.01
829.965	0
830.259	0.01
830.553	0
830.847	0.01
831.141	0.01
831.435	0.01
831.729	0
832.023	0
832.317	0.01
832.61	0
832.904	0.01
833.197	0.01
833.491	0.01
833.784	0
834.077	0.01
834.371	0.01
834.664	0.01
834.957	0.02
835.25	0.01
835.543	0.01
835.836	0.01
836.129	0.01
836.421	0.01
836.714	0.01
837.007	0.02
837.299	0.01
837.592	0.01
837.884	0.01
838.177	-0
838.469	0.01
838.761	0
839.053	0
839.345	0.01
839.637	0
839.929	0.01
840.221	0.01
840.513	0.01
840.805	0.01
841.096	0.01
841.388	0.01
841.68	0
841.971	0.02
842.262	0
842.554	0.02
842.845	0.02
843.136	0.01
843.427	0.01
843.718	0
844.009	0
844.3	0
844.591	0.01
844.882	0
845.173	0.01
845.463	0.01
845.754	0.01
846.044	0
846.335	0.01
846.625	0.02
846.915	0.01
847.206	0
847.496	0
847.786	0.01
848.076	0
848.366	0.01
848.656	-0.01
848.945	0
849.235	0
849.525	-0.01
849.814	0.02
850.104	0.02
850.393	0.01
850.683	0.01
850.972	0.01
851.261	0
851.551	0.01
851.84	0.02
852.129	0
852.418	0
852.707	0.02
852.995	0.01
853.284	0
853.573	0.01
853.862	0.01
854.15	0.01
854.439	0.01
854.727	0
855.015	-0
855.304	-0.01
855.592	-0.01
855.88	0.01
856.168	-0
856.456	-0
856.744	0
857.032	-0.03
857.32	-0.02
857.607	-0.01
857.895	-0.02
858.183	-0
858.47	-0.01
858.757	-0.01
859.045	-0.01
859.332	-0.01
859.619	-0.01
859.907	-0
860.194	0
860.481	0.01
860.768	-0.02
861.054	-0
861.341	-0.02
861.628	-0
861.915	-0.01
862.201	-0.01
862.488	-0.03
862.774	0.01
863.061	-0.01
863.347	-0.01
863.633	-0.02
863.919	0.01
864.205	-0.01
864.491	-0.03
864.777	-0.04
865.063	-0.01
865.349	-0
865.635	-0.01
865.92	0.01
866.206	-0
866.492	-0.01
866.777	-0.03
867.062	-0.03
867.348	-0.05
867.633	-0
867.918	-0.03
868.203	0
868.488	-0.02
868.773	-0.01
869.058	-0.08
869.343	-0.02
869.628	-0.02
869.912	0.01
870.197	-0
870.482	-0.01
870.766	-0.04
871.05	0.02
871.335	0.01
871.619	-0.02
871.903	0.01
872.187	0.01
872.471	-0.02
872.755	-0.07
873.039	-0.04
873.323	-0.04
873.607	0.03
873.89	-0.07
874.174	-0.04
874.458	-0.06
874.741	0.04
875.024	-0.06
875.308	0
875.591	-0
875.874	0.03
876.157	-0.04
876.44	-0.04
876.723	0.07
877.006	-0.06
877.289	-0.01
877.572	0.01
877.854	0.06
878.137	-0.03
878.42	0.09
878.702	-0.03
878.984	-0.02
879.267	0.05
879.549	-0.02
879.831	-0.04
880.113	-0.07
880.395	0.01
880.677	-0.15
880.959	0
