Data from Rubpy_EV_900_EDTA_Buffered_Absorbance_13-36-18-663.txt Node
Date: Tue Jun 30 13:36:18 BST 2026
User: fpm-admin
Spectrometer: OFX00224
Trigger mode: 0
Integration Time (sec): 7.000000E-2
Scans to average: 3
Nonlinearity correction enabled: false
Boxcar width: 0
Storing dark spectrum: false
XAxis mode: Wavelengths
Number of Pixels in Spectrum: 2136
>>>>>Begin Spectral Data<<<<<
154.91	0.07
155.289	-1.56
155.669	-0
156.048	-1.02
156.428	-0
156.807	0.58
157.186	-0.02
157.566	0.54
157.945	-0.14
158.325	-0.3
158.704	-0
159.083	0.87
159.462	0.32
159.842	0.32
160.221	-0.35
160.6	0.07
160.979	-0
161.359	-0
161.738	-0.07
162.117	0.45
162.496	-0
162.875	-0
163.254	0.05
163.633	1.1
164.012	-1.48
164.391	-0
164.77	-0.37
165.149	-0.15
165.528	-0
165.907	-0
166.286	-0
166.665	-0
167.044	-0
167.423	0.06
167.802	-0.12
168.181	0.25
168.559	-0
168.938	-0
169.317	0.27
169.696	-0
170.074	0.12
170.453	-0
170.832	-0
171.21	0.85
171.589	-0.28
171.968	-0
172.346	-0.99
172.725	1.32
173.103	0.48
173.482	-0
173.861	-0
174.239	0.22
174.617	-0
174.996	-0.54
175.374	-0
175.753	-0.34
176.131	-0
176.51	-0.24
176.888	-0
177.266	1.18
177.645	-0.1
178.023	0.47
178.401	0.12
178.779	-0.05
179.158	-0
179.536	-0.27
179.914	0.03
180.292	-0
180.67	-0
181.048	-0
181.427	0.26
181.805	-0.46
182.183	-0.98
182.561	-0
182.939	-0.24
183.317	-0
183.695	0.05
184.073	-0
184.451	-0
184.829	0.44
185.206	0.85
185.584	-0.51
185.962	0.54
186.34	-0
186.718	0.16
187.096	0.12
187.473	1.09
187.851	-0.29
188.229	-0.2
188.607	-0.01
188.984	0
189.362	-0.04
189.74	-0.02
190.117	0.12
190.495	0.01
190.872	-0.02
191.25	0.1
191.627	-0.03
192.005	0.05
192.382	0.08
192.76	0.1
193.137	0.01
193.515	0.09
193.892	0.12
194.269	0.1
194.647	0.14
195.024	0.11
195.401	0.12
195.779	0.21
196.156	0.09
196.533	-0.03
196.91	0.01
197.288	0.08
197.665	-0.05
198.042	0.02
198.419	-0.04
198.796	0.06
199.173	0.03
199.55	0.16
199.927	0.05
200.304	0.1
200.681	-0.02
201.058	-0.02
201.435	0.1
201.812	0.06
202.189	0.11
202.566	0.06
202.943	-0.01
203.32	0.05
203.697	0.05
204.073	0.01
204.45	0.05
204.827	0.05
205.204	0.13
205.58	-0.02
205.957	0.06
206.334	0.04
206.71	0.06
207.087	0.07
207.464	0.07
207.84	0.13
208.217	-0.05
208.593	0.04
208.97	0.06
209.346	0.03
209.723	0.09
210.099	0.1
210.476	-0.07
210.852	0.01
211.228	0.01
211.605	0.06
211.981	0.1
212.357	0.04
212.733	0.06
213.11	0.04
213.486	-0.03
213.862	0.13
214.238	0.03
214.614	0.13
214.991	0.09
215.367	0.07
215.743	0.13
216.119	-0.01
216.495	-0.03
216.871	-0
217.247	0.09
217.623	0.16
217.999	-0.08
218.375	0.05
218.751	-0.03
219.127	-0.02
219.502	-0.01
219.878	-0.01
220.254	0.08
220.63	0.02
221.006	-0.03
221.381	0
221.757	0.11
222.133	-0.02
222.508	0.04
222.884	0.07
223.26	0.08
223.635	-0.01
224.011	0.02
224.386	0.01
224.762	0.15
225.137	0.05
225.513	-0.03
225.888	0.05
226.264	-0.01
226.639	-0.02
227.014	0.06
227.39	0.05
227.765	-0.06
228.14	0.18
228.516	-0.01
228.891	0.04
229.266	0.09
229.641	0.05
230.017	0.1
230.392	0.17
230.767	0.07
231.142	0.03
231.517	0.09
231.892	-0.02
232.267	0.07
232.642	0.03
233.017	-0.09
233.392	0.05
233.767	0.06
234.142	0.06
234.517	0.04
234.892	0.06
235.267	0.08
235.641	0.07
236.016	0.06
236.391	0.04
236.766	0.05
237.14	-0.03
237.515	0.06
237.89	0.06
238.264	0.07
238.639	0.04
239.014	0.04
239.388	0.04
239.763	0.02
240.137	0.08
240.512	0.04
240.886	0.02
241.261	-0.02
241.635	0.07
242.009	-0
242.384	0.08
242.758	0
243.132	-0.04
243.507	0.07
243.881	0.07
244.255	0.09
244.629	0.06
245.004	0.05
245.378	0.08
245.752	0.03
246.126	0.06
246.5	0
246.874	0.16
247.248	0.15
247.622	0.07
247.996	-0.05
248.37	0.13
248.744	0.07
249.118	0.25
249.492	0.12
249.866	0.02
250.24	0.03
250.613	0.02
250.987	0.04
251.361	0.03
251.735	0.03
252.108	-0.04
252.482	0.08
252.856	0.1
253.229	0.04
253.603	0.12
253.977	0.06
254.35	0.06
254.724	0.05
255.097	0
255.471	0.07
255.844	0.09
256.218	0.12
256.591	0.08
256.964	0.06
257.338	0.06
257.711	-0.02
258.084	-0.03
258.458	0.07
258.831	0.04
259.204	0.03
259.577	0.08
259.95	0
260.323	0.02
260.697	0.11
261.07	0.02
261.443	0.03
261.816	0.13
262.189	-0
262.562	0.03
262.935	0.08
263.308	0
263.68	0.05
264.053	0.04
264.426	0.01
264.799	0.02
265.172	0.01
265.545	0.03
265.917	0.02
266.29	0.08
266.663	0.05
267.035	0.05
267.408	0.05
267.781	0.02
268.153	0.05
268.526	0.02
268.898	0.05
269.271	0.02
269.643	0.05
270.016	0.03
270.388	0.09
270.76	-0.03
271.133	0.09
271.505	0.12
271.877	0.03
272.25	0.06
272.622	0.03
272.994	0.09
273.366	-0.02
273.739	-0
274.111	0
274.483	0.06
274.855	0.04
275.227	0.03
275.599	0.05
275.971	0.07
276.343	0.08
276.715	0.06
277.087	0.06
277.459	0.04
277.831	0.05
278.203	0.05
278.574	0.03
278.946	-0.02
279.318	0.11
279.69	0.03
280.061	-0.02
280.433	0.03
280.805	0.07
281.176	-0
281.548	0.03
281.92	0.03
282.291	0.07
282.663	0.09
283.034	0.08
283.406	0.06
283.777	0.12
284.148	0.04
284.52	0.05
284.891	0.07
285.262	0.08
285.634	0.05
286.005	0.03
286.376	0.08
286.747	0.09
287.119	-0
287.49	0.06
287.861	0.01
288.232	0.01
288.603	0.07
288.974	0.06
289.345	0.04
289.716	0.02
290.087	-0
290.458	0.06
290.829	0.05
291.2	0.04
291.571	-0
291.941	0.04
292.312	0.01
292.683	0.04
293.054	0.08
293.424	0.09
293.795	0.04
294.166	0.07
294.536	0.06
294.907	0.07
295.277	0.01
295.648	0.01
296.018	0.06
296.389	0.09
296.759	-0
297.13	0
297.5	0.1
297.871	0.03
298.241	0.03
298.611	0.06
298.981	0.07
299.352	0.02
299.722	0.06
300.092	0.04
300.462	0.11
300.832	0.06
301.202	0.02
301.573	0.03
301.943	0.04
302.313	0.04
302.683	0.01
303.053	0.02
303.422	0.04
303.792	0.02
304.162	0.03
304.532	0.04
304.902	0.03
305.272	0.03
305.641	0.03
306.011	0.03
306.381	0.02
306.75	0.02
307.12	0.03
307.49	0.03
307.859	0.02
308.229	0.03
308.598	0.03
308.968	0.04
309.337	0.02
309.707	0.03
310.076	0.03
310.445	0.03
310.815	0.03
311.184	0.03
311.553	0.03
311.923	0.04
312.292	0.03
312.661	0.03
313.03	0.03
313.399	0.03
313.768	0.03
314.137	0.03
314.506	0.04
314.875	0.03
315.244	0.03
315.613	0.03
315.982	0.04
316.351	0.04
316.72	0.03
317.089	0.03
317.458	0.03
317.826	0.03
318.195	0.03
318.564	0.03
318.933	0.03
319.301	0.04
319.67	0.02
320.038	0.03
320.407	0.03
320.775	0.04
321.144	0.03
321.512	0.03
321.881	0.03
322.249	0.03
322.618	0.02
322.986	0.02
323.354	0.02
323.723	0.03
324.091	0.02
324.459	0.03
324.827	0.02
325.195	0.02
325.564	0.02
325.932	0.03
326.3	0.02
326.668	0.03
327.036	0.03
327.404	0.02
327.772	0.03
328.14	0.03
328.508	0.03
328.875	0.03
329.243	0.02
329.611	0.03
329.979	0.02
330.346	0.03
330.714	0.02
331.082	0.02
331.449	0.02
331.817	0.03
332.185	0.03
332.552	0.02
332.92	0.03
333.287	0.03
333.655	0.03
334.022	0.03
334.389	0.03
334.757	0.03
335.124	0.03
335.491	0.02
335.859	0.02
336.226	0.03
336.593	0.03
336.96	0.02
337.327	0.03
337.695	0.03
338.062	0.03
338.429	0.03
338.796	0.03
339.163	0.03
339.53	0.03
339.897	0.03
340.263	0.03
340.63	0.03
340.997	0.03
341.364	0.03
341.731	0.03
342.097	0.03
342.464	0.03
342.831	0.03
343.197	0.03
343.564	0.03
343.931	0.04
344.297	0.03
344.664	0.03
345.03	0.04
345.396	0.04
345.763	0.04
346.129	0.04
346.496	0.04
346.862	0.04
347.228	0.04
347.594	0.04
347.961	0.04
348.327	0.04
348.693	0.05
349.059	0.05
349.425	0.04
349.791	0.04
350.157	0.04
350.523	0.05
350.889	0.05
351.255	0.05
351.621	0.05
351.987	0.04
352.353	0.05
352.719	0.05
353.084	0.05
353.45	0.05
353.816	0.05
354.181	0.05
354.547	0.05
354.913	0.05
355.278	0.05
355.644	0.06
356.009	0.06
356.375	0.06
356.74	0.06
357.106	0.06
357.471	0.06
357.836	0.06
358.202	0.07
358.567	0.06
358.932	0.06
359.297	0.07
359.663	0.07
360.028	0.07
360.393	0.07
360.758	0.07
361.123	0.08
361.488	0.08
361.853	0.08
362.218	0.07
362.583	0.07
362.948	0.08
363.312	0.08
363.677	0.08
364.042	0.08
364.407	0.08
364.772	0.09
365.136	0.09
365.501	0.09
365.865	0.09
366.23	0.09
366.595	0.09
366.959	0.09
367.324	0.1
367.688	0.1
368.052	0.1
368.417	0.1
368.781	0.1
369.145	0.1
369.51	0.11
369.874	0.11
370.238	0.11
370.602	0.11
370.967	0.11
371.331	0.1
371.695	0.11
372.059	0.11
372.423	0.11
372.787	0.1
373.151	0.1
373.515	0.1
373.878	0.1
374.242	0.1
374.606	0.1
374.97	0.11
375.334	0.11
375.697	0.1
376.061	0.1
376.425	0.11
376.788	0.11
377.152	0.11
377.515	0.11
377.879	0.11
378.242	0.11
378.606	0.11
378.969	0.12
379.333	0.12
379.696	0.12
380.059	0.12
380.422	0.12
380.786	0.13
381.149	0.12
381.512	0.13
381.875	0.13
382.238	0.14
382.601	0.14
382.964	0.14
383.327	0.15
383.69	0.15
384.053	0.16
384.416	0.16
384.779	0.16
385.142	0.16
385.504	0.17
385.867	0.17
386.23	0.18
386.593	0.17
386.955	0.18
387.318	0.18
387.68	0.17
388.043	0.17
388.405	0.17
388.768	0.17
389.13	0.17
389.493	0.17
389.855	0.17
390.217	0.16
390.58	0.17
390.942	0.17
391.304	0.17
391.666	0.17
392.028	0.17
392.391	0.18
392.753	0.19
393.115	0.19
393.477	0.19
393.839	0.21
394.201	0.21
394.563	0.22
394.924	0.23
395.286	0.24
395.648	0.25
396.01	0.26
396.371	0.26
396.733	0.27
397.095	0.27
397.456	0.27
397.818	0.27
398.18	0.28
398.541	0.27
398.903	0.27
399.264	0.25
399.625	0.25
399.987	0.24
400.348	0.23
400.709	0.22
401.071	0.21
401.432	0.19
401.793	0.18
402.154	0.17
402.515	0.16
402.876	0.15
403.238	0.14
403.599	0.12
403.96	0.11
404.32	0.11
404.681	0.1
405.042	0.1
405.403	0.09
405.764	0.08
406.125	0.08
406.485	0.07
406.846	0.07
407.207	0.07
407.567	0.06
407.928	0.06
408.288	0.06
408.649	0.06
409.009	0.05
409.37	0.05
409.73	0.04
410.091	0.04
410.451	0.04
410.811	0.04
411.171	0.04
411.532	0.04
411.892	0.03
412.252	0.04
412.612	0.03
412.972	0.04
413.332	0.03
413.692	0.04
414.052	0.03
414.412	0.03
414.772	0.02
415.132	0.03
415.492	0.03
415.851	0.02
416.211	0.03
416.571	0.03
416.931	0.03
417.29	0.03
417.65	0.02
418.009	0.03
418.369	0.03
418.728	0.02
419.088	0.02
419.447	0.02
419.807	0.03
420.166	0.03
420.525	0.02
420.884	0.02
421.244	0.02
421.603	0.01
421.962	0.02
422.321	0.02
422.68	0.02
423.039	0.02
423.398	0.02
423.757	0.02
424.116	0.02
424.475	0.02
424.834	0.02
425.193	0.02
425.551	0.02
425.91	0.02
426.269	0.02
426.628	0.02
426.986	0.02
427.345	0.02
427.703	0.02
428.062	0.01
428.42	0.01
428.779	0.01
429.137	0.01
429.496	0.02
429.854	0.02
430.212	0.01
430.57	0.02
430.929	0.01
431.287	0.01
431.645	0.02
432.003	0.02
432.361	0.02
432.719	0.01
433.077	0.02
433.435	0.02
433.793	0.01
434.151	0.01
434.509	0.02
434.866	0.02
435.224	0.03
435.582	0.01
435.94	0.01
436.297	0.02
436.655	0.01
437.012	0.01
437.37	0.01
437.727	0.02
438.085	0.01
438.442	0.01
438.8	0.02
439.157	0.01
439.514	0.01
439.872	0.02
440.229	0.01
440.586	0.01
440.943	0.01
441.3	0.01
441.657	0.01
442.014	0.01
442.371	0.01
442.728	0.01
443.085	0.01
443.442	0
443.799	0.01
444.156	0.01
444.513	0.01
444.869	0.01
445.226	0.01
445.583	0.01
445.939	-0
446.296	0.01
446.652	-0
447.009	0.01
447.365	0
447.722	-0.01
448.078	-0
448.434	0
448.791	-0.01
449.147	-0
449.503	-0
449.859	-0.01
450.215	-0.01
450.571	-0.01
450.928	-0.01
451.284	-0.02
451.64	-0.01
451.995	-0.02
452.351	-0.01
452.707	-0.02
453.063	-0.02
453.419	-0.02
453.775	-0.02
454.13	-0.02
454.486	-0.03
454.842	-0.03
455.197	-0.03
455.553	-0.04
455.908	-0.04
456.264	-0.04
456.619	-0.05
456.975	-0.05
457.33	-0.04
457.685	-0.04
458.04	-0.06
458.396	-0.05
458.751	-0.06
459.106	-0.07
459.461	-0.07
459.816	-0.07
460.171	-0.08
460.526	-0.09
460.881	-0.09
461.236	-0.09
461.591	-0.1
461.946	-0.1
462.301	-0.1
462.655	-0.11
463.01	-0.11
463.365	-0.11
463.719	-0.12
464.074	-0.12
464.428	-0.13
464.783	-0.13
465.137	-0.14
465.492	-0.14
465.846	-0.14
466.201	-0.14
466.555	-0.14
466.909	-0.14
467.263	-0.14
467.618	-0.13
467.972	-0.14
468.326	-0.14
468.68	-0.15
469.034	-0.15
469.388	-0.16
469.742	-0.15
470.096	-0.16
470.45	-0.15
470.804	-0.15
471.157	-0.15
471.511	-0.16
471.865	-0.15
472.218	-0.15
472.572	-0.16
472.926	-0.14
473.279	-0.15
473.633	-0.14
473.986	-0.14
474.34	-0.14
474.693	-0.13
475.046	-0.12
475.4	-0.11
475.753	-0.11
476.106	-0.1
476.459	-0.1
476.812	-0.09
477.165	-0.08
477.519	-0.08
477.872	-0.07
478.224	-0.08
478.577	-0.07
478.93	-0.07
479.283	-0.07
479.636	-0.07
479.989	-0.06
480.341	-0.06
480.694	-0.05
481.047	-0.05
481.399	-0.05
481.752	-0.04
482.104	-0.04
482.457	-0.04
482.809	-0.03
483.162	-0.03
483.514	-0.03
483.866	-0.03
484.219	-0.03
484.571	-0.03
484.923	-0.03
485.275	-0.03
485.627	-0.03
485.979	-0.02
486.331	-0.02
486.683	-0.02
487.035	-0.02
487.387	-0.02
487.739	-0.01
488.091	-0.01
488.443	-0.01
488.794	-0.01
489.146	-0
489.498	-0.01
489.849	-0.01
490.201	-0.01
490.552	-0.01
490.904	-0.01
491.255	-0.01
491.607	-0.01
491.958	-0
492.309	-0
492.661	-0
493.012	-0
493.363	-0
493.714	0
494.065	-0
494.416	0
494.767	-0.01
495.118	0
495.469	0
495.82	0
496.171	-0
496.522	0
496.872	0.01
497.223	0
497.574	0
497.924	0.01
498.275	0.01
498.626	0.01
498.976	0.01
499.327	0.01
499.677	0.01
500.027	0.01
500.378	0.01
500.728	0.01
501.078	0.01
501.428	0.01
501.779	0.02
502.129	0.02
502.479	0.01
502.829	0.02
503.179	0.02
503.529	0.02
503.879	0.02
504.229	0.02
504.578	0.02
504.928	0.02
505.278	0.02
505.628	0.02
505.977	0.02
506.327	0.02
506.676	0.02
507.026	0.02
507.375	0.02
507.725	0.03
508.074	0.02
508.424	0.02
508.773	0.02
509.122	0.02
509.471	0.02
509.82	0.03
510.17	0.02
510.519	0.02
510.868	0.03
511.217	0.03
511.566	0.02
511.915	0.03
512.263	0.03
512.612	0.02
512.961	0.02
513.31	0.03
513.659	0.03
514.007	0.03
514.356	0.03
514.704	0.03
515.053	0.03
515.401	0.03
515.75	0.03
516.098	0.03
516.447	0.03
516.795	0.03
517.143	0.03
517.491	0.03
517.839	0.03
518.188	0.03
518.536	0.03
518.884	0.03
519.232	0.04
519.58	0.03
519.928	0.03
520.275	0.03
520.623	0.03
520.971	0.03
521.319	0.04
521.666	0.04
522.014	0.04
522.362	0.03
522.709	0.03
523.057	0.04
523.404	0.04
523.752	0.04
524.099	0.03
524.446	0.03
524.794	0.04
525.141	0.04
525.488	0.04
525.835	0.04
526.182	0.04
526.529	0.04
526.876	0.04
527.223	0.04
527.57	0.04
527.917	0.04
528.264	0.04
528.611	0.04
528.958	0.04
529.304	0.05
529.651	0.04
529.998	0.04
530.344	0.04
530.691	0.04
531.037	0.04
531.384	0.04
531.73	0.04
532.076	0.04
532.423	0.04
532.769	0.05
533.115	0.04
533.461	0.04
533.807	0.05
534.154	0.05
534.5	0.05
534.846	0.05
535.192	0.05
535.537	0.05
535.883	0.05
536.229	0.05
536.575	0.05
536.921	0.05
537.266	0.05
537.612	0.05
537.957	0.05
538.303	0.05
538.649	0.05
538.994	0.05
539.339	0.05
539.685	0.05
540.03	0.05
540.375	0.05
540.721	0.05
541.066	0.05
541.411	0.05
541.756	0.05
542.101	0.05
542.446	0.05
542.791	0.05
543.136	0.05
543.481	0.05
543.825	0.05
544.17	0.06
544.515	0.05
544.86	0.06
545.204	0.05
545.549	0.05
545.893	0.05
546.238	0.06
546.582	0.06
546.927	0.06
547.271	0.06
547.615	0.06
547.96	0.06
548.304	0.06
548.648	0.06
548.992	0.06
549.336	0.06
549.68	0.06
550.024	0.06
550.368	0.06
550.712	0.06
551.056	0.06
551.4	0.06
551.743	0.06
552.087	0.06
552.431	0.06
552.774	0.06
553.118	0.06
553.462	0.06
553.805	0.06
554.148	0.06
554.492	0.06
554.835	0.06
555.178	0.06
555.522	0.06
555.865	0.07
556.208	0.06
556.551	0.06
556.894	0.06
557.237	0.07
557.58	0.07
557.923	0.06
558.266	0.06
558.609	0.07
558.952	0.07
559.294	0.07
559.637	0.06
559.98	0.07
560.322	0.07
560.665	0.07
561.007	0.07
561.35	0.07
561.692	0.07
562.034	0.07
562.377	0.07
562.719	0.07
563.061	0.07
563.403	0.07
563.745	0.07
564.088	0.07
564.43	0.07
564.772	0.07
565.113	0.07
565.455	0.07
565.797	0.07
566.139	0.07
566.481	0.07
566.822	0.07
567.164	0.07
567.506	0.07
567.847	0.07
568.189	0.07
568.53	0.07
568.872	0.07
569.213	0.07
569.554	0.07
569.895	0.07
570.237	0.07
570.578	0.07
570.919	0.07
571.26	0.07
571.601	0.07
571.942	0.07
572.283	0.07
572.624	0.07
572.965	0.07
573.306	0.07
573.646	0.07
573.987	0.07
574.328	0.07
574.668	0.07
575.009	0.07
575.349	0.07
575.69	0.07
576.03	0.07
576.37	0.07
576.711	0.06
577.051	0.07
577.391	0.07
577.731	0.07
578.072	0.07
578.412	0.07
578.752	0.07
579.092	0.07
579.431	0.07
579.771	0.06
580.111	0.06
580.451	0.06
580.791	0.06
581.13	0.07
581.47	0.07
581.81	0.07
582.149	0.07
582.489	0.07
582.828	0.07
583.167	0.06
583.507	0.05
583.846	0.03
584.185	0.05
584.525	0.06
584.864	0.06
585.203	0.07
585.542	0.07
585.881	0.07
586.22	0.07
586.559	0.07
586.898	0.07
587.236	0.07
587.575	0.07
587.914	0.07
588.252	0.07
588.591	0.07
588.93	0.07
589.268	0.07
589.607	0.07
589.945	0.07
590.283	0.07
590.622	0.07
590.96	0.07
591.298	0.07
591.636	0.07
591.974	0.07
592.313	0.08
592.651	0.08
592.989	0.08
593.326	0.08
593.664	0.08
594.002	0.08
594.34	0.07
594.678	0.07
595.015	0.07
595.353	0.07
595.691	0.07
596.028	0.08
596.366	0.08
596.703	0.08
597.04	0.08
597.378	0.08
597.715	0.08
598.052	0.08
598.389	0.08
598.726	0.08
599.064	0.08
599.401	0.08
599.738	0.08
600.074	0.08
600.411	0.08
600.748	0.08
601.085	0.08
601.422	0.08
601.758	0.08
602.095	0.08
602.432	0.08
602.768	0.08
603.105	0.08
603.441	0.08
603.777	0.08
604.114	0.08
604.45	0.09
604.786	0.08
605.122	0.08
605.459	0.08
605.795	0.08
606.131	0.08
606.467	0.08
606.803	0.08
607.139	0.09
607.474	0.09
607.81	0.08
608.146	0.08
608.482	0.08
608.817	0.08
609.153	0.08
609.488	0.08
609.824	0.08
610.159	0.08
610.495	0.08
610.83	0.08
611.165	0.08
611.5	0.08
611.836	0.08
612.171	0.08
612.506	0.08
612.841	0.08
613.176	0.08
613.511	0.08
613.845	0.08
614.18	0.08
614.515	0.08
614.85	0.08
615.184	0.09
615.519	0.08
615.854	0.08
616.188	0.08
616.523	0.08
616.857	0.08
617.191	0.08
617.526	0.08
617.86	0.08
618.194	0.07
618.528	0.08
618.862	0.08
619.196	0.08
619.53	0.08
619.864	0.08
620.198	0.08
620.532	0.08
620.866	0.08
621.2	0.08
621.533	0.08
621.867	0.08
622.201	0.07
622.534	0.08
622.868	0.08
623.201	0.08
623.534	0.08
623.868	0.08
624.201	0.08
624.534	0.07
624.868	0.08
625.201	0.07
625.534	0.07
625.867	0.07
626.2	0.08
626.533	0.07
626.865	0.07
627.198	0.07
627.531	0.07
627.864	0.07
628.196	0.07
628.529	0.07
628.862	0.07
629.194	0.07
629.527	0.07
629.859	0.07
630.191	0.07
630.524	0.07
630.856	0.07
631.188	0.07
631.52	0.07
631.852	0.07
632.184	0.07
632.516	0.06
632.848	0.06
633.18	0.07
633.512	0.07
633.844	0.06
634.175	0.07
634.507	0.06
634.839	0.06
635.17	0.06
635.502	0.06
635.833	0.06
636.165	0.06
636.496	0.06
636.827	0.07
637.159	0.06
637.49	0.06
637.821	0.06
638.152	0.06
638.483	0.06
638.814	0.06
639.145	0.06
639.476	0.06
639.807	0.06
640.137	0.06
640.468	0.06
640.799	0.05
641.129	0.05
641.46	0.05
641.791	0.05
642.121	0.05
642.451	0.05
642.782	0.06
643.112	0.06
643.442	0.06
643.773	0.06
644.103	0.06
644.433	0.06
644.763	0.05
645.093	0.06
645.423	0.05
645.753	0.05
646.082	0.05
646.412	0.05
646.742	0.05
647.072	0.05
647.401	0.05
647.731	0.05
648.06	0.05
648.39	0.05
648.719	0.05
649.048	0.05
649.378	0.05
649.707	0.05
650.036	0.05
650.365	0.05
650.694	0.05
651.023	0.05
651.352	0.05
651.681	0.05
652.01	0.05
652.339	0.05
652.668	0.05
652.996	0.06
653.325	0.05
653.654	0.05
653.982	0.06
654.311	0.05
654.639	0.05
654.967	0.05
655.296	0.05
655.624	0.05
655.952	0.05
656.28	0.05
656.609	0.05
656.937	0.05
657.265	0.05
657.593	0.04
657.92	0
658.248	0
658.576	0
658.904	0
659.231	0.03
659.559	0.05
659.887	0.05
660.214	0.05
660.542	0.05
660.869	0.05
661.196	0.05
661.524	0.05
661.851	0.05
662.178	0.05
662.505	0.05
662.832	0.05
663.159	0.05
663.486	0.05
663.813	0.05
664.14	0.05
664.467	0.05
664.794	0.05
665.12	0.05
665.447	0.05
665.774	0.05
666.1	0.05
666.427	0.05
666.753	0.05
667.079	0.05
667.406	0.05
667.732	0.04
668.058	0.05
668.384	0.05
668.71	0.05
669.036	0.05
669.362	0.05
669.688	0.05
670.014	0.05
670.34	0.05
670.666	0.05
670.991	0.05
671.317	0.05
671.643	0.05
671.968	0.05
672.294	0.04
672.619	0.05
672.945	0.05
673.27	0.05
673.595	0.04
673.92	0.04
674.246	0.04
674.571	0.04
674.896	0.04
675.221	0.04
675.546	0.04
675.87	0.04
676.195	0.04
676.52	0.04
676.845	0.04
677.169	0.04
677.494	0.04
677.819	0.04
678.143	0.05
678.468	0.04
678.792	0.04
679.116	0.04
679.44	0.04
679.765	0.04
680.089	0.04
680.413	0.04
680.737	0.04
681.061	0.04
681.385	0.04
681.709	0.04
682.033	0.04
682.356	0.04
682.68	0.04
683.004	0.04
683.327	0.04
683.651	0.04
683.974	0.04
684.298	0.04
684.621	0.03
684.944	0.03
685.268	0.03
685.591	0.03
685.914	0.03
686.237	0.03
686.56	0.03
686.883	0.04
687.206	0.04
687.529	0.04
687.852	0.04
688.175	0.03
688.497	0.03
688.82	0.03
689.142	0.03
689.465	0.03
689.787	0.03
690.11	0.04
690.432	0.04
690.755	0.03
691.077	0.04
691.399	0.03
691.721	0.04
692.043	0.03
692.365	0.04
692.687	0.03
693.009	0.03
693.331	0.03
693.653	0.03
693.974	0.03
694.296	0.03
694.618	0.03
694.939	0.03
695.261	0.03
695.582	0.03
695.904	0.03
696.225	0.03
696.546	0.03
696.868	0.03
697.189	0.03
697.51	0.03
697.831	0.03
698.152	0.03
698.473	0.03
698.794	0.03
699.114	0.03
699.435	0.02
699.756	0.02
700.077	0.03
700.397	0.02
700.718	0.03
701.038	0.03
701.359	0.03
701.679	0.03
701.999	0.03
702.32	0.03
702.64	0.03
702.96	0.03
703.28	0.03
703.6	0.03
703.92	0.03
704.24	0.03
704.56	0.03
704.879	0.03
705.199	0.03
705.519	0.03
705.838	0.03
706.158	0.03
706.478	0.03
706.797	0.02
707.116	0.02
707.436	0.02
707.755	0.02
708.074	0.02
708.393	0.02
708.712	0.02
709.031	0.02
709.35	0.02
709.669	0.02
709.988	0.02
710.307	0.02
710.626	0.02
710.944	0.02
711.263	0.02
711.582	0.02
711.9	0.02
712.219	0.02
712.537	0.03
712.855	0.02
713.174	0.03
713.492	0.03
713.81	0.03
714.128	0.02
714.446	0.02
714.764	0.02
715.082	0.02
715.4	0.02
715.718	0.02
716.035	0.02
716.353	0.02
716.671	0.02
716.988	0.02
717.306	0.02
717.623	0.03
717.941	0.03
718.258	0.03
718.575	0.03
718.893	0.03
719.21	0.03
719.527	0.02
719.844	0.02
720.161	0.02
720.478	0.02
720.795	0.02
721.112	0.02
721.428	0.02
721.745	0.02
722.062	0.02
722.378	0.03
722.695	0.03
723.011	0.02
723.328	0.02
723.644	0.03
723.96	0.03
724.276	0.03
724.593	0.03
724.909	0.03
725.225	0.03
725.541	0.03
725.857	0.03
726.173	0.03
726.488	0.03
726.804	0.03
727.12	0.03
727.435	0.03
727.751	0.03
728.067	0.03
728.382	0.03
728.697	0.03
729.013	0.03
729.328	0.03
729.643	0.03
729.958	0.03
730.273	0.03
730.588	0.03
730.903	0.03
731.218	0.03
731.533	0.03
731.848	0.03
732.163	0.03
732.477	0.03
732.792	0.03
733.107	0.03
733.421	0.03
733.736	0.03
734.05	0.03
734.364	0.03
734.678	0.03
734.993	0.03
735.307	0.03
735.621	0.03
735.935	0.03
736.249	0.02
736.563	0.03
736.877	0.03
737.19	0.03
737.504	0.03
737.818	0.03
738.131	0.03
738.445	0.03
738.758	0.03
739.072	0.03
739.385	0.03
739.698	0.03
740.012	0.03
740.325	0.03
740.638	0.03
740.951	0.03
741.264	0.03
741.577	0.03
741.89	0.03
742.203	0.03
742.515	0.03
742.828	0.03
743.141	0.03
743.453	0.03
743.766	0.03
744.078	0.03
744.391	0.03
744.703	0.03
745.015	0.03
745.327	0.03
745.639	0.03
745.952	0.03
746.264	0.03
746.575	0.03
746.887	0.03
747.199	0.03
747.511	0.03
747.823	0.03
748.134	0.03
748.446	0.03
748.757	0.03
749.069	0.03
749.38	0.03
749.692	0.03
750.003	0.02
750.314	0.02
750.625	0.03
750.936	0.03
751.248	0.03
751.559	0.03
751.869	0.03
752.18	0.03
752.491	0.03
752.802	0.03
753.112	0.03
753.423	0.03
753.734	0.03
754.044	0.03
754.355	0.03
754.665	0.03
754.975	0.03
755.285	0.03
755.596	0.03
755.906	0.03
756.216	0.03
756.526	0.03
756.836	0.03
757.146	0.03
757.455	0.03
757.765	0.03
758.075	0.03
758.385	0.03
758.694	0.03
759.004	0.03
759.313	0.03
759.622	0.03
759.932	0.03
760.241	0.02
760.55	0.02
760.859	0.02
761.168	0.02
761.477	0.02
761.786	0.02
762.095	0.02
762.404	0.02
762.713	0.02
763.021	0.02
763.33	0.02
763.639	0.02
763.947	0.02
764.256	0.02
764.564	0.02
764.872	0.02
765.181	0.02
765.489	0.02
765.797	0.02
766.105	0.02
766.413	0.02
766.721	0.02
767.029	0.02
767.337	0.01
767.644	0.01
767.952	0.01
768.26	0.02
768.567	0.02
768.875	0.02
769.182	0.02
769.49	0.01
769.797	0.01
770.104	0.02
770.411	0.02
770.718	0.02
771.026	0.02
771.333	0.02
771.639	0.02
771.946	0.02
772.253	0.02
772.56	0.02
772.867	0.02
773.173	0.01
773.48	0.01
773.786	0.01
774.093	0.01
774.399	0.01
774.705	0.01
775.012	0.01
775.318	0.01
775.624	0.01
775.93	0.01
776.236	0.02
776.542	0.02
776.848	0.01
777.154	0.02
777.459	0.02
777.765	0.02
778.071	0.02
778.376	0.02
778.682	0.02
778.987	0.02
779.292	0.02
779.598	0.02
779.903	0.02
780.208	0.01
780.513	0.01
780.818	0.01
781.123	0.02
781.428	0.01
781.733	0.02
782.038	0.02
782.343	0.02
782.647	0.02
782.952	0.02
783.256	0.02
783.561	0.02
783.865	0.02
784.17	0.02
784.474	0.02
784.778	0.02
785.082	0.02
785.386	0.02
785.69	0.03
785.994	0.02
786.298	0.02
786.602	0.02
786.906	0.02
787.209	0.02
787.513	0.02
787.817	0.03
788.12	0.02
788.424	0.02
788.727	0.02
789.03	0.02
789.333	0.02
789.637	0.02
789.94	0.02
790.243	0.01
790.546	0.01
790.849	0.01
791.152	0.01
791.454	0.01
791.757	0.01
792.06	0.01
792.362	0
792.665	0.01
792.967	0.01
793.27	0.01
793.572	0.01
793.874	0.01
794.177	0.01
794.479	0.01
794.781	0.01
795.083	0.02
795.385	0.02
795.687	0.02
795.989	0.02
796.29	0.01
796.592	0.02
796.894	0.02
797.195	0.02
797.497	0.02
797.798	0.02
798.1	0.01
798.401	0.01
798.702	0.01
799.003	0.01
799.304	0.01
799.605	0.01
799.906	0.01
800.207	0
800.508	0
800.809	0
801.11	0
801.41	0
801.711	0
802.011	0
802.312	0
802.612	0
802.913	0.01
803.213	0.01
803.513	0
803.813	0
804.113	0
804.413	0
804.713	0.01
805.013	0.01
805.313	0.01
805.613	0.01
805.912	0.01
806.212	0.01
806.511	0.01
806.811	0.01
807.11	0.01
807.41	0.01
807.709	0.01
808.008	0.01
808.307	0.01
808.606	0.01
808.905	0.01
809.204	0.01
809.503	0.01
809.802	0.01
810.101	0.01
810.399	0.01
810.698	0.01
810.997	0.01
811.295	0.01
811.593	0.01
811.892	0.01
812.19	0.02
812.488	0.01
812.786	0.01
813.084	0.01
813.383	0.01
813.68	0.01
813.978	0.02
814.276	0.01
814.574	0
814.872	0.01
815.169	0
815.467	0.01
815.764	0.01
816.062	0.01
816.359	0.01
816.656	0.01
816.954	0.01
817.251	0.01
817.548	0.01
817.845	0.01
818.142	0.01
818.439	0.01
818.735	0.01
819.032	0
819.329	0.01
819.626	0.01
819.922	0.01
820.219	0.01
820.515	0.01
820.811	0.01
821.108	0
821.404	0.01
821.7	-0
821.996	0
822.292	-0
822.588	0
822.884	0
823.18	0
823.475	0
823.771	0
824.067	0.01
824.362	0
824.658	0.01
824.953	0
825.249	0
825.544	0
825.839	0.01
826.134	0.01
826.429	0.01
826.724	0
827.019	0.01
827.314	0
827.609	0
827.904	0
828.198	-0
828.493	0.01
828.787	-0
829.082	0.01
829.376	0
829.671	0
829.965	-0
830.259	-0
830.553	-0.01
830.847	-0.01
831.141	0
831.435	-0
831.729	-0.01
832.023	-0
832.317	-0
832.61	-0.01
832.904	-0
833.197	0
833.491	-0.01
833.784	-0
834.077	0
834.371	0.01
834.664	0
834.957	0.01
835.25	0.01
835.543	0.01
835.836	0.01
836.129	0
836.421	0.01
836.714	0
837.007	0.01
837.299	0
837.592	0
837.884	-0.01
838.177	-0.01
838.469	-0.01
838.761	-0.01
839.053	-0.01
839.345	-0.01
839.637	-0.01
839.929	0
840.221	0.01
840.513	0.01
840.805	0.01
841.096	0
841.388	-0.01
841.68	0
841.971	0.01
842.262	0
842.554	0
842.845	0.01
843.136	0
843.427	-0.01
843.718	-0.01
844.009	-0
844.3	0
844.591	0
844.882	0
845.173	0.01
845.463	0
845.754	-0.01
846.044	-0.01
846.335	0
846.625	0
846.915	-0
847.206	-0.01
847.496	0
847.786	-0
848.076	-0.01
848.366	-0
848.656	-0.01
848.945	-0
849.235	-0.01
849.525	-0.01
849.814	0
850.104	-0.01
850.393	0
850.683	-0.01
850.972	0
851.261	-0.01
851.551	0
851.84	0.02
852.129	-0
852.418	-0.01
852.707	0
852.995	-0.01
853.284	-0
853.573	0
853.862	-0.01
854.15	-0.01
854.439	0
854.727	-0.02
855.015	-0.02
855.304	-0.01
855.592	-0.02
855.88	-0.01
856.168	-0.02
856.456	-0.02
856.744	-0.01
857.032	-0.03
857.32	-0.04
857.607	-0.01
857.895	-0.02
858.183	-0.02
858.47	-0.02
858.757	-0.02
859.045	-0.01
859.332	-0.01
859.619	-0.01
859.907	-0.01
860.194	-0.03
860.481	-0.01
860.768	-0.02
861.054	-0.02
861.341	-0.01
861.628	-0.02
861.915	-0.02
862.201	-0.01
862.488	-0.05
862.774	-0.04
863.061	-0.02
863.347	-0.02
863.633	-0.03
863.919	-0.03
864.205	-0.01
864.491	-0.01
864.777	-0.03
865.063	0
865.349	-0.01
865.635	-0.03
865.92	0.01
866.206	-0.02
866.492	-0.01
866.777	-0.04
867.062	-0.04
867.348	-0.06
867.633	0.01
867.918	-0.01
868.203	-0
868.488	-0.03
868.773	-0.03
869.058	-0.03
869.343	-0.05
869.628	-0.03
869.912	-0.02
870.197	-0.03
870.482	-0.01
870.766	-0.04
871.05	0.01
871.335	-0.02
871.619	0
871.903	-0.03
872.187	-0.01
872.471	-0.02
872.755	-0.06
873.039	-0.05
873.323	-0.02
873.607	-0.02
873.89	-0.03
874.174	-0.02
874.458	-0.01
874.741	0.04
875.024	-0.06
875.308	0.02
875.591	-0.05
875.874	0.04
876.157	-0.05
876.44	-0.04
876.723	0.03
877.006	-0.04
877.289	-0.01
877.572	0
877.854	-0.03
878.137	-0.05
878.42	0.08
878.702	-0.09
878.984	0.02
879.267	-0.08
879.549	0.08
879.831	-0.08
880.113	-0.06
880.395	-0.01
880.677	-0.14
880.959	-0.03
