Data from Rubpy_EV_900_EDTA_Buffered_Absorbance_13-49-43-684.txt Node
Date: Tue Jun 30 13:49:43 BST 2026
User: fpm-admin
Spectrometer: OFX00224
Trigger mode: 0
Integration Time (sec): 7.000000E-2
Scans to average: 3
Nonlinearity correction enabled: false
Boxcar width: 0
Storing dark spectrum: false
XAxis mode: Wavelengths
Number of Pixels in Spectrum: 2136
>>>>>Begin Spectral Data<<<<<
154.91	-0
155.289	-1.62
155.669	-0
156.048	-0.6
156.428	-0
156.807	0.01
157.186	-0
157.566	-0
157.945	-0.01
158.325	0.85
158.704	-0.69
159.083	0.2
159.462	-0.08
159.842	1.16
160.221	-0
160.6	0.06
160.979	-0.59
161.359	-0
161.738	-0.03
162.117	0.67
162.496	-0
162.875	-0
163.254	-0.22
163.633	-0.02
164.012	-1.18
164.391	-0.04
164.77	0.26
165.149	-0.16
165.528	-0.43
165.907	0.24
166.286	-0
166.665	-1.26
167.044	-0
167.423	0.23
167.802	0.05
168.181	-0
168.559	-0
168.938	-0
169.317	0.13
169.696	-0
170.074	-0.18
170.453	-0
170.832	0.14
171.21	0.15
171.589	-0
171.968	-0
172.346	-0.78
172.725	0.37
173.103	-0.18
173.482	-0.3
173.861	-0.27
174.239	0.05
174.617	0.46
174.996	-0
175.374	-0
175.753	0.02
176.131	-0
176.51	-0.03
176.888	-0
177.266	-0
177.645	0.03
178.023	0.68
178.401	-0.13
178.779	0.37
179.158	-0
179.536	0.37
179.914	-0.24
180.292	-0
180.67	0.9
181.048	-0
181.427	0.35
181.805	0.22
182.183	-1.02
182.561	-0
182.939	-0.1
183.317	0.51
183.695	0.63
184.073	-0
184.451	-0
184.829	0.64
185.206	-0.23
185.584	-0
185.962	0.88
186.34	-0.2
186.718	-0
187.096	0.12
187.473	1.09
187.851	-0.3
188.229	-0.4
188.607	0.14
188.984	0.09
189.362	0.25
189.74	0.06
190.117	0.07
190.495	0.24
190.872	0.1
191.25	0.22
191.627	0.26
192.005	0.17
192.382	0.16
192.76	0.27
193.137	0.16
193.515	0.16
193.892	0.11
194.269	0.2
194.647	0.19
195.024	0.05
195.401	0.22
195.779	0.22
196.156	0.22
196.533	0.09
196.91	0.2
197.288	0.3
197.665	0.09
198.042	0.12
198.419	0.29
198.796	0.16
199.173	0.17
199.55	0.47
199.927	0.17
200.304	0.16
200.681	0.19
201.058	0.14
201.435	0.27
201.812	0.2
202.189	0.19
202.566	0.12
202.943	0.26
203.32	0.15
203.697	0.11
204.073	0.16
204.45	0.17
204.827	0.22
205.204	0.17
205.58	0.13
205.957	0.32
206.334	0.2
206.71	0.21
207.087	0.16
207.464	0.27
207.84	0.17
208.217	0.07
208.593	0.13
208.97	0.18
209.346	0.15
209.723	0.25
210.099	0.18
210.476	0.11
210.852	0.18
211.228	0.15
211.605	0.21
211.981	0.2
212.357	0.19
212.733	0.15
213.11	0.21
213.486	0.08
213.862	0.24
214.238	0.11
214.614	0.17
214.991	0.19
215.367	0.05
215.743	0.15
216.119	0.11
216.495	0.08
216.871	0.11
217.247	0.24
217.623	0.28
217.999	0.05
218.375	0.17
218.751	0.07
219.127	0.15
219.502	0.22
219.878	0.12
220.254	0.27
220.63	0.06
221.006	0.19
221.381	0.11
221.757	0.22
222.133	0.15
222.508	0.18
222.884	0.18
223.26	0.2
223.635	0.17
224.011	0.2
224.386	0.12
224.762	0.19
225.137	0.12
225.513	0.17
225.888	0.16
226.264	0.16
226.639	0.16
227.014	0.17
227.39	0.27
227.765	0.13
228.14	0.3
228.516	0.05
228.891	0.22
229.266	0.24
229.641	0.18
230.017	0.22
230.392	0.17
230.767	0.17
231.142	0.32
231.517	0.25
231.892	0.22
232.267	0.24
232.642	0.19
233.017	0.11
233.392	0.28
233.767	0.21
234.142	0.12
234.517	0.17
234.892	0.11
235.267	0.26
235.641	0.23
236.016	0.32
236.391	0.21
236.766	0.14
237.14	0.14
237.515	0.1
237.89	0.23
238.264	0.18
238.639	0.25
239.014	0.15
239.388	0.32
239.763	0.1
240.137	0.23
240.512	0.2
240.886	0.14
241.261	0.22
241.635	0.28
242.009	0.19
242.384	0.19
242.758	0.23
243.132	0.15
243.507	0.27
243.881	0.24
244.255	0.28
244.629	0.15
245.004	0.14
245.378	0.18
245.752	0.14
246.126	0.13
246.5	0.21
246.874	0.26
247.248	0.21
247.622	0.21
247.996	0.07
248.37	0.19
248.744	0.26
249.118	0.16
249.492	0.25
249.866	0.17
250.24	0.2
250.613	0.18
250.987	0.19
251.361	0.21
251.735	0.18
252.108	0.13
252.482	0.23
252.856	0.21
253.229	0.18
253.603	0.31
253.977	0.19
254.35	0.27
254.724	0.2
255.097	0.19
255.471	0.23
255.844	0.15
256.218	0.21
256.591	0.16
256.964	0.27
257.338	0.14
257.711	0.14
258.084	0.18
258.458	0.19
258.831	0.23
259.204	0.18
259.577	0.14
259.95	0.15
260.323	0.15
260.697	0.14
261.07	0.22
261.443	0.22
261.816	0.25
262.189	0.1
262.562	0.2
262.935	0.15
263.308	0.19
263.68	0.2
264.053	0.13
264.426	0.13
264.799	0.22
265.172	0.07
265.545	0.18
265.917	0.28
266.29	0.2
266.663	0.3
267.035	0.16
267.408	0.18
267.781	0.28
268.153	0.17
268.526	0.26
268.898	0.24
269.271	0.24
269.643	0.17
270.016	0.27
270.388	0.24
270.76	0.27
271.133	0.21
271.505	0.23
271.877	0.22
272.25	0.17
272.622	0.23
272.994	0.16
273.366	0.18
273.739	0.11
274.111	0.14
274.483	0.23
274.855	0.19
275.227	0.17
275.599	0.15
275.971	0.16
276.343	0.17
276.715	0.28
277.087	0.2
277.459	0.22
277.831	0.17
278.203	0.25
278.574	0.14
278.946	0.17
279.318	0.24
279.69	0.15
280.061	0.14
280.433	0.14
280.805	0.26
281.176	0.15
281.548	0.22
281.92	0.14
282.291	0.17
282.663	0.17
283.034	0.24
283.406	0.25
283.777	0.3
284.148	0.16
284.52	0.2
284.891	0.2
285.262	0.2
285.634	0.2
286.005	0.2
286.376	0.17
286.747	0.18
287.119	0.22
287.49	0.18
287.861	0.18
288.232	0.21
288.603	0.22
288.974	0.21
289.345	0.24
289.716	0.23
290.087	0.17
290.458	0.2
290.829	0.19
291.2	0.17
291.571	0.16
291.941	0.18
292.312	0.2
292.683	0.24
293.054	0.23
293.424	0.21
293.795	0.16
294.166	0.26
294.536	0.27
294.907	0.2
295.277	0.17
295.648	0.21
296.018	0.19
296.389	0.22
296.759	0.14
297.13	0.16
297.5	0.25
297.871	0.19
298.241	0.18
298.611	0.22
298.981	0.2
299.352	0.12
299.722	0.21
300.092	0.18
300.462	0.22
300.832	0.18
301.202	0.17
301.573	0.14
301.943	0.18
302.313	0.13
302.683	0.14
303.053	0.14
303.422	0.15
303.792	0.14
304.162	0.16
304.532	0.16
304.902	0.16
305.272	0.16
305.641	0.15
306.011	0.14
306.381	0.16
306.75	0.16
307.12	0.16
307.49	0.17
307.859	0.16
308.229	0.16
308.598	0.17
308.968	0.17
309.337	0.17
309.707	0.18
310.076	0.17
310.445	0.18
310.815	0.19
311.184	0.18
311.553	0.18
311.923	0.2
312.292	0.18
312.661	0.19
313.03	0.19
313.399	0.19
313.768	0.19
314.137	0.19
314.506	0.19
314.875	0.19
315.244	0.19
315.613	0.2
315.982	0.19
316.351	0.19
316.72	0.18
317.089	0.18
317.458	0.18
317.826	0.18
318.195	0.19
318.564	0.19
318.933	0.18
319.301	0.19
319.67	0.18
320.038	0.18
320.407	0.18
320.775	0.18
321.144	0.18
321.512	0.17
321.881	0.17
322.249	0.17
322.618	0.16
322.986	0.16
323.354	0.16
323.723	0.17
324.091	0.16
324.459	0.16
324.827	0.16
325.195	0.16
325.564	0.15
325.932	0.16
326.3	0.15
326.668	0.16
327.036	0.16
327.404	0.15
327.772	0.16
328.14	0.16
328.508	0.15
328.875	0.16
329.243	0.15
329.611	0.17
329.979	0.16
330.346	0.16
330.714	0.16
331.082	0.16
331.449	0.16
331.817	0.16
332.185	0.16
332.552	0.16
332.92	0.17
333.287	0.17
333.655	0.17
334.022	0.17
334.389	0.17
334.757	0.17
335.124	0.17
335.491	0.17
335.859	0.17
336.226	0.18
336.593	0.18
336.96	0.18
337.327	0.18
337.695	0.19
338.062	0.19
338.429	0.19
338.796	0.19
339.163	0.2
339.53	0.19
339.897	0.2
340.263	0.2
340.63	0.21
340.997	0.21
341.364	0.21
341.731	0.22
342.097	0.22
342.464	0.22
342.831	0.23
343.197	0.24
343.564	0.24
343.931	0.24
344.297	0.24
344.664	0.25
345.03	0.25
345.396	0.25
345.763	0.26
346.129	0.26
346.496	0.26
346.862	0.27
347.228	0.27
347.594	0.27
347.961	0.28
348.327	0.28
348.693	0.29
349.059	0.29
349.425	0.29
349.791	0.3
350.157	0.3
350.523	0.31
350.889	0.32
351.255	0.32
351.621	0.33
351.987	0.33
352.353	0.34
352.719	0.35
353.084	0.35
353.45	0.36
353.816	0.37
354.181	0.37
354.547	0.38
354.913	0.39
355.278	0.39
355.644	0.4
356.009	0.41
356.375	0.42
356.74	0.43
357.106	0.44
357.471	0.45
357.836	0.46
358.202	0.47
358.567	0.48
358.932	0.49
359.297	0.49
359.663	0.5
360.028	0.51
360.393	0.51
360.758	0.52
361.123	0.52
361.488	0.53
361.853	0.54
362.218	0.54
362.583	0.55
362.948	0.55
363.312	0.56
363.677	0.57
364.042	0.58
364.407	0.59
364.772	0.6
365.136	0.6
365.501	0.62
365.865	0.63
366.23	0.65
366.595	0.66
366.959	0.67
367.324	0.68
367.688	0.7
368.052	0.71
368.417	0.72
368.781	0.73
369.145	0.74
369.51	0.74
369.874	0.74
370.238	0.74
370.602	0.75
370.967	0.74
371.331	0.73
371.695	0.74
372.059	0.72
372.423	0.73
372.787	0.73
373.151	0.72
373.515	0.72
373.878	0.72
374.242	0.71
374.606	0.72
374.97	0.72
375.334	0.73
375.697	0.73
376.061	0.73
376.425	0.74
376.788	0.74
377.152	0.75
377.515	0.74
377.879	0.76
378.242	0.76
378.606	0.78
378.969	0.78
379.333	0.78
379.696	0.8
380.059	0.8
380.422	0.82
380.786	0.84
381.149	0.85
381.512	0.87
381.875	0.89
382.238	0.91
382.601	0.93
382.964	0.96
383.327	0.98
383.69	1
384.053	1.03
384.416	1.06
384.779	1.07
385.142	1.09
385.504	1.12
385.867	1.12
386.23	1.14
386.593	1.14
386.955	1.15
387.318	1.15
387.68	1.16
388.043	1.14
388.405	1.14
388.768	1.15
389.13	1.11
389.493	1.11
389.855	1.1
390.217	1.09
390.58	1.1
390.942	1.1
391.304	1.11
391.666	1.12
392.028	1.14
392.391	1.17
392.753	1.2
393.115	1.23
393.477	1.27
393.839	1.31
394.201	1.36
394.563	1.42
394.924	1.46
395.286	1.5
395.648	1.54
396.01	1.58
396.371	1.6
396.733	1.63
397.095	1.65
397.456	1.66
397.818	1.65
398.18	1.67
398.541	1.63
398.903	1.59
399.264	1.56
399.625	1.53
399.987	1.47
400.348	1.43
400.709	1.37
401.071	1.3
401.432	1.23
401.793	1.16
402.154	1.09
402.515	1
402.876	0.95
403.238	0.88
403.599	0.82
403.96	0.76
404.32	0.71
404.681	0.65
405.042	0.61
405.403	0.57
405.764	0.53
406.125	0.5
406.485	0.46
406.846	0.44
407.207	0.41
407.567	0.39
407.928	0.36
408.288	0.35
408.649	0.33
409.009	0.31
409.37	0.3
409.73	0.28
410.091	0.26
410.451	0.25
410.811	0.24
411.171	0.23
411.532	0.22
411.892	0.21
412.252	0.21
412.612	0.2
412.972	0.19
413.332	0.18
413.692	0.19
414.052	0.18
414.412	0.17
414.772	0.16
415.132	0.16
415.492	0.15
415.851	0.15
416.211	0.15
416.571	0.14
416.931	0.14
417.29	0.14
417.65	0.13
418.009	0.13
418.369	0.13
418.728	0.13
419.088	0.12
419.447	0.12
419.807	0.12
420.166	0.12
420.525	0.11
420.884	0.11
421.244	0.11
421.603	0.1
421.962	0.1
422.321	0.1
422.68	0.1
423.039	0.1
423.398	0.1
423.757	0.09
424.116	0.1
424.475	0.1
424.834	0.1
425.193	0.1
425.551	0.09
425.91	0.09
426.269	0.09
426.628	0.09
426.986	0.09
427.345	0.09
427.703	0.1
428.062	0.09
428.42	0.09
428.779	0.09
429.137	0.09
429.496	0.09
429.854	0.08
430.212	0.09
430.57	0.07
430.929	0.07
431.287	0.07
431.645	0.08
432.003	0.08
432.361	0.08
432.719	0.08
433.077	0.08
433.435	0.08
433.793	0.07
434.151	0.08
434.509	0.08
434.866	0.07
435.224	0.08
435.582	0.07
435.94	0.07
436.297	0.07
436.655	0.07
437.012	0.07
437.37	0.07
437.727	0.06
438.085	0.07
438.442	0.07
438.8	0.07
439.157	0.07
439.514	0.07
439.872	0.06
440.229	0.07
440.586	0.07
440.943	0.06
441.3	0.06
441.657	0.06
442.014	0.06
442.371	0.06
442.728	0.06
443.085	0.05
443.442	0.05
443.799	0.05
444.156	0.05
444.513	0.05
444.869	0.05
445.226	0.05
445.583	0.05
445.939	0.05
446.296	0.04
446.652	0.04
447.009	0.05
447.365	0.04
447.722	0.04
448.078	0.04
448.434	0.05
448.791	0.04
449.147	0.04
449.503	0.04
449.859	0.04
450.215	0.04
450.571	0.03
450.928	0.03
451.284	0.03
451.64	0.03
451.995	0.02
452.351	0.02
452.707	0.02
453.063	0.02
453.419	0.03
453.775	0.02
454.13	0.01
454.486	0.02
454.842	0.01
455.197	0
455.553	-0
455.908	-0.01
456.264	-0.01
456.619	-0.01
456.975	-0.01
457.33	-0.01
457.685	-0.02
458.04	-0.03
458.396	-0.03
458.751	-0.03
459.106	-0.03
459.461	-0.04
459.816	-0.05
460.171	-0.05
460.526	-0.05
460.881	-0.06
461.236	-0.06
461.591	-0.07
461.946	-0.08
462.301	-0.08
462.655	-0.08
463.01	-0.08
463.365	-0.08
463.719	-0.09
464.074	-0.09
464.428	-0.11
464.783	-0.11
465.137	-0.11
465.492	-0.11
465.846	-0.12
466.201	-0.11
466.555	-0.12
466.909	-0.11
467.263	-0.11
467.618	-0.11
467.972	-0.11
468.326	-0.11
468.68	-0.12
469.034	-0.12
469.388	-0.13
469.742	-0.13
470.096	-0.12
470.45	-0.13
470.804	-0.12
471.157	-0.13
471.511	-0.13
471.865	-0.13
472.218	-0.13
472.572	-0.12
472.926	-0.11
473.279	-0.11
473.633	-0.11
473.986	-0.1
474.34	-0.1
474.693	-0.09
475.046	-0.08
475.4	-0.07
475.753	-0.07
476.106	-0.06
476.459	-0.06
476.812	-0.05
477.165	-0.04
477.519	-0.04
477.872	-0.03
478.224	-0.03
478.577	-0.02
478.93	-0.02
479.283	-0.01
479.636	-0.02
479.989	-0.01
480.341	-0
480.694	0
481.047	0
481.399	0
481.752	0.01
482.104	0.02
482.457	0.02
482.809	0.02
483.162	0.02
483.514	0.03
483.866	0.03
484.219	0.03
484.571	0.03
484.923	0.04
485.275	0.04
485.627	0.04
485.979	0.04
486.331	0.04
486.683	0.05
487.035	0.05
487.387	0.05
487.739	0.06
488.091	0.07
488.443	0.07
488.794	0.07
489.146	0.07
489.498	0.07
489.849	0.07
490.201	0.07
490.552	0.07
490.904	0.08
491.255	0.08
491.607	0.07
491.958	0.08
492.309	0.08
492.661	0.08
493.012	0.08
493.363	0.08
493.714	0.09
494.065	0.09
494.416	0.09
494.767	0.09
495.118	0.09
495.469	0.09
495.82	0.1
496.171	0.1
496.522	0.1
496.872	0.1
497.223	0.1
497.574	0.1
497.924	0.1
498.275	0.11
498.626	0.11
498.976	0.11
499.327	0.12
499.677	0.12
500.027	0.12
500.378	0.12
500.728	0.12
501.078	0.12
501.428	0.13
501.779	0.13
502.129	0.13
502.479	0.13
502.829	0.13
503.179	0.14
503.529	0.13
503.879	0.14
504.229	0.14
504.578	0.14
504.928	0.15
505.278	0.15
505.628	0.14
505.977	0.15
506.327	0.16
506.676	0.15
507.026	0.15
507.375	0.16
507.725	0.16
508.074	0.16
508.424	0.16
508.773	0.16
509.122	0.16
509.471	0.16
509.82	0.16
510.17	0.16
510.519	0.17
510.868	0.17
511.217	0.17
511.566	0.17
511.915	0.18
512.263	0.17
512.612	0.18
512.961	0.18
513.31	0.18
513.659	0.18
514.007	0.18
514.356	0.19
514.704	0.19
515.053	0.19
515.401	0.19
515.75	0.19
516.098	0.2
516.447	0.2
516.795	0.2
517.143	0.2
517.491	0.2
517.839	0.2
518.188	0.2
518.536	0.21
518.884	0.21
519.232	0.21
519.58	0.21
519.928	0.21
520.275	0.21
520.623	0.21
520.971	0.21
521.319	0.21
521.666	0.22
522.014	0.22
522.362	0.22
522.709	0.23
523.057	0.23
523.404	0.22
523.752	0.23
524.099	0.23
524.446	0.23
524.794	0.23
525.141	0.23
525.488	0.24
525.835	0.24
526.182	0.24
526.529	0.24
526.876	0.24
527.223	0.25
527.57	0.25
527.917	0.25
528.264	0.25
528.611	0.25
528.958	0.25
529.304	0.26
529.651	0.26
529.998	0.26
530.344	0.26
530.691	0.26
531.037	0.27
531.384	0.26
531.73	0.27
532.076	0.27
532.423	0.27
532.769	0.28
533.115	0.28
533.461	0.28
533.807	0.28
534.154	0.28
534.5	0.29
534.846	0.29
535.192	0.28
535.537	0.29
535.883	0.3
536.229	0.3
536.575	0.3
536.921	0.3
537.266	0.3
537.612	0.3
537.957	0.3
538.303	0.3
538.649	0.31
538.994	0.31
539.339	0.31
539.685	0.31
540.03	0.32
540.375	0.32
540.721	0.32
541.066	0.32
541.411	0.33
541.756	0.33
542.101	0.33
542.446	0.34
542.791	0.33
543.136	0.34
543.481	0.34
543.825	0.35
544.17	0.35
544.515	0.35
544.86	0.35
545.204	0.35
545.549	0.35
545.893	0.36
546.238	0.36
546.582	0.36
546.927	0.37
547.271	0.36
547.615	0.37
547.96	0.38
548.304	0.37
548.648	0.38
548.992	0.38
549.336	0.38
549.68	0.38
550.024	0.38
550.368	0.38
550.712	0.38
551.056	0.38
551.4	0.39
551.743	0.39
552.087	0.39
552.431	0.4
552.774	0.4
553.118	0.4
553.462	0.4
553.805	0.41
554.148	0.4
554.492	0.41
554.835	0.41
555.178	0.41
555.522	0.41
555.865	0.41
556.208	0.42
556.551	0.41
556.894	0.42
557.237	0.42
557.58	0.42
557.923	0.42
558.266	0.42
558.609	0.43
558.952	0.42
559.294	0.42
559.637	0.43
559.98	0.43
560.322	0.43
560.665	0.43
561.007	0.43
561.35	0.43
561.692	0.43
562.034	0.43
562.377	0.43
562.719	0.43
563.061	0.43
563.403	0.44
563.745	0.44
564.088	0.44
564.43	0.44
564.772	0.44
565.113	0.44
565.455	0.45
565.797	0.44
566.139	0.45
566.481	0.45
566.822	0.45
567.164	0.45
567.506	0.45
567.847	0.45
568.189	0.45
568.53	0.45
568.872	0.45
569.213	0.46
569.554	0.46
569.895	0.45
570.237	0.45
570.578	0.46
570.919	0.45
571.26	0.45
571.601	0.45
571.942	0.45
572.283	0.45
572.624	0.45
572.965	0.46
573.306	0.45
573.646	0.45
573.987	0.45
574.328	0.46
574.668	0.46
575.009	0.46
575.349	0.46
575.69	0.46
576.03	0.46
576.37	0.45
576.711	0.45
577.051	0.46
577.391	0.46
577.731	0.46
578.072	0.46
578.412	0.46
578.752	0.46
579.092	0.46
579.431	0.45
579.771	0.45
580.111	0.45
580.451	0.45
580.791	0.46
581.13	0.47
581.47	0.46
581.81	0.46
582.149	0.46
582.489	0.47
582.828	0.46
583.167	0.46
583.507	0.44
583.846	0.42
584.185	0.44
584.525	0.46
584.864	0.46
585.203	0.48
585.542	0.48
585.881	0.48
586.22	0.48
586.559	0.48
586.898	0.48
587.236	0.48
587.575	0.48
587.914	0.48
588.252	0.49
588.591	0.49
588.93	0.49
589.268	0.48
589.607	0.49
589.945	0.49
590.283	0.5
590.622	0.5
590.96	0.5
591.298	0.51
591.636	0.51
591.974	0.51
592.313	0.52
592.651	0.52
592.989	0.52
593.326	0.52
593.664	0.52
594.002	0.52
594.34	0.52
594.678	0.52
595.015	0.52
595.353	0.52
595.691	0.53
596.028	0.53
596.366	0.54
596.703	0.54
597.04	0.54
597.378	0.54
597.715	0.55
598.052	0.55
598.389	0.55
598.726	0.55
599.064	0.55
599.401	0.55
599.738	0.56
600.074	0.56
600.411	0.55
600.748	0.55
601.085	0.55
601.422	0.55
601.758	0.55
602.095	0.55
602.432	0.56
602.768	0.56
603.105	0.56
603.441	0.57
603.777	0.57
604.114	0.57
604.45	0.57
604.786	0.56
605.122	0.57
605.459	0.56
605.795	0.56
606.131	0.56
606.467	0.56
606.803	0.56
607.139	0.56
607.474	0.56
607.81	0.56
608.146	0.56
608.482	0.56
608.817	0.55
609.153	0.55
609.488	0.55
609.824	0.55
610.159	0.55
610.495	0.55
610.83	0.55
611.165	0.55
611.5	0.55
611.836	0.54
612.171	0.54
612.506	0.55
612.841	0.55
613.176	0.54
613.511	0.54
613.845	0.54
614.18	0.54
614.515	0.54
614.85	0.54
615.184	0.54
615.519	0.54
615.854	0.53
616.188	0.53
616.523	0.53
616.857	0.52
617.191	0.53
617.526	0.52
617.86	0.52
618.194	0.52
618.528	0.52
618.862	0.52
619.196	0.52
619.53	0.51
619.864	0.52
620.198	0.51
620.532	0.51
620.866	0.51
621.2	0.51
621.533	0.5
621.867	0.5
622.201	0.5
622.534	0.5
622.868	0.5
623.201	0.5
623.534	0.5
623.868	0.49
624.201	0.49
624.534	0.49
624.868	0.49
625.201	0.49
625.534	0.48
625.867	0.49
626.2	0.49
626.533	0.48
626.865	0.48
627.198	0.48
627.531	0.48
627.864	0.47
628.196	0.47
628.529	0.47
628.862	0.47
629.194	0.46
629.527	0.46
629.859	0.46
630.191	0.46
630.524	0.45
630.856	0.45
631.188	0.44
631.52	0.44
631.852	0.44
632.184	0.44
632.516	0.43
632.848	0.43
633.18	0.43
633.512	0.43
633.844	0.42
634.175	0.42
634.507	0.42
634.839	0.41
635.17	0.41
635.502	0.41
635.833	0.41
636.165	0.4
636.496	0.4
636.827	0.4
637.159	0.39
637.49	0.39
637.821	0.39
638.152	0.39
638.483	0.38
638.814	0.38
639.145	0.38
639.476	0.37
639.807	0.37
640.137	0.37
640.468	0.36
640.799	0.36
641.129	0.36
641.46	0.35
641.791	0.35
642.121	0.35
642.451	0.35
642.782	0.35
643.112	0.35
643.442	0.34
643.773	0.34
644.103	0.34
644.433	0.34
644.763	0.34
645.093	0.33
645.423	0.33
645.753	0.33
646.082	0.33
646.412	0.33
646.742	0.32
647.072	0.32
647.401	0.32
647.731	0.32
648.06	0.32
648.39	0.32
648.719	0.32
649.048	0.32
649.378	0.31
649.707	0.31
650.036	0.31
650.365	0.31
650.694	0.31
651.023	0.31
651.352	0.31
651.681	0.31
652.01	0.31
652.339	0.31
652.668	0.31
652.996	0.31
653.325	0.31
653.654	0.31
653.982	0.31
654.311	0.31
654.639	0.31
654.967	0.3
655.296	0.3
655.624	0.3
655.952	0.31
656.28	0.31
656.609	0.3
656.937	0.31
657.265	0.29
657.593	0.26
657.92	0.14
658.248	0.08
658.576	0.08
658.904	0.18
659.231	0.28
659.559	0.3
659.887	0.3
660.214	0.3
660.542	0.3
660.869	0.3
661.196	0.3
661.524	0.3
661.851	0.3
662.178	0.3
662.505	0.3
662.832	0.3
663.159	0.29
663.486	0.3
663.813	0.3
664.14	0.3
664.467	0.29
664.794	0.3
665.12	0.3
665.447	0.3
665.774	0.3
666.1	0.29
666.427	0.29
666.753	0.29
667.079	0.29
667.406	0.29
667.732	0.28
668.058	0.28
668.384	0.28
668.71	0.28
669.036	0.28
669.362	0.28
669.688	0.28
670.014	0.28
670.34	0.28
670.666	0.28
670.991	0.28
671.317	0.28
671.643	0.27
671.968	0.28
672.294	0.27
672.619	0.27
672.945	0.27
673.27	0.27
673.595	0.27
673.92	0.26
674.246	0.26
674.571	0.26
674.896	0.26
675.221	0.26
675.546	0.26
675.87	0.26
676.195	0.25
676.52	0.25
676.845	0.25
677.169	0.25
677.494	0.25
677.819	0.25
678.143	0.25
678.468	0.24
678.792	0.24
679.116	0.24
679.44	0.24
679.765	0.23
680.089	0.23
680.413	0.22
680.737	0.22
681.061	0.22
681.385	0.22
681.709	0.22
682.033	0.22
682.356	0.22
682.68	0.22
683.004	0.22
683.327	0.22
683.651	0.21
683.974	0.21
684.298	0.21
684.621	0.2
684.944	0.2
685.268	0.2
685.591	0.2
685.914	0.19
686.237	0.19
686.56	0.19
686.883	0.19
687.206	0.19
687.529	0.19
687.852	0.18
688.175	0.18
688.497	0.18
688.82	0.18
689.142	0.18
689.465	0.18
689.787	0.18
690.11	0.18
690.432	0.17
690.755	0.17
691.077	0.17
691.399	0.17
691.721	0.17
692.043	0.17
692.365	0.16
692.687	0.16
693.009	0.16
693.331	0.16
693.653	0.15
693.974	0.15
694.296	0.15
694.618	0.15
694.939	0.15
695.261	0.15
695.582	0.14
695.904	0.14
696.225	0.14
696.546	0.14
696.868	0.14
697.189	0.14
697.51	0.13
697.831	0.14
698.152	0.14
698.473	0.13
698.794	0.13
699.114	0.13
699.435	0.13
699.756	0.13
700.077	0.13
700.397	0.13
700.718	0.13
701.038	0.13
701.359	0.13
701.679	0.13
701.999	0.13
702.32	0.13
702.64	0.13
702.96	0.12
703.28	0.12
703.6	0.12
703.92	0.12
704.24	0.12
704.56	0.12
704.879	0.12
705.199	0.12
705.519	0.12
705.838	0.12
706.158	0.11
706.478	0.11
706.797	0.11
707.116	0.11
707.436	0.11
707.755	0.11
708.074	0.11
708.393	0.11
708.712	0.11
709.031	0.1
709.35	0.1
709.669	0.1
709.988	0.1
710.307	0.1
710.626	0.11
710.944	0.11
711.263	0.11
711.582	0.11
711.9	0.11
712.219	0.11
712.537	0.11
712.855	0.11
713.174	0.11
713.492	0.11
713.81	0.11
714.128	0.11
714.446	0.11
714.764	0.1
715.082	0.1
715.4	0.11
715.718	0.11
716.035	0.1
716.353	0.1
716.671	0.1
716.988	0.1
717.306	0.11
717.623	0.11
717.941	0.11
718.258	0.11
718.575	0.11
718.893	0.11
719.21	0.11
719.527	0.11
719.844	0.11
720.161	0.11
720.478	0.11
720.795	0.11
721.112	0.11
721.428	0.11
721.745	0.11
722.062	0.11
722.378	0.11
722.695	0.11
723.011	0.11
723.328	0.11
723.644	0.11
723.96	0.12
724.276	0.12
724.593	0.12
724.909	0.12
725.225	0.12
725.541	0.12
725.857	0.12
726.173	0.12
726.488	0.12
726.804	0.12
727.12	0.12
727.435	0.12
727.751	0.12
728.067	0.12
728.382	0.12
728.697	0.12
729.013	0.12
729.328	0.12
729.643	0.12
729.958	0.12
730.273	0.12
730.588	0.12
730.903	0.12
731.218	0.12
731.533	0.12
731.848	0.12
732.163	0.12
732.477	0.12
732.792	0.12
733.107	0.12
733.421	0.12
733.736	0.12
734.05	0.12
734.364	0.12
734.678	0.12
734.993	0.12
735.307	0.12
735.621	0.12
735.935	0.12
736.249	0.11
736.563	0.12
736.877	0.12
737.19	0.12
737.504	0.12
737.818	0.12
738.131	0.12
738.445	0.12
738.758	0.12
739.072	0.12
739.385	0.11
739.698	0.12
740.012	0.12
740.325	0.12
740.638	0.11
740.951	0.11
741.264	0.11
741.577	0.11
741.89	0.11
742.203	0.11
742.515	0.11
742.828	0.11
743.141	0.11
743.453	0.11
743.766	0.11
744.078	0.1
744.391	0.1
744.703	0.1
745.015	0.11
745.327	0.11
745.639	0.11
745.952	0.11
746.264	0.1
746.575	0.11
746.887	0.1
747.199	0.1
747.511	0.1
747.823	0.1
748.134	0.1
748.446	0.1
748.757	0.1
749.069	0.1
749.38	0.1
749.692	0.1
750.003	0.09
750.314	0.09
750.625	0.09
750.936	0.09
751.248	0.09
751.559	0.09
751.869	0.09
752.18	0.09
752.491	0.09
752.802	0.08
753.112	0.08
753.423	0.08
753.734	0.08
754.044	0.08
754.355	0.08
754.665	0.08
754.975	0.08
755.285	0.08
755.596	0.08
755.906	0.08
756.216	0.08
756.526	0.07
756.836	0.07
757.146	0.07
757.455	0.07
757.765	0.07
758.075	0.07
758.385	0.06
758.694	0.07
759.004	0.07
759.313	0.07
759.622	0.07
759.932	0.07
760.241	0.06
760.55	0.06
760.859	0.06
761.168	0.06
761.477	0.06
761.786	0.06
762.095	0.05
762.404	0.05
762.713	0.05
763.021	0.05
763.33	0.05
763.639	0.05
763.947	0.05
764.256	0.05
764.564	0.05
764.872	0.05
765.181	0.05
765.489	0.05
765.797	0.05
766.105	0.05
766.413	0.05
766.721	0.05
767.029	0.05
767.337	0.05
767.644	0.05
767.952	0.05
768.26	0.05
768.567	0.05
768.875	0.05
769.182	0.05
769.49	0.04
769.797	0.04
770.104	0.05
770.411	0.05
770.718	0.05
771.026	0.05
771.333	0.05
771.639	0.04
771.946	0.04
772.253	0.05
772.56	0.04
772.867	0.04
773.173	0.04
773.48	0.04
773.786	0.04
774.093	0.04
774.399	0.04
774.705	0.04
775.012	0.04
775.318	0.04
775.624	0.04
775.93	0.04
776.236	0.04
776.542	0.04
776.848	0.04
777.154	0.04
777.459	0.05
777.765	0.04
778.071	0.05
778.376	0.04
778.682	0.04
778.987	0.04
779.292	0.04
779.598	0.04
779.903	0.04
780.208	0.04
780.513	0.04
780.818	0.04
781.123	0.04
781.428	0.04
781.733	0.04
782.038	0.04
782.343	0.04
782.647	0.04
782.952	0.04
783.256	0.04
783.561	0.04
783.865	0.03
784.17	0.04
784.474	0.04
784.778	0.04
785.082	0.04
785.386	0.04
785.69	0.05
785.994	0.04
786.298	0.04
786.602	0.04
786.906	0.04
787.209	0.04
787.513	0.04
787.817	0.04
788.12	0.05
788.424	0.05
788.727	0.05
789.03	0.04
789.333	0.04
789.637	0.04
789.94	0.03
790.243	0.03
790.546	0.03
790.849	0.03
791.152	0.03
791.454	0.03
791.757	0.03
792.06	0.03
792.362	0.03
792.665	0.03
792.967	0.02
793.27	0.02
793.572	0.03
793.874	0.03
794.177	0.03
794.479	0.03
794.781	0.03
795.083	0.03
795.385	0.03
795.687	0.03
795.989	0.03
796.29	0.03
796.592	0.04
796.894	0.04
797.195	0.04
797.497	0.04
797.798	0.03
798.1	0.03
798.401	0.03
798.702	0.03
799.003	0.03
799.304	0.03
799.605	0.03
799.906	0.03
800.207	0.03
800.508	0.03
800.809	0.03
801.11	0.03
801.41	0.03
801.711	0.03
802.011	0.03
802.312	0.03
802.612	0.03
802.913	0.03
803.213	0.03
803.513	0.03
803.813	0.03
804.113	0.03
804.413	0.03
804.713	0.03
805.013	0.03
805.313	0.03
805.613	0.03
805.912	0.02
806.212	0.02
806.511	0.02
806.811	0.03
807.11	0.03
807.41	0.03
807.709	0.03
808.008	0.03
808.307	0.03
808.606	0.03
808.905	0.03
809.204	0.03
809.503	0.03
809.802	0.03
810.101	0.03
810.399	0.03
810.698	0.03
810.997	0.03
811.295	0.03
811.593	0.03
811.892	0.03
812.19	0.03
812.488	0.03
812.786	0.04
813.084	0.03
813.383	0.03
813.68	0.03
813.978	0.03
814.276	0.03
814.574	0.02
814.872	0.03
815.169	0.02
815.467	0.02
815.764	0.03
816.062	0.02
816.359	0.02
816.656	0.02
816.954	0.02
817.251	0.03
817.548	0.02
817.845	0.03
818.142	0.03
818.439	0.03
818.735	0.02
819.032	0.02
819.329	0.02
819.626	0.02
819.922	0.03
820.219	0.02
820.515	0.03
820.811	0.02
821.108	0.02
821.404	0.02
821.7	0.02
821.996	0.03
822.292	0.02
822.588	0.03
822.884	0.02
823.18	0.02
823.475	0.02
823.771	0.02
824.067	0.02
824.362	0.02
824.658	0.03
824.953	0.02
825.249	0.02
825.544	0.02
825.839	0.02
826.134	0.02
826.429	0.03
826.724	0.02
827.019	0.02
827.314	0.02
827.609	0.02
827.904	0.03
828.198	0.02
828.493	0.02
828.787	0.02
829.082	0.02
829.376	0.02
829.671	0.02
829.965	0.02
830.259	0.02
830.553	0.01
830.847	0.01
831.141	0.02
831.435	0.02
831.729	0.01
832.023	0.02
832.317	0.01
832.61	0.02
832.904	0.02
833.197	0.02
833.491	0.02
833.784	0.01
834.077	0.01
834.371	0.03
834.664	0.03
834.957	0.02
835.25	0.02
835.543	0.02
835.836	0.02
836.129	0.02
836.421	0.02
836.714	0.02
837.007	0.03
837.299	0.02
837.592	0.02
837.884	0.02
838.177	0.01
838.469	0.01
838.761	0.01
839.053	0.01
839.345	0.01
839.637	0.02
839.929	0.02
840.221	0.03
840.513	0.02
840.805	0.01
841.096	0.02
841.388	0.01
841.68	0.02
841.971	0.03
842.262	0.02
842.554	0.02
842.845	0.02
843.136	0.03
843.427	0.02
843.718	0.02
844.009	0.01
844.3	0.02
844.591	0.02
844.882	0.02
845.173	0.02
845.463	0.02
845.754	0.01
846.044	0.02
846.335	0.01
846.625	0.02
846.915	0.02
847.206	0.01
847.496	0.02
847.786	0.02
848.076	0.01
848.366	0.01
848.656	0.02
848.945	0
849.235	0.01
849.525	0.02
849.814	0.03
850.104	0.01
850.393	0.02
850.683	0.02
850.972	0.01
851.261	0.02
851.551	0.02
851.84	0.03
852.129	0.02
852.418	0.02
852.707	0.02
852.995	0.03
853.284	0.01
853.573	0.03
853.862	0.02
854.15	0.02
854.439	0.02
854.727	0.02
855.015	0.02
855.304	0
855.592	0.01
855.88	0.01
856.168	0.01
856.456	-0
856.744	0
857.032	-0.02
857.32	-0
857.607	0.01
857.895	0
858.183	0.01
858.47	-0.01
858.757	0.01
859.045	0
859.332	0.01
859.619	0.01
859.907	0.01
860.194	0.02
860.481	0.01
860.768	0.01
861.054	-0
861.341	0.02
861.628	0.01
861.915	-0.01
862.201	0.02
862.488	-0.02
862.774	-0.01
863.061	-0.01
863.347	-0.01
863.633	-0.01
863.919	0
864.205	0.02
864.491	-0.02
864.777	-0.01
865.063	0.01
865.349	0
865.635	0.01
865.92	0.03
866.206	0
866.492	0.01
866.777	-0.01
867.062	-0.03
867.348	-0.03
867.633	0.03
867.918	-0.02
868.203	0.01
868.488	-0.02
868.773	0.02
869.058	-0.06
869.343	-0.03
869.628	-0.01
869.912	-0.02
870.197	-0.02
870.482	-0.04
870.766	-0.04
871.05	0.04
871.335	-0
871.619	-0.01
871.903	0.06
872.187	-0
872.471	-0.05
872.755	-0.06
873.039	-0.05
873.323	-0.04
873.607	-0.03
873.89	-0.04
874.174	-0.05
874.458	-0.02
874.741	-0.02
875.024	-0.05
875.308	-0.01
875.591	0.02
875.874	0.01
876.157	-0.04
876.44	-0.02
876.723	-0
877.006	0.04
877.289	-0.05
877.572	-0.04
877.854	0.07
878.137	0.01
878.42	0.09
878.702	-0.02
878.984	0.07
879.267	0.01
879.549	-0.03
879.831	-0.09
880.113	-0.05
880.395	0.04
880.677	-0.06
880.959	-0.01
