Data from Rubpy_EV_900_EDTA_Buffered_Absorbance_13-38-38-719.txt Node
Date: Tue Jun 30 13:38:38 BST 2026
User: fpm-admin
Spectrometer: OFX00224
Trigger mode: 0
Integration Time (sec): 7.000000E-2
Scans to average: 3
Nonlinearity correction enabled: false
Boxcar width: 0
Storing dark spectrum: false
XAxis mode: Wavelengths
Number of Pixels in Spectrum: 2136
>>>>>Begin Spectral Data<<<<<
154.91	0.02
155.289	-1.54
155.669	-0
156.048	-0.82
156.428	0.07
156.807	-0
157.186	0.26
157.566	-0
157.945	0.16
158.325	-0
158.704	-0
159.083	-0
159.462	0.38
159.842	-0
160.221	-0.45
160.6	-0.19
160.979	-0.13
161.359	-0
161.738	-0
162.117	-0.44
162.496	-0
162.875	-0
163.254	-0
163.633	0.13
164.012	-0.48
164.391	1.46
164.77	-0
165.149	-0
165.528	0.38
165.907	-0
166.286	-0
166.665	-0.78
167.044	-0
167.423	0.96
167.802	-0.61
168.181	0.55
168.559	-0
168.938	-0
169.317	-0
169.696	-0
170.074	-0.57
170.453	-0
170.832	-0
171.21	0.03
171.589	1.11
171.968	-0
172.346	-0.56
172.725	0.92
173.103	-0
173.482	1.34
173.861	0.15
174.239	0.35
174.617	-0
174.996	-0.07
175.374	-0
175.753	-0.17
176.131	-0
176.51	-0.4
176.888	0.78
177.266	0.48
177.645	-0.05
178.023	0.59
178.401	0.02
178.779	-0.01
179.158	0.64
179.536	0.24
179.914	-0.07
180.292	-0.48
180.67	0.09
181.048	-0
181.427	-0.3
181.805	-0.51
182.183	-0.81
182.561	-0
182.939	-0.37
183.317	-0.3
183.695	0.09
184.073	-0.56
184.451	-0
184.829	0.05
185.206	-0.57
185.584	-0
185.962	1.65
186.34	-0.38
186.718	0.06
187.096	0.44
187.473	-0
187.851	-0.43
188.229	-0
188.607	0.13
188.984	0.04
189.362	0.07
189.74	0.05
190.117	0.01
190.495	0.1
190.872	0.15
191.25	0.08
191.627	0.03
192.005	0.07
192.382	0.12
192.76	0.1
193.137	0.15
193.515	0.08
193.892	0.18
194.269	0.05
194.647	0.14
195.024	0.06
195.401	0.18
195.779	0.13
196.156	0.13
196.533	0.24
196.91	0.01
197.288	0.16
197.665	0.12
198.042	0.18
198.419	0.12
198.796	0.32
199.173	0.15
199.55	0.32
199.927	0.14
200.304	0.07
200.681	0.11
201.058	0.11
201.435	0.14
201.812	0.1
202.189	0.05
202.566	0.1
202.943	0.07
203.32	0.15
203.697	0.07
204.073	0.17
204.45	0.11
204.827	0.14
205.204	0.12
205.58	0.16
205.957	0.11
206.334	0.17
206.71	0.13
207.087	0.18
207.464	0.05
207.84	0.16
208.217	0.04
208.593	0.08
208.97	0.2
209.346	0.05
209.723	0.17
210.099	0.16
210.476	0.12
210.852	0.05
211.228	0.15
211.605	0.09
211.981	0.18
212.357	0.04
212.733	0.16
213.11	0.1
213.486	0.11
213.862	0.16
214.238	0.03
214.614	0.18
214.991	0.17
215.367	0.1
215.743	0.01
216.119	0.08
216.495	0.12
216.871	0
217.247	0.14
217.623	0.02
217.999	0.02
218.375	0.11
218.751	-0.02
219.127	-0.01
219.502	0.16
219.878	0.17
220.254	0.06
220.63	0.11
221.006	0.05
221.381	0.09
221.757	0.15
222.133	0.08
222.508	0.14
222.884	0.11
223.26	0.2
223.635	0.08
224.011	0.06
224.386	0.09
224.762	0.1
225.137	0.09
225.513	0.08
225.888	0.05
226.264	0.05
226.639	0.04
227.014	0.09
227.39	0.04
227.765	0.04
228.14	0.21
228.516	0.13
228.891	0.07
229.266	0.18
229.641	0.15
230.017	0.18
230.392	0.16
230.767	0.16
231.142	0.16
231.517	0.14
231.892	0.07
232.267	0.1
232.642	0.19
233.017	-0
233.392	0.16
233.767	0.17
234.142	0.16
234.517	0.05
234.892	0.02
235.267	0.07
235.641	0.09
236.016	0.2
236.391	0.11
236.766	0.06
237.14	0.06
237.515	0.1
237.89	0.22
238.264	0.07
238.639	0.1
239.014	0.24
239.388	0.07
239.763	0.11
240.137	0.11
240.512	0.08
240.886	0.08
241.261	0.03
241.635	0.13
242.009	0.1
242.384	0.17
242.758	0.16
243.132	-0
243.507	0.16
243.881	0.17
244.255	0.15
244.629	0.16
245.004	0.11
245.378	0.14
245.752	0.07
246.126	0.06
246.5	0.14
246.874	0.22
247.248	0.08
247.622	0.07
247.996	0.11
248.37	0.06
248.744	0.15
249.118	0.13
249.492	0.11
249.866	0.06
250.24	0.13
250.613	0.16
250.987	0.13
251.361	0.08
251.735	0.12
252.108	0.09
252.482	0.16
252.856	0.16
253.229	0.06
253.603	0.08
253.977	0.14
254.35	0.2
254.724	0.16
255.097	0.12
255.471	0.1
255.844	0.07
256.218	0.15
256.591	0.16
256.964	0.1
257.338	0.12
257.711	0.12
258.084	0.09
258.458	0.15
258.831	0.13
259.204	-0
259.577	0.12
259.95	0.11
260.323	0.09
260.697	0.14
261.07	0.11
261.443	0.07
261.816	0.16
262.189	0.02
262.562	0.19
262.935	0.13
263.308	0.12
263.68	0.09
264.053	0.16
264.426	0.01
264.799	0.14
265.172	0.1
265.545	0.13
265.917	0.1
266.29	0.12
266.663	0.12
267.035	0.06
267.408	0.12
267.781	0.13
268.153	0.13
268.526	0.09
268.898	0.16
269.271	0.13
269.643	0.12
270.016	0.11
270.388	0.18
270.76	0.11
271.133	0.14
271.505	0.14
271.877	0.14
272.25	0.25
272.622	0.12
272.994	0.18
273.366	0.12
273.739	0.02
274.111	0.07
274.483	0.16
274.855	0.16
275.227	0.13
275.599	0.09
275.971	0.09
276.343	0.11
276.715	0.13
277.087	0.08
277.459	0.17
277.831	0.13
278.203	0.16
278.574	0.1
278.946	0.12
279.318	0.14
279.69	0.12
280.061	0.08
280.433	0.11
280.805	0.11
281.176	0.11
281.548	0.13
281.92	0.12
282.291	0.1
282.663	0.13
283.034	0.06
283.406	0.18
283.777	0.16
284.148	0.13
284.52	0.12
284.891	0.09
285.262	0.18
285.634	0.16
286.005	0.08
286.376	0.14
286.747	0.13
287.119	0.1
287.49	0.1
287.861	0.09
288.232	0.07
288.603	0.14
288.974	0.09
289.345	0.14
289.716	0.1
290.087	0.12
290.458	0.17
290.829	0.19
291.2	0.09
291.571	0.08
291.941	0.11
292.312	0.07
292.683	0.12
293.054	0.13
293.424	0.14
293.795	0.09
294.166	0.13
294.536	0.16
294.907	0.15
295.277	0.11
295.648	0.06
296.018	0.08
296.389	0.06
296.759	0.07
297.13	0.09
297.5	0.16
297.871	0.11
298.241	0.12
298.611	0.12
298.981	0.09
299.352	0.06
299.722	0.07
300.092	0.1
300.462	0.15
300.832	0.08
301.202	0.07
301.573	0.09
301.943	0.08
302.313	0.06
302.683	0.06
303.053	0.06
303.422	0.06
303.792	0.08
304.162	0.06
304.532	0.08
304.902	0.05
305.272	0.07
305.641	0.07
306.011	0.07
306.381	0.06
306.75	0.06
307.12	0.06
307.49	0.08
307.859	0.07
308.229	0.07
308.598	0.07
308.968	0.07
309.337	0.07
309.707	0.07
310.076	0.08
310.445	0.08
310.815	0.08
311.184	0.08
311.553	0.08
311.923	0.09
312.292	0.09
312.661	0.08
313.03	0.08
313.399	0.08
313.768	0.09
314.137	0.09
314.506	0.08
314.875	0.08
315.244	0.09
315.613	0.08
315.982	0.08
316.351	0.09
316.72	0.08
317.089	0.08
317.458	0.08
317.826	0.08
318.195	0.08
318.564	0.08
318.933	0.08
319.301	0.08
319.67	0.08
320.038	0.08
320.407	0.08
320.775	0.08
321.144	0.07
321.512	0.07
321.881	0.07
322.249	0.07
322.618	0.07
322.986	0.07
323.354	0.07
323.723	0.06
324.091	0.07
324.459	0.07
324.827	0.07
325.195	0.06
325.564	0.07
325.932	0.07
326.3	0.06
326.668	0.07
327.036	0.07
327.404	0.06
327.772	0.07
328.14	0.06
328.508	0.07
328.875	0.07
329.243	0.07
329.611	0.07
329.979	0.07
330.346	0.06
330.714	0.07
331.082	0.07
331.449	0.06
331.817	0.07
332.185	0.07
332.552	0.07
332.92	0.07
333.287	0.07
333.655	0.07
334.022	0.07
334.389	0.07
334.757	0.07
335.124	0.07
335.491	0.07
335.859	0.07
336.226	0.07
336.593	0.08
336.96	0.07
337.327	0.08
337.695	0.08
338.062	0.08
338.429	0.08
338.796	0.08
339.163	0.08
339.53	0.08
339.897	0.08
340.263	0.08
340.63	0.09
340.997	0.09
341.364	0.09
341.731	0.08
342.097	0.08
342.464	0.09
342.831	0.09
343.197	0.09
343.564	0.1
343.931	0.1
344.297	0.1
344.664	0.1
345.03	0.1
345.396	0.1
345.763	0.1
346.129	0.1
346.496	0.11
346.862	0.11
347.228	0.11
347.594	0.11
347.961	0.11
348.327	0.11
348.693	0.12
349.059	0.12
349.425	0.12
349.791	0.12
350.157	0.12
350.523	0.13
350.889	0.13
351.255	0.13
351.621	0.13
351.987	0.14
352.353	0.14
352.719	0.14
353.084	0.14
353.45	0.14
353.816	0.15
354.181	0.15
354.547	0.15
354.913	0.15
355.278	0.16
355.644	0.16
356.009	0.17
356.375	0.18
356.74	0.18
357.106	0.18
357.471	0.18
357.836	0.18
358.202	0.19
358.567	0.19
358.932	0.19
359.297	0.2
359.663	0.21
360.028	0.2
360.393	0.21
360.758	0.21
361.123	0.22
361.488	0.22
361.853	0.22
362.218	0.22
362.583	0.22
362.948	0.22
363.312	0.23
363.677	0.23
364.042	0.24
364.407	0.24
364.772	0.25
365.136	0.25
365.501	0.25
365.865	0.26
366.23	0.27
366.595	0.27
366.959	0.28
367.324	0.28
367.688	0.29
368.052	0.29
368.417	0.3
368.781	0.3
369.145	0.31
369.51	0.31
369.874	0.31
370.238	0.31
370.602	0.31
370.967	0.31
371.331	0.31
371.695	0.31
372.059	0.3
372.423	0.31
372.787	0.31
373.151	0.3
373.515	0.3
373.878	0.3
374.242	0.3
374.606	0.31
374.97	0.31
375.334	0.31
375.697	0.31
376.061	0.31
376.425	0.31
376.788	0.31
377.152	0.31
377.515	0.31
377.879	0.32
378.242	0.33
378.606	0.33
378.969	0.33
379.333	0.33
379.696	0.34
380.059	0.34
380.422	0.35
380.786	0.36
381.149	0.36
381.512	0.37
381.875	0.38
382.238	0.4
382.601	0.4
382.964	0.42
383.327	0.42
383.69	0.44
384.053	0.45
384.416	0.46
384.779	0.47
385.142	0.47
385.504	0.49
385.867	0.49
386.23	0.51
386.593	0.5
386.955	0.51
387.318	0.5
387.68	0.5
388.043	0.5
388.405	0.49
388.768	0.5
389.13	0.49
389.493	0.49
389.855	0.48
390.217	0.48
390.58	0.48
390.942	0.49
391.304	0.49
391.666	0.48
392.028	0.5
392.391	0.51
392.753	0.52
393.115	0.54
393.477	0.56
393.839	0.58
394.201	0.6
394.563	0.63
394.924	0.66
395.286	0.68
395.648	0.71
396.01	0.72
396.371	0.75
396.733	0.77
397.095	0.77
397.456	0.77
397.818	0.78
398.18	0.77
398.541	0.76
398.903	0.76
399.264	0.73
399.625	0.71
399.987	0.68
400.348	0.65
400.709	0.61
401.071	0.58
401.432	0.55
401.793	0.52
402.154	0.49
402.515	0.45
402.876	0.42
403.238	0.39
403.599	0.36
403.96	0.33
404.32	0.31
404.681	0.29
405.042	0.27
405.403	0.25
405.764	0.23
406.125	0.22
406.485	0.2
406.846	0.19
407.207	0.18
407.567	0.17
407.928	0.16
408.288	0.15
408.649	0.15
409.009	0.13
409.37	0.13
409.73	0.13
410.091	0.11
410.451	0.11
410.811	0.11
411.171	0.11
411.532	0.1
411.892	0.09
412.252	0.09
412.612	0.09
412.972	0.08
413.332	0.08
413.692	0.08
414.052	0.08
414.412	0.08
414.772	0.08
415.132	0.07
415.492	0.08
415.851	0.07
416.211	0.07
416.571	0.06
416.931	0.06
417.29	0.07
417.65	0.06
418.009	0.06
418.369	0.06
418.728	0.06
419.088	0.06
419.447	0.06
419.807	0.06
420.166	0.06
420.525	0.06
420.884	0.06
421.244	0.05
421.603	0.04
421.962	0.05
422.321	0.05
422.68	0.05
423.039	0.05
423.398	0.05
423.757	0.04
424.116	0.05
424.475	0.05
424.834	0.04
425.193	0.04
425.551	0.05
425.91	0.05
426.269	0.05
426.628	0.05
426.986	0.04
427.345	0.04
427.703	0.04
428.062	0.04
428.42	0.04
428.779	0.04
429.137	0.04
429.496	0.04
429.854	0.04
430.212	0.04
430.57	0.03
430.929	0.03
431.287	0.03
431.645	0.04
432.003	0.04
432.361	0.04
432.719	0.03
433.077	0.03
433.435	0.04
433.793	0.03
434.151	0.03
434.509	0.03
434.866	0.03
435.224	0.04
435.582	0.03
435.94	0.03
436.297	0.03
436.655	0.03
437.012	0.03
437.37	0.02
437.727	0.03
438.085	0.04
438.442	0.03
438.8	0.04
439.157	0.03
439.514	0.03
439.872	0.03
440.229	0.04
440.586	0.03
440.943	0.02
441.3	0.02
441.657	0.03
442.014	0.03
442.371	0.02
442.728	0.02
443.085	0.02
443.442	0.01
443.799	0.02
444.156	0.03
444.513	0.02
444.869	0.02
445.226	0.02
445.583	0.02
445.939	0.01
446.296	0.01
446.652	0.01
447.009	0.02
447.365	0.02
447.722	0.02
448.078	0.01
448.434	0.01
448.791	0.01
449.147	0.01
449.503	0.01
449.859	0.01
450.215	0.01
450.571	0
450.928	0.01
451.284	0
451.64	0
451.995	-0
452.351	-0.01
452.707	-0
453.063	-0.01
453.419	-0
453.775	-0.01
454.13	-0.01
454.486	-0.01
454.842	-0.02
455.197	-0.02
455.553	-0.03
455.908	-0.03
456.264	-0.03
456.619	-0.04
456.975	-0.04
457.33	-0.03
457.685	-0.04
458.04	-0.05
458.396	-0.05
458.751	-0.05
459.106	-0.06
459.461	-0.06
459.816	-0.07
460.171	-0.07
460.526	-0.08
460.881	-0.08
461.236	-0.09
461.591	-0.09
461.946	-0.1
462.301	-0.1
462.655	-0.1
463.01	-0.1
463.365	-0.1
463.719	-0.11
464.074	-0.12
464.428	-0.13
464.783	-0.13
465.137	-0.13
465.492	-0.13
465.846	-0.14
466.201	-0.13
466.555	-0.13
466.909	-0.13
467.263	-0.13
467.618	-0.13
467.972	-0.13
468.326	-0.13
468.68	-0.14
469.034	-0.14
469.388	-0.15
469.742	-0.15
470.096	-0.15
470.45	-0.14
470.804	-0.14
471.157	-0.15
471.511	-0.15
471.865	-0.15
472.218	-0.14
472.572	-0.14
472.926	-0.13
473.279	-0.14
473.633	-0.13
473.986	-0.12
474.34	-0.12
474.693	-0.11
475.046	-0.11
475.4	-0.1
475.753	-0.09
476.106	-0.09
476.459	-0.09
476.812	-0.08
477.165	-0.07
477.519	-0.06
477.872	-0.06
478.224	-0.06
478.577	-0.05
478.93	-0.06
479.283	-0.05
479.636	-0.05
479.989	-0.04
480.341	-0.04
480.694	-0.04
481.047	-0.04
481.399	-0.03
481.752	-0.03
482.104	-0.02
482.457	-0.02
482.809	-0.02
483.162	-0.02
483.514	-0.02
483.866	-0.01
484.219	-0.01
484.571	-0.01
484.923	-0.01
485.275	-0.01
485.627	-0.01
485.979	-0
486.331	-0
486.683	-0
487.035	0
487.387	0.01
487.739	0.01
488.091	0.02
488.443	0.02
488.794	0.01
489.146	0.01
489.498	0.02
489.849	0.01
490.201	0.02
490.552	0.02
490.904	0.02
491.255	0.02
491.607	0.01
491.958	0.02
492.309	0.02
492.661	0.02
493.012	0.02
493.363	0.02
493.714	0.03
494.065	0.02
494.416	0.03
494.767	0.03
495.118	0.03
495.469	0.03
495.82	0.03
496.171	0.03
496.522	0.03
496.872	0.03
497.223	0.03
497.574	0.03
497.924	0.03
498.275	0.04
498.626	0.04
498.976	0.04
499.327	0.04
499.677	0.04
500.027	0.05
500.378	0.05
500.728	0.05
501.078	0.05
501.428	0.04
501.779	0.05
502.129	0.05
502.479	0.05
502.829	0.05
503.179	0.05
503.529	0.05
503.879	0.06
504.229	0.05
504.578	0.06
504.928	0.06
505.278	0.06
505.628	0.06
505.977	0.06
506.327	0.06
506.676	0.05
507.026	0.06
507.375	0.06
507.725	0.07
508.074	0.06
508.424	0.06
508.773	0.06
509.122	0.07
509.471	0.06
509.82	0.07
510.17	0.06
510.519	0.07
510.868	0.07
511.217	0.07
511.566	0.07
511.915	0.07
512.263	0.07
512.612	0.07
512.961	0.07
513.31	0.08
513.659	0.08
514.007	0.07
514.356	0.07
514.704	0.08
515.053	0.08
515.401	0.08
515.75	0.08
516.098	0.08
516.447	0.08
516.795	0.08
517.143	0.09
517.491	0.09
517.839	0.09
518.188	0.09
518.536	0.08
518.884	0.09
519.232	0.09
519.58	0.09
519.928	0.09
520.275	0.09
520.623	0.09
520.971	0.09
521.319	0.09
521.666	0.09
522.014	0.09
522.362	0.09
522.709	0.09
523.057	0.1
523.404	0.09
523.752	0.1
524.099	0.09
524.446	0.1
524.794	0.1
525.141	0.1
525.488	0.1
525.835	0.1
526.182	0.1
526.529	0.1
526.876	0.11
527.223	0.1
527.57	0.1
527.917	0.11
528.264	0.11
528.611	0.11
528.958	0.11
529.304	0.11
529.651	0.11
529.998	0.11
530.344	0.11
530.691	0.11
531.037	0.11
531.384	0.11
531.73	0.12
532.076	0.11
532.423	0.11
532.769	0.12
533.115	0.12
533.461	0.12
533.807	0.12
534.154	0.12
534.5	0.12
534.846	0.12
535.192	0.12
535.537	0.12
535.883	0.13
536.229	0.13
536.575	0.12
536.921	0.13
537.266	0.13
537.612	0.13
537.957	0.13
538.303	0.12
538.649	0.13
538.994	0.13
539.339	0.14
539.685	0.13
540.03	0.13
540.375	0.14
540.721	0.14
541.066	0.14
541.411	0.14
541.756	0.14
542.101	0.14
542.446	0.14
542.791	0.14
543.136	0.14
543.481	0.15
543.825	0.15
544.17	0.15
544.515	0.15
544.86	0.15
545.204	0.15
545.549	0.15
545.893	0.15
546.238	0.15
546.582	0.15
546.927	0.15
547.271	0.16
547.615	0.16
547.96	0.16
548.304	0.16
548.648	0.16
548.992	0.16
549.336	0.16
549.68	0.16
550.024	0.16
550.368	0.16
550.712	0.16
551.056	0.16
551.4	0.16
551.743	0.16
552.087	0.17
552.431	0.17
552.774	0.17
553.118	0.17
553.462	0.17
553.805	0.17
554.148	0.17
554.492	0.18
554.835	0.17
555.178	0.17
555.522	0.17
555.865	0.18
556.208	0.18
556.551	0.17
556.894	0.18
557.237	0.18
557.58	0.18
557.923	0.18
558.266	0.18
558.609	0.18
558.952	0.18
559.294	0.18
559.637	0.18
559.98	0.18
560.322	0.18
560.665	0.18
561.007	0.18
561.35	0.18
561.692	0.18
562.034	0.18
562.377	0.19
562.719	0.18
563.061	0.19
563.403	0.19
563.745	0.19
564.088	0.19
564.43	0.18
564.772	0.18
565.113	0.19
565.455	0.19
565.797	0.19
566.139	0.19
566.481	0.19
566.822	0.2
567.164	0.19
567.506	0.19
567.847	0.19
568.189	0.19
568.53	0.19
568.872	0.19
569.213	0.2
569.554	0.2
569.895	0.19
570.237	0.19
570.578	0.2
570.919	0.2
571.26	0.19
571.601	0.19
571.942	0.19
572.283	0.19
572.624	0.19
572.965	0.19
573.306	0.19
573.646	0.19
573.987	0.19
574.328	0.19
574.668	0.2
575.009	0.19
575.349	0.19
575.69	0.19
576.03	0.19
576.37	0.19
576.711	0.19
577.051	0.19
577.391	0.19
577.731	0.2
578.072	0.19
578.412	0.19
578.752	0.19
579.092	0.19
579.431	0.19
579.771	0.19
580.111	0.18
580.451	0.18
580.791	0.19
581.13	0.2
581.47	0.2
581.81	0.19
582.149	0.19
582.489	0.2
582.828	0.19
583.167	0.19
583.507	0.17
583.846	0.15
584.185	0.17
584.525	0.18
584.864	0.19
585.203	0.2
585.542	0.2
585.881	0.2
586.22	0.2
586.559	0.2
586.898	0.2
587.236	0.2
587.575	0.2
587.914	0.2
588.252	0.2
588.591	0.2
588.93	0.21
589.268	0.2
589.607	0.21
589.945	0.21
590.283	0.21
590.622	0.21
590.96	0.21
591.298	0.21
591.636	0.21
591.974	0.22
592.313	0.22
592.651	0.22
592.989	0.22
593.326	0.22
593.664	0.22
594.002	0.23
594.34	0.22
594.678	0.22
595.015	0.22
595.353	0.22
595.691	0.22
596.028	0.22
596.366	0.23
596.703	0.23
597.04	0.23
597.378	0.23
597.715	0.23
598.052	0.23
598.389	0.23
598.726	0.23
599.064	0.24
599.401	0.24
599.738	0.23
600.074	0.23
600.411	0.23
600.748	0.23
601.085	0.23
601.422	0.23
601.758	0.23
602.095	0.23
602.432	0.23
602.768	0.23
603.105	0.24
603.441	0.24
603.777	0.24
604.114	0.24
604.45	0.24
604.786	0.24
605.122	0.25
605.459	0.24
605.795	0.24
606.131	0.24
606.467	0.24
606.803	0.24
607.139	0.24
607.474	0.24
607.81	0.24
608.146	0.24
608.482	0.24
608.817	0.23
609.153	0.24
609.488	0.23
609.824	0.23
610.159	0.23
610.495	0.23
610.83	0.23
611.165	0.24
611.5	0.23
611.836	0.23
612.171	0.23
612.506	0.23
612.841	0.23
613.176	0.23
613.511	0.23
613.845	0.23
614.18	0.23
614.515	0.23
614.85	0.23
615.184	0.23
615.519	0.23
615.854	0.23
616.188	0.23
616.523	0.23
616.857	0.22
617.191	0.22
617.526	0.22
617.86	0.22
618.194	0.22
618.528	0.23
618.862	0.22
619.196	0.22
619.53	0.22
619.864	0.22
620.198	0.22
620.532	0.22
620.866	0.22
621.2	0.21
621.533	0.21
621.867	0.22
622.201	0.22
622.534	0.22
622.868	0.22
623.201	0.22
623.534	0.22
623.868	0.21
624.201	0.22
624.534	0.21
624.868	0.21
625.201	0.21
625.534	0.21
625.867	0.21
626.2	0.21
626.533	0.2
626.865	0.21
627.198	0.21
627.531	0.21
627.864	0.2
628.196	0.2
628.529	0.2
628.862	0.2
629.194	0.2
629.527	0.2
629.859	0.2
630.191	0.2
630.524	0.2
630.856	0.19
631.188	0.19
631.52	0.19
631.852	0.19
632.184	0.19
632.516	0.19
632.848	0.18
633.18	0.18
633.512	0.19
633.844	0.18
634.175	0.19
634.507	0.18
634.839	0.18
635.17	0.18
635.502	0.18
635.833	0.17
636.165	0.17
636.496	0.17
636.827	0.17
637.159	0.17
637.49	0.17
637.821	0.17
638.152	0.17
638.483	0.17
638.814	0.16
639.145	0.17
639.476	0.16
639.807	0.16
640.137	0.16
640.468	0.16
640.799	0.16
641.129	0.15
641.46	0.15
641.791	0.15
642.121	0.15
642.451	0.15
642.782	0.15
643.112	0.15
643.442	0.15
643.773	0.15
644.103	0.15
644.433	0.15
644.763	0.14
645.093	0.15
645.423	0.14
645.753	0.14
646.082	0.14
646.412	0.14
646.742	0.14
647.072	0.13
647.401	0.14
647.731	0.14
648.06	0.14
648.39	0.14
648.719	0.14
649.048	0.14
649.378	0.14
649.707	0.14
650.036	0.14
650.365	0.14
650.694	0.14
651.023	0.14
651.352	0.13
651.681	0.14
652.01	0.14
652.339	0.14
652.668	0.14
652.996	0.14
653.325	0.14
653.654	0.14
653.982	0.14
654.311	0.14
654.639	0.14
654.967	0.14
655.296	0.14
655.624	0.13
655.952	0.14
656.28	0.13
656.609	0.13
656.937	0.13
657.265	0.13
657.593	0.12
657.92	0.01
658.248	0
658.576	0
658.904	0.02
659.231	0.1
659.559	0.13
659.887	0.13
660.214	0.14
660.542	0.13
660.869	0.13
661.196	0.13
661.524	0.13
661.851	0.13
662.178	0.13
662.505	0.13
662.832	0.13
663.159	0.13
663.486	0.13
663.813	0.14
664.14	0.13
664.467	0.13
664.794	0.13
665.12	0.13
665.447	0.13
665.774	0.13
666.1	0.13
666.427	0.13
666.753	0.13
667.079	0.13
667.406	0.12
667.732	0.12
668.058	0.12
668.384	0.12
668.71	0.13
669.036	0.12
669.362	0.12
669.688	0.13
670.014	0.12
670.34	0.12
670.666	0.13
670.991	0.12
671.317	0.12
671.643	0.12
671.968	0.12
672.294	0.12
672.619	0.12
672.945	0.12
673.27	0.12
673.595	0.12
673.92	0.12
674.246	0.11
674.571	0.11
674.896	0.11
675.221	0.11
675.546	0.11
675.87	0.11
676.195	0.11
676.52	0.11
676.845	0.11
677.169	0.11
677.494	0.11
677.819	0.11
678.143	0.11
678.468	0.11
678.792	0.11
679.116	0.11
679.44	0.11
679.765	0.1
680.089	0.1
680.413	0.1
680.737	0.1
681.061	0.09
681.385	0.1
681.709	0.1
682.033	0.1
682.356	0.1
682.68	0.1
683.004	0.1
683.327	0.1
683.651	0.09
683.974	0.1
684.298	0.09
684.621	0.09
684.944	0.09
685.268	0.09
685.591	0.09
685.914	0.08
686.237	0.09
686.56	0.08
686.883	0.09
687.206	0.08
687.529	0.08
687.852	0.08
688.175	0.08
688.497	0.08
688.82	0.08
689.142	0.08
689.465	0.08
689.787	0.08
690.11	0.08
690.432	0.08
690.755	0.08
691.077	0.08
691.399	0.07
691.721	0.08
692.043	0.08
692.365	0.08
692.687	0.07
693.009	0.07
693.331	0.07
693.653	0.07
693.974	0.07
694.296	0.07
694.618	0.07
694.939	0.07
695.261	0.07
695.582	0.07
695.904	0.06
696.225	0.07
696.546	0.07
696.868	0.07
697.189	0.06
697.51	0.06
697.831	0.06
698.152	0.06
698.473	0.07
698.794	0.06
699.114	0.06
699.435	0.06
699.756	0.06
700.077	0.06
700.397	0.06
700.718	0.06
701.038	0.06
701.359	0.06
701.679	0.06
701.999	0.06
702.32	0.06
702.64	0.06
702.96	0.06
703.28	0.06
703.6	0.06
703.92	0.06
704.24	0.06
704.56	0.06
704.879	0.06
705.199	0.06
705.519	0.06
705.838	0.06
706.158	0.06
706.478	0.05
706.797	0.05
707.116	0.05
707.436	0.05
707.755	0.05
708.074	0.05
708.393	0.05
708.712	0.05
709.031	0.05
709.35	0.05
709.669	0.05
709.988	0.05
710.307	0.05
710.626	0.05
710.944	0.05
711.263	0.05
711.582	0.05
711.9	0.05
712.219	0.05
712.537	0.05
712.855	0.05
713.174	0.05
713.492	0.05
713.81	0.05
714.128	0.05
714.446	0.05
714.764	0.05
715.082	0.05
715.4	0.05
715.718	0.05
716.035	0.05
716.353	0.05
716.671	0.05
716.988	0.05
717.306	0.05
717.623	0.05
717.941	0.05
718.258	0.05
718.575	0.05
718.893	0.05
719.21	0.05
719.527	0.05
719.844	0.05
720.161	0.05
720.478	0.05
720.795	0.05
721.112	0.05
721.428	0.05
721.745	0.05
722.062	0.05
722.378	0.05
722.695	0.05
723.011	0.05
723.328	0.05
723.644	0.05
723.96	0.06
724.276	0.06
724.593	0.06
724.909	0.06
725.225	0.06
725.541	0.06
725.857	0.06
726.173	0.06
726.488	0.06
726.804	0.06
727.12	0.06
727.435	0.06
727.751	0.06
728.067	0.06
728.382	0.06
728.697	0.06
729.013	0.06
729.328	0.06
729.643	0.06
729.958	0.06
730.273	0.06
730.588	0.06
730.903	0.06
731.218	0.06
731.533	0.06
731.848	0.06
732.163	0.06
732.477	0.06
732.792	0.06
733.107	0.06
733.421	0.06
733.736	0.06
734.05	0.06
734.364	0.06
734.678	0.06
734.993	0.06
735.307	0.06
735.621	0.06
735.935	0.06
736.249	0.05
736.563	0.06
736.877	0.06
737.19	0.06
737.504	0.06
737.818	0.06
738.131	0.06
738.445	0.06
738.758	0.06
739.072	0.06
739.385	0.06
739.698	0.06
740.012	0.06
740.325	0.06
740.638	0.06
740.951	0.06
741.264	0.05
741.577	0.06
741.89	0.05
742.203	0.05
742.515	0.05
742.828	0.06
743.141	0.05
743.453	0.05
743.766	0.05
744.078	0.05
744.391	0.05
744.703	0.05
745.015	0.05
745.327	0.05
745.639	0.05
745.952	0.06
746.264	0.05
746.575	0.05
746.887	0.05
747.199	0.05
747.511	0.05
747.823	0.05
748.134	0.05
748.446	0.05
748.757	0.05
749.069	0.05
749.38	0.05
749.692	0.05
750.003	0.05
750.314	0.05
750.625	0.05
750.936	0.05
751.248	0.05
751.559	0.05
751.869	0.05
752.18	0.05
752.491	0.05
752.802	0.05
753.112	0.04
753.423	0.04
753.734	0.04
754.044	0.04
754.355	0.04
754.665	0.04
754.975	0.04
755.285	0.04
755.596	0.04
755.906	0.04
756.216	0.04
756.526	0.04
756.836	0.04
757.146	0.04
757.455	0.04
757.765	0.04
758.075	0.04
758.385	0.04
758.694	0.04
759.004	0.04
759.313	0.04
759.622	0.04
759.932	0.04
760.241	0.04
760.55	0.03
760.859	0.03
761.168	0.03
761.477	0.03
761.786	0.03
762.095	0.03
762.404	0.02
762.713	0.03
763.021	0.03
763.33	0.03
763.639	0.03
763.947	0.03
764.256	0.03
764.564	0.03
764.872	0.03
765.181	0.03
765.489	0.03
765.797	0.03
766.105	0.03
766.413	0.03
766.721	0.03
767.029	0.03
767.337	0.02
767.644	0.02
767.952	0.02
768.26	0.02
768.567	0.03
768.875	0.03
769.182	0.03
769.49	0.02
769.797	0.03
770.104	0.03
770.411	0.03
770.718	0.03
771.026	0.03
771.333	0.03
771.639	0.03
771.946	0.03
772.253	0.03
772.56	0.02
772.867	0.02
773.173	0.02
773.48	0.02
773.786	0.02
774.093	0.02
774.399	0.02
774.705	0.02
775.012	0.02
775.318	0.02
775.624	0.02
775.93	0.02
776.236	0.03
776.542	0.02
776.848	0.02
777.154	0.02
777.459	0.03
777.765	0.03
778.071	0.03
778.376	0.03
778.682	0.03
778.987	0.03
779.292	0.03
779.598	0.03
779.903	0.03
780.208	0.02
780.513	0.02
780.818	0.02
781.123	0.02
781.428	0.02
781.733	0.02
782.038	0.02
782.343	0.02
782.647	0.03
782.952	0.02
783.256	0.02
783.561	0.03
783.865	0.02
784.17	0.03
784.474	0.03
784.778	0.02
785.082	0.03
785.386	0.03
785.69	0.03
785.994	0.03
786.298	0.03
786.602	0.03
786.906	0.03
787.209	0.03
787.513	0.03
787.817	0.03
788.12	0.03
788.424	0.03
788.727	0.03
789.03	0.03
789.333	0.02
789.637	0.02
789.94	0.02
790.243	0.02
790.546	0.02
790.849	0.02
791.152	0.01
791.454	0.01
791.757	0.02
792.06	0.01
792.362	0.01
792.665	0.01
792.967	0.01
793.27	0.01
793.572	0.01
793.874	0.01
794.177	0.02
794.479	0.01
794.781	0.02
795.083	0.02
795.385	0.02
795.687	0.02
795.989	0.02
796.29	0.02
796.592	0.02
796.894	0.02
797.195	0.02
797.497	0.02
797.798	0.02
798.1	0.02
798.401	0.02
798.702	0.02
799.003	0.01
799.304	0.02
799.605	0.01
799.906	0.02
800.207	0.01
800.508	0.01
800.809	0.01
801.11	0.01
801.41	0.01
801.711	0.01
802.011	0.01
802.312	0.02
802.612	0.01
802.913	0.01
803.213	0.02
803.513	0.01
803.813	0.01
804.113	0.01
804.413	0.01
804.713	0.01
805.013	0.01
805.313	0.02
805.613	0.01
805.912	0.01
806.212	0.01
806.511	0.01
806.811	0.01
807.11	0.01
807.41	0.02
807.709	0.02
808.008	0.02
808.307	0.02
808.606	0.02
808.905	0.02
809.204	0.01
809.503	0.02
809.802	0.02
810.101	0.01
810.399	0.01
810.698	0.01
810.997	0.02
811.295	0.02
811.593	0.02
811.892	0.02
812.19	0.02
812.488	0.02
812.786	0.02
813.084	0.02
813.383	0.02
813.68	0.02
813.978	0.02
814.276	0.01
814.574	0.01
814.872	0.01
815.169	0
815.467	0.01
815.764	0.01
816.062	0.01
816.359	0.01
816.656	0
816.954	0.01
817.251	0.01
817.548	0.01
817.845	0.01
818.142	0.01
818.439	0.01
818.735	0.01
819.032	0.01
819.329	0.01
819.626	0.01
819.922	0.01
820.219	0.02
820.515	0.02
820.811	0.01
821.108	0.01
821.404	0.01
821.7	0
821.996	0.01
822.292	0.01
822.588	0.01
822.884	0.01
823.18	0.01
823.475	0.01
823.771	0.01
824.067	0
824.362	0.01
824.658	0.01
824.953	0.01
825.249	0.01
825.544	0.01
825.839	0.01
826.134	0.01
826.429	0.01
826.724	0.01
827.019	0.01
827.314	0
827.609	0.01
827.904	0.01
828.198	0.01
828.493	0
828.787	0.01
829.082	0.01
829.376	0.01
829.671	0.01
829.965	0
830.259	0.01
830.553	-0
830.847	0
831.141	0
831.435	0
831.729	-0
832.023	0
832.317	0.01
832.61	0
832.904	0.01
833.197	0.01
833.491	-0
833.784	0
834.077	0
834.371	0.02
834.664	0.01
834.957	0.01
835.25	0.01
835.543	0.01
835.836	0.01
836.129	0.01
836.421	0.01
836.714	0.01
837.007	0.01
837.299	0.01
837.592	0.01
837.884	0
838.177	-0
838.469	0
838.761	-0
839.053	-0.01
839.345	0.01
839.637	0
839.929	-0.01
840.221	0.02
840.513	0.01
840.805	0.01
841.096	0.01
841.388	0
841.68	0
841.971	0.01
842.262	0
842.554	0.01
842.845	0.01
843.136	0.01
843.427	0.01
843.718	-0
844.009	0
844.3	0.01
844.591	0
844.882	0
845.173	0
845.463	0
845.754	0
846.044	0.01
846.335	-0
846.625	-0
846.915	0
847.206	0
847.496	0
847.786	0
848.076	-0
848.366	-0
848.656	-0.01
848.945	-0.01
849.235	-0
849.525	-0
849.814	0.01
850.104	0
850.393	0
850.683	0.01
850.972	0.01
851.261	0.01
851.551	0.01
851.84	0.02
852.129	0.01
852.418	0
852.707	0.01
852.995	0
853.284	0.02
853.573	0.01
853.862	0
854.15	0.01
854.439	-0.01
854.727	-0.01
855.015	-0
855.304	-0
855.592	-0.01
855.88	-0.01
856.168	-0.01
856.456	-0.01
856.744	-0.01
857.032	-0.04
857.32	-0.03
857.607	0
857.895	-0.02
858.183	0
858.47	-0.01
858.757	-0.01
859.045	-0
859.332	-0
859.619	0.02
859.907	-0
860.194	-0.01
860.481	-0.01
860.768	-0.01
861.054	-0.01
861.341	-0.01
861.628	0
861.915	-0.03
862.201	-0.02
862.488	-0.03
862.774	-0
863.061	0
863.347	-0.01
863.633	-0.03
863.919	-0.03
864.205	-0.03
864.491	-0.02
864.777	0.01
865.063	-0
865.349	-0
865.635	-0.02
865.92	0.02
866.206	-0.02
866.492	-0
866.777	-0.05
867.062	-0.05
867.348	-0.04
867.633	0.01
867.918	0.01
868.203	0.03
868.488	-0.01
868.773	-0.01
869.058	-0.08
869.343	-0.01
869.628	-0
869.912	0.01
870.197	-0.01
870.482	-0.06
870.766	-0.02
871.05	0.02
871.335	0
871.619	0.01
871.903	-0
872.187	-0
872.471	-0.03
872.755	-0.07
873.039	-0.05
873.323	-0.06
873.607	-0.04
873.89	-0.05
874.174	-0.03
874.458	-0.05
874.741	-0
875.024	0.01
875.308	0
875.591	-0.08
875.874	0.03
876.157	-0.06
876.44	0.04
876.723	0.08
877.006	0.05
877.289	-0.06
877.572	0.01
877.854	-0.01
878.137	0.08
878.42	0.08
878.702	0.01
878.984	-0.02
879.267	-0.05
879.549	-0.03
879.831	-0.05
880.113	-0.06
880.395	0.01
880.677	-0.12
880.959	0
