Data from Rubpy_EV_900_EDTA_Buffered_Absorbance_13-37-08-718.txt Node
Date: Tue Jun 30 13:37:08 BST 2026
User: fpm-admin
Spectrometer: OFX00224
Trigger mode: 0
Integration Time (sec): 7.000000E-2
Scans to average: 3
Nonlinearity correction enabled: false
Boxcar width: 0
Storing dark spectrum: false
XAxis mode: Wavelengths
Number of Pixels in Spectrum: 2136
>>>>>Begin Spectral Data<<<<<
154.91	-0
155.289	-1.69
155.669	-0
156.048	-0.72
156.428	-0.36
156.807	-0
157.186	-0.27
157.566	-0
157.945	-0
158.325	-0.54
158.704	-0
159.083	0.23
159.462	-0
159.842	0.76
160.221	0.12
160.6	0.55
160.979	-0.24
161.359	0.22
161.738	0.6
162.117	0.03
162.496	-0
162.875	-0
163.254	-0.08
163.633	0.73
164.012	-1.58
164.391	0.05
164.77	-0.37
165.149	-0.16
165.528	-0.03
165.907	-0
166.286	-0
166.665	-0.65
167.044	-0
167.423	0.76
167.802	0.18
168.181	-0
168.559	-0
168.938	-0
169.317	0.22
169.696	-0
170.074	-0.1
170.453	0.8
170.832	-0
171.21	0.1
171.589	-0
171.968	-0
172.346	-0.3
172.725	-0
173.103	-0
173.482	-0
173.861	-0
174.239	0.35
174.617	-0
174.996	-0.12
175.374	0.3
175.753	-0.09
176.131	-0
176.51	-0.54
176.888	-0.07
177.266	1.01
177.645	0
178.023	0.4
178.401	-0.05
178.779	0.19
179.158	-0
179.536	0.09
179.914	0.01
180.292	-0.12
180.67	0.06
181.048	-0
181.427	-0
181.805	-0.28
182.183	-0
182.561	-0
182.939	-0.42
183.317	-0.23
183.695	0.27
184.073	-0.22
184.451	-0
184.829	-0.01
185.206	0.19
185.584	-0
185.962	0.31
186.34	-0.04
186.718	-0
187.096	0.1
187.473	0.04
187.851	0.06
188.229	-0
188.607	-0
188.984	0.11
189.362	0.09
189.74	-0.01
190.117	-0.01
190.495	0.11
190.872	0.05
191.25	0.1
191.627	-0
192.005	0
192.382	0.17
192.76	0.12
193.137	-0.03
193.515	-0.03
193.892	0.11
194.269	0.05
194.647	0.11
195.024	-0.03
195.401	0.11
195.779	-0
196.156	0.06
196.533	0.11
196.91	0.05
197.288	0.11
197.665	0.03
198.042	-0.02
198.419	0.01
198.796	0.03
199.173	0.13
199.55	0.17
199.927	-0.02
200.304	0.08
200.681	0.06
201.058	0.06
201.435	0.25
201.812	0.09
202.189	0.11
202.566	0.19
202.943	-0.01
203.32	0.03
203.697	-0
204.073	0.1
204.45	0.12
204.827	0.07
205.204	0.06
205.58	0.09
205.957	0.14
206.334	0.07
206.71	0.04
207.087	0.01
207.464	0.07
207.84	-0.01
208.217	-0.01
208.593	0.09
208.97	0.13
209.346	0.07
209.723	0.11
210.099	0.1
210.476	0
210.852	0.05
211.228	0.1
211.605	0.08
211.981	0.15
212.357	0.1
212.733	0.07
213.11	0.12
213.486	-0.03
213.862	0.09
214.238	0.01
214.614	0.01
214.991	0.19
215.367	-0.01
215.743	0.01
216.119	0.02
216.495	-0.02
216.871	0.03
217.247	0.14
217.623	0.15
217.999	-0.04
218.375	0.01
218.751	-0.05
219.127	0.06
219.502	0.11
219.878	0.02
220.254	0.05
220.63	0.02
221.006	0.14
221.381	0.12
221.757	0.13
222.133	0.05
222.508	0.12
222.884	0.11
223.26	0.19
223.635	0.16
224.011	0.04
224.386	-0.02
224.762	0.13
225.137	0.03
225.513	0.01
225.888	0.01
226.264	0.05
226.639	0.04
227.014	0.02
227.39	0.07
227.765	-0.01
228.14	0.16
228.516	0.03
228.891	0.13
229.266	0.14
229.641	0.06
230.017	0.05
230.392	0.01
230.767	0.06
231.142	0.11
231.517	0.09
231.892	-0.02
232.267	-0
232.642	0.03
233.017	0.03
233.392	0.07
233.767	0.04
234.142	0.06
234.517	0.1
234.892	0.03
235.267	0.12
235.641	0.03
236.016	0.17
236.391	0.09
236.766	0.06
237.14	0.01
237.515	0.02
237.89	0.14
238.264	0.04
238.639	0.12
239.014	0.05
239.388	0.01
239.763	0.08
240.137	0.14
240.512	0.04
240.886	0.04
241.261	0.06
241.635	0.15
242.009	0.01
242.384	0.03
242.758	0.05
243.132	-0
243.507	0.11
243.881	0.1
244.255	0.19
244.629	0.08
245.004	0.05
245.378	0.04
245.752	0.06
246.126	0.04
246.5	0.02
246.874	0.11
247.248	0.12
247.622	0.05
247.996	0.03
248.37	0.04
248.744	0.08
249.118	0.11
249.492	0.12
249.866	0.04
250.24	0.03
250.613	0.07
250.987	0.09
251.361	0.07
251.735	-0.01
252.108	0.04
252.482	0.1
252.856	0.01
253.229	0.08
253.603	0.08
253.977	0.12
254.35	0
254.724	0.07
255.097	0.06
255.471	0.15
255.844	0.04
256.218	0.09
256.591	0.09
256.964	0.04
257.338	0.15
257.711	-0.03
258.084	0.01
258.458	0.09
258.831	0.14
259.204	0.1
259.577	0.05
259.95	0.12
260.323	0.05
260.697	0.01
261.07	0.09
261.443	0.12
261.816	0.07
262.189	-0.03
262.562	0.05
262.935	0.05
263.308	0.08
263.68	0.04
264.053	0.09
264.426	0.06
264.799	0.09
265.172	0.09
265.545	0.05
265.917	0.14
266.29	0.09
266.663	0.05
267.035	0.04
267.408	0.13
267.781	0.09
268.153	0.08
268.526	0.1
268.898	0.05
269.271	0.05
269.643	0.04
270.016	0.02
270.388	0.04
270.76	0.05
271.133	0.07
271.505	0.06
271.877	0.04
272.25	0.09
272.622	0.07
272.994	0.08
273.366	0.06
273.739	-0.01
274.111	0.02
274.483	0.07
274.855	0.12
275.227	0.08
275.599	0.07
275.971	0.02
276.343	0.14
276.715	0.02
277.087	0.08
277.459	0.07
277.831	0.06
278.203	0.13
278.574	0.04
278.946	0.07
279.318	0.12
279.69	0.03
280.061	-0.06
280.433	0.04
280.805	0.16
281.176	0.06
281.548	0.12
281.92	0.1
282.291	0.05
282.663	0.05
283.034	0.09
283.406	0.07
283.777	0.07
284.148	0.09
284.52	0.03
284.891	0.08
285.262	0.07
285.634	0.12
286.005	0.06
286.376	0.07
286.747	0.09
287.119	0.02
287.49	0.05
287.861	0.08
288.232	0.05
288.603	0.14
288.974	0.12
289.345	0.12
289.716	0.08
290.087	0.06
290.458	0.1
290.829	0.06
291.2	0.07
291.571	0.06
291.941	0.02
292.312	0.1
292.683	0.06
293.054	0.1
293.424	0.1
293.795	0.07
294.166	0.08
294.536	0.07
294.907	0.09
295.277	0.07
295.648	0.03
296.018	0.11
296.389	0.06
296.759	0.01
297.13	0.05
297.5	0.08
297.871	0.03
298.241	0.1
298.611	0.07
298.981	0.05
299.352	0.02
299.722	0.06
300.092	0.05
300.462	0.09
300.832	0.06
301.202	0.04
301.573	0.04
301.943	0.06
302.313	0.04
302.683	0.04
303.053	0.04
303.422	0.06
303.792	0.03
304.162	0.05
304.532	0.06
304.902	0.03
305.272	0.04
305.641	0.04
306.011	0.04
306.381	0.02
306.75	0.04
307.12	0.04
307.49	0.04
307.859	0.05
308.229	0.04
308.598	0.04
308.968	0.05
309.337	0.05
309.707	0.06
310.076	0.05
310.445	0.05
310.815	0.05
311.184	0.05
311.553	0.06
311.923	0.06
312.292	0.05
312.661	0.05
313.03	0.05
313.399	0.05
313.768	0.06
314.137	0.06
314.506	0.06
314.875	0.05
315.244	0.05
315.613	0.05
315.982	0.05
316.351	0.06
316.72	0.05
317.089	0.05
317.458	0.05
317.826	0.05
318.195	0.05
318.564	0.05
318.933	0.05
319.301	0.05
319.67	0.05
320.038	0.05
320.407	0.05
320.775	0.06
321.144	0.05
321.512	0.04
321.881	0.04
322.249	0.04
322.618	0.04
322.986	0.05
323.354	0.05
323.723	0.05
324.091	0.05
324.459	0.05
324.827	0.05
325.195	0.04
325.564	0.04
325.932	0.05
326.3	0.04
326.668	0.04
327.036	0.04
327.404	0.04
327.772	0.04
328.14	0.04
328.508	0.04
328.875	0.04
329.243	0.04
329.611	0.05
329.979	0.05
330.346	0.04
330.714	0.04
331.082	0.04
331.449	0.04
331.817	0.04
332.185	0.04
332.552	0.04
332.92	0.04
333.287	0.05
333.655	0.05
334.022	0.05
334.389	0.04
334.757	0.04
335.124	0.05
335.491	0.04
335.859	0.04
336.226	0.05
336.593	0.05
336.96	0.04
337.327	0.05
337.695	0.05
338.062	0.05
338.429	0.05
338.796	0.05
339.163	0.05
339.53	0.05
339.897	0.05
340.263	0.05
340.63	0.05
340.997	0.05
341.364	0.05
341.731	0.05
342.097	0.05
342.464	0.06
342.831	0.05
343.197	0.06
343.564	0.06
343.931	0.06
344.297	0.06
344.664	0.06
345.03	0.06
345.396	0.06
345.763	0.07
346.129	0.06
346.496	0.06
346.862	0.07
347.228	0.07
347.594	0.07
347.961	0.07
348.327	0.07
348.693	0.07
349.059	0.07
349.425	0.07
349.791	0.07
350.157	0.08
350.523	0.08
350.889	0.08
351.255	0.08
351.621	0.08
351.987	0.08
352.353	0.09
352.719	0.08
353.084	0.09
353.45	0.09
353.816	0.09
354.181	0.09
354.547	0.09
354.913	0.09
355.278	0.1
355.644	0.1
356.009	0.1
356.375	0.11
356.74	0.11
357.106	0.11
357.471	0.11
357.836	0.11
358.202	0.12
358.567	0.12
358.932	0.12
359.297	0.12
359.663	0.13
360.028	0.12
360.393	0.13
360.758	0.13
361.123	0.13
361.488	0.14
361.853	0.14
362.218	0.13
362.583	0.13
362.948	0.14
363.312	0.14
363.677	0.14
364.042	0.15
364.407	0.15
364.772	0.15
365.136	0.15
365.501	0.16
365.865	0.16
366.23	0.16
366.595	0.16
366.959	0.17
367.324	0.17
367.688	0.17
368.052	0.18
368.417	0.18
368.781	0.18
369.145	0.19
369.51	0.18
369.874	0.19
370.238	0.19
370.602	0.19
370.967	0.19
371.331	0.18
371.695	0.19
372.059	0.19
372.423	0.19
372.787	0.19
373.151	0.18
373.515	0.18
373.878	0.18
374.242	0.19
374.606	0.18
374.97	0.19
375.334	0.19
375.697	0.19
376.061	0.18
376.425	0.19
376.788	0.19
377.152	0.19
377.515	0.2
377.879	0.19
378.242	0.2
378.606	0.21
378.969	0.2
379.333	0.2
379.696	0.21
380.059	0.2
380.422	0.21
380.786	0.22
381.149	0.22
381.512	0.23
381.875	0.23
382.238	0.24
382.601	0.24
382.964	0.25
383.327	0.26
383.69	0.27
384.053	0.28
384.416	0.28
384.779	0.29
385.142	0.29
385.504	0.3
385.867	0.3
386.23	0.31
386.593	0.31
386.955	0.31
387.318	0.31
387.68	0.31
388.043	0.3
388.405	0.3
388.768	0.31
389.13	0.3
389.493	0.3
389.855	0.29
390.217	0.29
390.58	0.29
390.942	0.3
391.304	0.3
391.666	0.3
392.028	0.31
392.391	0.31
392.753	0.32
393.115	0.33
393.477	0.34
393.839	0.36
394.201	0.37
394.563	0.39
394.924	0.4
395.286	0.42
395.648	0.43
396.01	0.45
396.371	0.46
396.733	0.47
397.095	0.48
397.456	0.48
397.818	0.49
398.18	0.48
398.541	0.48
398.903	0.46
399.264	0.45
399.625	0.44
399.987	0.42
400.348	0.4
400.709	0.38
401.071	0.36
401.432	0.34
401.793	0.32
402.154	0.3
402.515	0.28
402.876	0.26
403.238	0.24
403.599	0.22
403.96	0.21
404.32	0.19
404.681	0.18
405.042	0.17
405.403	0.15
405.764	0.14
406.125	0.14
406.485	0.13
406.846	0.12
407.207	0.11
407.567	0.11
407.928	0.1
408.288	0.1
408.649	0.09
409.009	0.09
409.37	0.08
409.73	0.08
410.091	0.08
410.451	0.07
410.811	0.07
411.171	0.07
411.532	0.06
411.892	0.05
412.252	0.06
412.612	0.06
412.972	0.06
413.332	0.06
413.692	0.05
414.052	0.05
414.412	0.05
414.772	0.05
415.132	0.05
415.492	0.05
415.851	0.04
416.211	0.05
416.571	0.04
416.931	0.04
417.29	0.04
417.65	0.04
418.009	0.04
418.369	0.03
418.728	0.04
419.088	0.03
419.447	0.04
419.807	0.04
420.166	0.04
420.525	0.03
420.884	0.04
421.244	0.03
421.603	0.02
421.962	0.04
422.321	0.03
422.68	0.03
423.039	0.04
423.398	0.03
423.757	0.03
424.116	0.03
424.475	0.03
424.834	0.03
425.193	0.03
425.551	0.02
425.91	0.03
426.269	0.02
426.628	0.02
426.986	0.03
427.345	0.02
427.703	0.03
428.062	0.02
428.42	0.03
428.779	0.03
429.137	0.02
429.496	0.03
429.854	0.03
430.212	0.03
430.57	0.02
430.929	0.02
431.287	0.02
431.645	0.02
432.003	0.02
432.361	0.03
432.719	0.02
433.077	0.02
433.435	0.02
433.793	0.02
434.151	0.02
434.509	0.02
434.866	0.02
435.224	0.03
435.582	0.02
435.94	0.02
436.297	0.03
436.655	0.02
437.012	0.02
437.37	0.01
437.727	0.02
438.085	0.02
438.442	0.02
438.8	0.03
439.157	0.02
439.514	0.02
439.872	0.02
440.229	0.02
440.586	0.03
440.943	0.02
441.3	0.02
441.657	0.02
442.014	0.02
442.371	0.02
442.728	0.02
443.085	0.01
443.442	0
443.799	0.01
444.156	0.01
444.513	0.01
444.869	0.01
445.226	0.01
445.583	0.01
445.939	0.01
446.296	0.01
446.652	0
447.009	0.02
447.365	0.01
447.722	0.01
448.078	0
448.434	0.01
448.791	0
449.147	-0
449.503	0
449.859	0
450.215	-0
450.571	0
450.928	0
451.284	-0
451.64	-0
451.995	-0
452.351	-0.01
452.707	-0.01
453.063	-0.01
453.419	-0.01
453.775	-0.01
454.13	-0.01
454.486	-0.02
454.842	-0.02
455.197	-0.02
455.553	-0.03
455.908	-0.03
456.264	-0.03
456.619	-0.05
456.975	-0.04
457.33	-0.03
457.685	-0.04
458.04	-0.05
458.396	-0.05
458.751	-0.05
459.106	-0.06
459.461	-0.06
459.816	-0.06
460.171	-0.07
460.526	-0.08
460.881	-0.09
461.236	-0.08
461.591	-0.09
461.946	-0.09
462.301	-0.1
462.655	-0.1
463.01	-0.1
463.365	-0.1
463.719	-0.11
464.074	-0.11
464.428	-0.12
464.783	-0.13
465.137	-0.13
465.492	-0.13
465.846	-0.12
466.201	-0.13
466.555	-0.13
466.909	-0.13
467.263	-0.12
467.618	-0.13
467.972	-0.13
468.326	-0.13
468.68	-0.13
469.034	-0.14
469.388	-0.15
469.742	-0.15
470.096	-0.15
470.45	-0.14
470.804	-0.14
471.157	-0.14
471.511	-0.15
471.865	-0.14
472.218	-0.14
472.572	-0.14
472.926	-0.13
473.279	-0.13
473.633	-0.13
473.986	-0.13
474.34	-0.12
474.693	-0.12
475.046	-0.11
475.4	-0.1
475.753	-0.09
476.106	-0.1
476.459	-0.09
476.812	-0.08
477.165	-0.07
477.519	-0.07
477.872	-0.07
478.224	-0.07
478.577	-0.06
478.93	-0.06
479.283	-0.06
479.636	-0.05
479.989	-0.05
480.341	-0.05
480.694	-0.04
481.047	-0.04
481.399	-0.04
481.752	-0.04
482.104	-0.03
482.457	-0.03
482.809	-0.02
483.162	-0.03
483.514	-0.03
483.866	-0.02
484.219	-0.02
484.571	-0.02
484.923	-0.02
485.275	-0.02
485.627	-0.02
485.979	-0.01
486.331	-0.01
486.683	-0.01
487.035	-0.01
487.387	-0
487.739	-0
488.091	0
488.443	0
488.794	0
489.146	-0
489.498	0.01
489.849	0
490.201	0
490.552	0
490.904	0
491.255	0
491.607	0
491.958	0.01
492.309	0
492.661	0.01
493.012	0.01
493.363	0.01
493.714	0.01
494.065	0.01
494.416	0.01
494.767	0.01
495.118	0.01
495.469	0.01
495.82	0.01
496.171	0.01
496.522	0.01
496.872	0.01
497.223	0.02
497.574	0.02
497.924	0.02
498.275	0.02
498.626	0.02
498.976	0.02
499.327	0.02
499.677	0.02
500.027	0.03
500.378	0.02
500.728	0.03
501.078	0.03
501.428	0.02
501.779	0.03
502.129	0.03
502.479	0.03
502.829	0.03
503.179	0.03
503.529	0.03
503.879	0.04
504.229	0.03
504.578	0.03
504.928	0.03
505.278	0.04
505.628	0.04
505.977	0.04
506.327	0.04
506.676	0.03
507.026	0.04
507.375	0.04
507.725	0.04
508.074	0.04
508.424	0.04
508.773	0.04
509.122	0.04
509.471	0.04
509.82	0.04
510.17	0.04
510.519	0.04
510.868	0.04
511.217	0.04
511.566	0.04
511.915	0.04
512.263	0.04
512.612	0.04
512.961	0.05
513.31	0.04
513.659	0.05
514.007	0.04
514.356	0.05
514.704	0.05
515.053	0.05
515.401	0.05
515.75	0.05
516.098	0.05
516.447	0.05
516.795	0.05
517.143	0.05
517.491	0.05
517.839	0.06
518.188	0.05
518.536	0.05
518.884	0.06
519.232	0.05
519.58	0.05
519.928	0.05
520.275	0.05
520.623	0.06
520.971	0.05
521.319	0.06
521.666	0.06
522.014	0.06
522.362	0.06
522.709	0.06
523.057	0.06
523.404	0.06
523.752	0.06
524.099	0.06
524.446	0.06
524.794	0.06
525.141	0.06
525.488	0.06
525.835	0.06
526.182	0.07
526.529	0.06
526.876	0.06
527.223	0.06
527.57	0.07
527.917	0.07
528.264	0.07
528.611	0.07
528.958	0.07
529.304	0.07
529.651	0.07
529.998	0.06
530.344	0.07
530.691	0.06
531.037	0.07
531.384	0.07
531.73	0.07
532.076	0.07
532.423	0.07
532.769	0.08
533.115	0.08
533.461	0.07
533.807	0.08
534.154	0.08
534.5	0.08
534.846	0.08
535.192	0.07
535.537	0.08
535.883	0.08
536.229	0.08
536.575	0.08
536.921	0.08
537.266	0.08
537.612	0.08
537.957	0.08
538.303	0.08
538.649	0.08
538.994	0.08
539.339	0.08
539.685	0.08
540.03	0.08
540.375	0.09
540.721	0.08
541.066	0.08
541.411	0.09
541.756	0.09
542.101	0.09
542.446	0.09
542.791	0.09
543.136	0.09
543.481	0.09
543.825	0.09
544.17	0.09
544.515	0.09
544.86	0.09
545.204	0.09
545.549	0.09
545.893	0.09
546.238	0.1
546.582	0.1
546.927	0.1
547.271	0.1
547.615	0.1
547.96	0.1
548.304	0.1
548.648	0.1
548.992	0.1
549.336	0.1
549.68	0.1
550.024	0.1
550.368	0.1
550.712	0.1
551.056	0.1
551.4	0.1
551.743	0.1
552.087	0.1
552.431	0.11
552.774	0.11
553.118	0.1
553.462	0.1
553.805	0.11
554.148	0.11
554.492	0.11
554.835	0.11
555.178	0.11
555.522	0.11
555.865	0.11
556.208	0.11
556.551	0.11
556.894	0.11
557.237	0.11
557.58	0.11
557.923	0.11
558.266	0.11
558.609	0.11
558.952	0.11
559.294	0.11
559.637	0.11
559.98	0.11
560.322	0.12
560.665	0.11
561.007	0.11
561.35	0.11
561.692	0.11
562.034	0.11
562.377	0.12
562.719	0.12
563.061	0.12
563.403	0.12
563.745	0.12
564.088	0.12
564.43	0.12
564.772	0.11
565.113	0.12
565.455	0.12
565.797	0.12
566.139	0.12
566.481	0.12
566.822	0.12
567.164	0.11
567.506	0.12
567.847	0.12
568.189	0.12
568.53	0.12
568.872	0.12
569.213	0.12
569.554	0.12
569.895	0.12
570.237	0.12
570.578	0.12
570.919	0.12
571.26	0.12
571.601	0.12
571.942	0.12
572.283	0.12
572.624	0.12
572.965	0.12
573.306	0.12
573.646	0.12
573.987	0.12
574.328	0.12
574.668	0.12
575.009	0.12
575.349	0.12
575.69	0.12
576.03	0.12
576.37	0.11
576.711	0.11
577.051	0.11
577.391	0.12
577.731	0.12
578.072	0.12
578.412	0.12
578.752	0.12
579.092	0.12
579.431	0.11
579.771	0.11
580.111	0.11
580.451	0.11
580.791	0.11
581.13	0.12
581.47	0.12
581.81	0.12
582.149	0.12
582.489	0.12
582.828	0.12
583.167	0.12
583.507	0.1
583.846	0.08
584.185	0.09
584.525	0.11
584.864	0.11
585.203	0.12
585.542	0.12
585.881	0.12
586.22	0.12
586.559	0.12
586.898	0.12
587.236	0.12
587.575	0.12
587.914	0.12
588.252	0.12
588.591	0.12
588.93	0.13
589.268	0.12
589.607	0.12
589.945	0.12
590.283	0.13
590.622	0.12
590.96	0.13
591.298	0.13
591.636	0.13
591.974	0.13
592.313	0.13
592.651	0.13
592.989	0.14
593.326	0.14
593.664	0.14
594.002	0.14
594.34	0.13
594.678	0.13
595.015	0.13
595.353	0.13
595.691	0.13
596.028	0.14
596.366	0.14
596.703	0.14
597.04	0.14
597.378	0.14
597.715	0.14
598.052	0.14
598.389	0.14
598.726	0.14
599.064	0.14
599.401	0.14
599.738	0.14
600.074	0.14
600.411	0.14
600.748	0.14
601.085	0.14
601.422	0.14
601.758	0.14
602.095	0.14
602.432	0.14
602.768	0.14
603.105	0.14
603.441	0.15
603.777	0.15
604.114	0.15
604.45	0.15
604.786	0.15
605.122	0.15
605.459	0.15
605.795	0.15
606.131	0.14
606.467	0.15
606.803	0.15
607.139	0.15
607.474	0.15
607.81	0.15
608.146	0.15
608.482	0.14
608.817	0.14
609.153	0.14
609.488	0.14
609.824	0.14
610.159	0.14
610.495	0.15
610.83	0.14
611.165	0.14
611.5	0.14
611.836	0.14
612.171	0.14
612.506	0.14
612.841	0.14
613.176	0.14
613.511	0.14
613.845	0.14
614.18	0.14
614.515	0.14
614.85	0.14
615.184	0.15
615.519	0.14
615.854	0.14
616.188	0.14
616.523	0.14
616.857	0.14
617.191	0.14
617.526	0.14
617.86	0.13
618.194	0.13
618.528	0.14
618.862	0.14
619.196	0.14
619.53	0.14
619.864	0.14
620.198	0.13
620.532	0.13
620.866	0.13
621.2	0.14
621.533	0.13
621.867	0.13
622.201	0.13
622.534	0.13
622.868	0.13
623.201	0.13
623.534	0.13
623.868	0.13
624.201	0.13
624.534	0.13
624.868	0.13
625.201	0.13
625.534	0.13
625.867	0.13
626.2	0.13
626.533	0.13
626.865	0.13
627.198	0.12
627.531	0.12
627.864	0.13
628.196	0.13
628.529	0.13
628.862	0.12
629.194	0.13
629.527	0.12
629.859	0.12
630.191	0.12
630.524	0.12
630.856	0.12
631.188	0.12
631.52	0.12
631.852	0.12
632.184	0.11
632.516	0.11
632.848	0.11
633.18	0.11
633.512	0.11
633.844	0.11
634.175	0.11
634.507	0.11
634.839	0.11
635.17	0.11
635.502	0.11
635.833	0.11
636.165	0.11
636.496	0.11
636.827	0.11
637.159	0.11
637.49	0.11
637.821	0.11
638.152	0.1
638.483	0.1
638.814	0.1
639.145	0.1
639.476	0.1
639.807	0.1
640.137	0.1
640.468	0.1
640.799	0.09
641.129	0.09
641.46	0.09
641.791	0.09
642.121	0.09
642.451	0.09
642.782	0.09
643.112	0.09
643.442	0.09
643.773	0.09
644.103	0.09
644.433	0.09
644.763	0.09
645.093	0.09
645.423	0.09
645.753	0.09
646.082	0.09
646.412	0.09
646.742	0.09
647.072	0.09
647.401	0.09
647.731	0.09
648.06	0.09
648.39	0.09
648.719	0.09
649.048	0.09
649.378	0.08
649.707	0.08
650.036	0.09
650.365	0.09
650.694	0.08
651.023	0.09
651.352	0.09
651.681	0.08
652.01	0.09
652.339	0.09
652.668	0.09
652.996	0.09
653.325	0.09
653.654	0.09
653.982	0.09
654.311	0.09
654.639	0.09
654.967	0.09
655.296	0.09
655.624	0.08
655.952	0.08
656.28	0.08
656.609	0.08
656.937	0.09
657.265	0.08
657.593	0.07
657.92	0
658.248	0
658.576	0
658.904	0
659.231	0.06
659.559	0.08
659.887	0.08
660.214	0.08
660.542	0.08
660.869	0.08
661.196	0.08
661.524	0.08
661.851	0.08
662.178	0.08
662.505	0.08
662.832	0.08
663.159	0.08
663.486	0.08
663.813	0.08
664.14	0.08
664.467	0.08
664.794	0.08
665.12	0.08
665.447	0.08
665.774	0.08
666.1	0.08
666.427	0.08
666.753	0.08
667.079	0.08
667.406	0.08
667.732	0.08
668.058	0.08
668.384	0.08
668.71	0.08
669.036	0.08
669.362	0.08
669.688	0.08
670.014	0.08
670.34	0.08
670.666	0.08
670.991	0.08
671.317	0.08
671.643	0.07
671.968	0.08
672.294	0.08
672.619	0.08
672.945	0.08
673.27	0.08
673.595	0.07
673.92	0.07
674.246	0.07
674.571	0.07
674.896	0.07
675.221	0.07
675.546	0.07
675.87	0.07
676.195	0.07
676.52	0.07
676.845	0.07
677.169	0.07
677.494	0.07
677.819	0.07
678.143	0.07
678.468	0.07
678.792	0.07
679.116	0.07
679.44	0.07
679.765	0.07
680.089	0.06
680.413	0.06
680.737	0.06
681.061	0.06
681.385	0.06
681.709	0.06
682.033	0.06
682.356	0.07
682.68	0.06
683.004	0.06
683.327	0.06
683.651	0.06
683.974	0.06
684.298	0.06
684.621	0.06
684.944	0.05
685.268	0.05
685.591	0.05
685.914	0.05
686.237	0.05
686.56	0.05
686.883	0.06
687.206	0.06
687.529	0.06
687.852	0.06
688.175	0.05
688.497	0.05
688.82	0.05
689.142	0.05
689.465	0.05
689.787	0.05
690.11	0.05
690.432	0.05
690.755	0.05
691.077	0.05
691.399	0.05
691.721	0.05
692.043	0.05
692.365	0.05
692.687	0.05
693.009	0.05
693.331	0.05
693.653	0.05
693.974	0.05
694.296	0.04
694.618	0.05
694.939	0.04
695.261	0.04
695.582	0.04
695.904	0.04
696.225	0.04
696.546	0.04
696.868	0.04
697.189	0.04
697.51	0.04
697.831	0.04
698.152	0.04
698.473	0.04
698.794	0.04
699.114	0.04
699.435	0.04
699.756	0.04
700.077	0.04
700.397	0.04
700.718	0.04
701.038	0.04
701.359	0.04
701.679	0.04
701.999	0.04
702.32	0.04
702.64	0.04
702.96	0.04
703.28	0.04
703.6	0.04
703.92	0.04
704.24	0.04
704.56	0.04
704.879	0.04
705.199	0.04
705.519	0.04
705.838	0.04
706.158	0.04
706.478	0.04
706.797	0.03
707.116	0.03
707.436	0.03
707.755	0.03
708.074	0.03
708.393	0.03
708.712	0.03
709.031	0.03
709.35	0.03
709.669	0.03
709.988	0.03
710.307	0.03
710.626	0.03
710.944	0.03
711.263	0.03
711.582	0.03
711.9	0.03
712.219	0.03
712.537	0.04
712.855	0.04
713.174	0.04
713.492	0.04
713.81	0.04
714.128	0.03
714.446	0.04
714.764	0.03
715.082	0.03
715.4	0.03
715.718	0.03
716.035	0.03
716.353	0.03
716.671	0.03
716.988	0.03
717.306	0.03
717.623	0.04
717.941	0.04
718.258	0.04
718.575	0.04
718.893	0.04
719.21	0.04
719.527	0.04
719.844	0.04
720.161	0.03
720.478	0.04
720.795	0.04
721.112	0.04
721.428	0.03
721.745	0.03
722.062	0.03
722.378	0.03
722.695	0.04
723.011	0.04
723.328	0.03
723.644	0.04
723.96	0.04
724.276	0.04
724.593	0.04
724.909	0.04
725.225	0.04
725.541	0.04
725.857	0.04
726.173	0.04
726.488	0.04
726.804	0.04
727.12	0.04
727.435	0.04
727.751	0.04
728.067	0.04
728.382	0.04
728.697	0.04
729.013	0.05
729.328	0.04
729.643	0.04
729.958	0.04
730.273	0.05
730.588	0.05
730.903	0.04
731.218	0.05
731.533	0.04
731.848	0.04
732.163	0.04
732.477	0.04
732.792	0.04
733.107	0.04
733.421	0.04
733.736	0.04
734.05	0.04
734.364	0.04
734.678	0.04
734.993	0.04
735.307	0.04
735.621	0.04
735.935	0.04
736.249	0.04
736.563	0.04
736.877	0.04
737.19	0.04
737.504	0.04
737.818	0.04
738.131	0.04
738.445	0.04
738.758	0.04
739.072	0.04
739.385	0.04
739.698	0.04
740.012	0.04
740.325	0.04
740.638	0.04
740.951	0.04
741.264	0.04
741.577	0.04
741.89	0.04
742.203	0.04
742.515	0.04
742.828	0.04
743.141	0.04
743.453	0.04
743.766	0.04
744.078	0.04
744.391	0.04
744.703	0.04
745.015	0.04
745.327	0.04
745.639	0.04
745.952	0.04
746.264	0.04
746.575	0.04
746.887	0.04
747.199	0.04
747.511	0.04
747.823	0.04
748.134	0.04
748.446	0.04
748.757	0.04
749.069	0.03
749.38	0.04
749.692	0.03
750.003	0.03
750.314	0.03
750.625	0.03
750.936	0.04
751.248	0.04
751.559	0.04
751.869	0.04
752.18	0.04
752.491	0.04
752.802	0.03
753.112	0.03
753.423	0.03
753.734	0.03
754.044	0.03
754.355	0.03
754.665	0.03
754.975	0.03
755.285	0.04
755.596	0.03
755.906	0.03
756.216	0.03
756.526	0.04
756.836	0.04
757.146	0.04
757.455	0.04
757.765	0.04
758.075	0.04
758.385	0.03
758.694	0.03
759.004	0.03
759.313	0.03
759.622	0.03
759.932	0.03
760.241	0.03
760.55	0.02
760.859	0.02
761.168	0.02
761.477	0.02
761.786	0.02
762.095	0.02
762.404	0.02
762.713	0.02
763.021	0.02
763.33	0.02
763.639	0.02
763.947	0.02
764.256	0.02
764.564	0.02
764.872	0.02
765.181	0.02
765.489	0.02
765.797	0.02
766.105	0.02
766.413	0.02
766.721	0.02
767.029	0.02
767.337	0.02
767.644	0.02
767.952	0.02
768.26	0.02
768.567	0.02
768.875	0.02
769.182	0.02
769.49	0.02
769.797	0.02
770.104	0.02
770.411	0.02
770.718	0.02
771.026	0.02
771.333	0.02
771.639	0.02
771.946	0.02
772.253	0.02
772.56	0.02
772.867	0.02
773.173	0.02
773.48	0.02
773.786	0.01
774.093	0.01
774.399	0.01
774.705	0.01
775.012	0.01
775.318	0.01
775.624	0.02
775.93	0.02
776.236	0.02
776.542	0.02
776.848	0.02
777.154	0.02
777.459	0.02
777.765	0.02
778.071	0.02
778.376	0.02
778.682	0.02
778.987	0.02
779.292	0.02
779.598	0.02
779.903	0.02
780.208	0.02
780.513	0.02
780.818	0.01
781.123	0.02
781.428	0.02
781.733	0.02
782.038	0.02
782.343	0.02
782.647	0.02
782.952	0.02
783.256	0.02
783.561	0.02
783.865	0.02
784.17	0.02
784.474	0.02
784.778	0.02
785.082	0.02
785.386	0.02
785.69	0.03
785.994	0.02
786.298	0.02
786.602	0.03
786.906	0.02
787.209	0.02
787.513	0.02
787.817	0.03
788.12	0.03
788.424	0.03
788.727	0.02
789.03	0.02
789.333	0.02
789.637	0.02
789.94	0.02
790.243	0.02
790.546	0.01
790.849	0.01
791.152	0.01
791.454	0.01
791.757	0.01
792.06	0.01
792.362	0.01
792.665	0.01
792.967	0.01
793.27	0.01
793.572	0.01
793.874	0.01
794.177	0.01
794.479	0.02
794.781	0.01
795.083	0.02
795.385	0.02
795.687	0.02
795.989	0.01
796.29	0.02
796.592	0.01
796.894	0.01
797.195	0.02
797.497	0.01
797.798	0.02
798.1	0.02
798.401	0.01
798.702	0.01
799.003	0.01
799.304	0.01
799.605	0.01
799.906	0.01
800.207	0.01
800.508	0
800.809	0
801.11	0
801.41	0
801.711	0.01
802.011	0
802.312	0.01
802.612	0.01
802.913	0.01
803.213	0
803.513	0
803.813	0
804.113	0
804.413	0.01
804.713	0.01
805.013	0.01
805.313	0.01
805.613	0.01
805.912	0.01
806.212	0.01
806.511	0.01
806.811	0.01
807.11	0.01
807.41	0.01
807.709	0.01
808.008	0.01
808.307	0.01
808.606	0.01
808.905	0.02
809.204	0.01
809.503	0.01
809.802	0.01
810.101	0.01
810.399	0.01
810.698	0.01
810.997	0.01
811.295	0.02
811.593	0.01
811.892	0.01
812.19	0.02
812.488	0.01
812.786	0.02
813.084	0.02
813.383	0.02
813.68	0.01
813.978	0.02
814.276	0.01
814.574	0.01
814.872	0.01
815.169	0.01
815.467	0.01
815.764	0.01
816.062	0.01
816.359	0.01
816.656	0.01
816.954	0.01
817.251	0.01
817.548	0.01
817.845	0.01
818.142	0.01
818.439	0.01
818.735	0.01
819.032	0.01
819.329	0.01
819.626	0.01
819.922	0.01
820.219	0.01
820.515	0.01
820.811	0
821.108	0
821.404	0.01
821.7	-0
821.996	0
822.292	0
822.588	0
822.884	-0
823.18	-0
823.475	0
823.771	0
824.067	0
824.362	0
824.658	0
824.953	0.01
825.249	0
825.544	-0
825.839	0.01
826.134	0.01
826.429	0.01
826.724	0
827.019	0.01
827.314	0
827.609	0
827.904	0
828.198	-0
828.493	0
828.787	0
829.082	0
829.376	0
829.671	-0
829.965	-0
830.259	-0
830.553	-0.01
830.847	-0.01
831.141	0
831.435	-0
831.729	-0
832.023	-0
832.317	-0
832.61	-0
832.904	-0
833.197	0
833.491	-0
833.784	-0.01
834.077	0
834.371	0.01
834.664	0.01
834.957	0.01
835.25	0.01
835.543	0.01
835.836	0.01
836.129	0
836.421	0.01
836.714	0.01
837.007	0
837.299	-0.01
837.592	0
837.884	-0.01
838.177	-0.01
838.469	-0.01
838.761	-0.01
839.053	-0.01
839.345	-0
839.637	-0
839.929	0.01
840.221	0.02
840.513	0.01
840.805	0.01
841.096	0.01
841.388	-0
841.68	0
841.971	0
842.262	0
842.554	0.01
842.845	0
843.136	0
843.427	-0
843.718	-0
844.009	-0
844.3	-0
844.591	0
844.882	-0.01
845.173	-0
845.463	0
845.754	0
846.044	0
846.335	-0
846.625	0
846.915	-0.01
847.206	-0.01
847.496	-0
847.786	0.01
848.076	-0.01
848.366	-0.01
848.656	-0
848.945	-0.01
849.235	-0
849.525	-0.01
849.814	-0
850.104	0
850.393	0
850.683	-0
850.972	-0
851.261	0.01
851.551	0.01
851.84	0.02
852.129	-0
852.418	-0.01
852.707	-0
852.995	0
853.284	-0.01
853.573	0
853.862	-0.01
854.15	-0.01
854.439	-0.02
854.727	-0
855.015	-0.02
855.304	-0.02
855.592	-0.02
855.88	-0.02
856.168	-0.01
856.456	-0.02
856.744	-0
857.032	-0.05
857.32	-0.03
857.607	-0.01
857.895	-0.03
858.183	-0.01
858.47	-0.02
858.757	-0.02
859.045	-0.01
859.332	-0.02
859.619	-0
859.907	-0.01
860.194	-0.01
860.481	-0.02
860.768	-0.02
861.054	-0.02
861.341	-0.02
861.628	-0.02
861.915	-0.03
862.201	-0.02
862.488	-0.04
862.774	-0.02
863.061	-0.02
863.347	-0.02
863.633	-0.03
863.919	-0.04
864.205	-0.02
864.491	-0.04
864.777	-0.04
865.063	-0
865.349	-0.03
865.635	-0.02
865.92	0.02
866.206	-0
866.492	-0
866.777	-0.04
867.062	-0.04
867.348	-0.07
867.633	0.01
867.918	-0.03
868.203	-0
868.488	-0.03
868.773	-0.01
869.058	-0.07
869.343	-0.03
869.628	-0.01
869.912	-0.02
870.197	-0.02
870.482	-0.08
870.766	-0.05
871.05	-0
871.335	-0
871.619	-0.04
871.903	0
872.187	0
872.471	-0.03
872.755	-0.09
873.039	-0.06
873.323	-0.08
873.607	0.01
873.89	-0.03
874.174	-0.02
874.458	-0.01
874.741	0.01
875.024	-0.07
875.308	-0.02
875.591	-0.07
875.874	0.01
876.157	-0.04
876.44	-0.01
876.723	0.03
877.006	-0
877.289	-0.04
877.572	-0.02
877.854	0.03
878.137	-0.02
878.42	0.04
878.702	0.01
878.984	-0.03
879.267	0.05
879.549	0
879.831	-0.05
880.113	-0.1
880.395	-0.01
880.677	-0.15
880.959	0.02
