Data from Rubpy_EV_900_EDTA_Buffered_Absorbance_13-40-51-672.txt Node
Date: Tue Jun 30 13:40:51 BST 2026
User: fpm-admin
Spectrometer: OFX00224
Trigger mode: 0
Integration Time (sec): 7.000000E-2
Scans to average: 3
Nonlinearity correction enabled: false
Boxcar width: 0
Storing dark spectrum: false
XAxis mode: Wavelengths
Number of Pixels in Spectrum: 2136
>>>>>Begin Spectral Data<<<<<
154.91	-0.1
155.289	-1.72
155.669	-0
156.048	-0.53
156.428	0.19
156.807	-0
157.186	0.13
157.566	-0
157.945	0.07
158.325	0.24
158.704	0.3
159.083	-0
159.462	-0.11
159.842	-0
160.221	0.06
160.6	-0.2
160.979	-0
161.359	-0
161.738	-0.03
162.117	-0.29
162.496	-0.08
162.875	-0
163.254	-0
163.633	1.1
164.012	-1.53
164.391	0.05
164.77	-0
165.149	0.2
165.528	0.08
165.907	-0
166.286	-0
166.665	-0.78
167.044	-0
167.423	1.19
167.802	-0.25
168.181	0.62
168.559	-0
168.938	-0
169.317	-0.34
169.696	-0
170.074	-0
170.453	-0
170.832	-0
171.21	0.45
171.589	-0
171.968	-0
172.346	-0.12
172.725	0.34
173.103	-0
173.482	-0.19
173.861	-0
174.239	0.55
174.617	-0
174.996	-0.26
175.374	-0
175.753	-0.05
176.131	-0
176.51	-0.32
176.888	-0
177.266	-0
177.645	-0.02
178.023	0.61
178.401	-0.15
178.779	0.28
179.158	-0
179.536	0.06
179.914	0.11
180.292	-0
180.67	-0.05
181.048	-0
181.427	0.35
181.805	-0.38
182.183	-0.85
182.561	-0
182.939	-0.21
183.317	0.03
183.695	0.22
184.073	-0.64
184.451	-0
184.829	0.07
185.206	0.03
185.584	-0.44
185.962	0.65
186.34	-0
186.718	0.88
187.096	-0.23
187.473	-0.14
187.851	-0.47
188.229	-0.06
188.607	0.16
188.984	0.18
189.362	0.06
189.74	-0.01
190.117	0.08
190.495	0.11
190.872	0.2
191.25	0.13
191.627	0.08
192.005	0.09
192.382	0.11
192.76	0.13
193.137	0.04
193.515	0.1
193.892	0.14
194.269	0.15
194.647	0.2
195.024	0.06
195.401	0.22
195.779	0.06
196.156	0.14
196.533	0.06
196.91	0.04
197.288	0.16
197.665	0.03
198.042	0.15
198.419	0.12
198.796	0.19
199.173	0.17
199.55	0.2
199.927	0.16
200.304	0.15
200.681	0.17
201.058	0.13
201.435	0.15
201.812	0.13
202.189	0.14
202.566	0.23
202.943	0.11
203.32	0.1
203.697	0.06
204.073	0.16
204.45	0.12
204.827	0.07
205.204	0.11
205.58	0.09
205.957	0.22
206.334	0.13
206.71	0.06
207.087	0.12
207.464	0.24
207.84	0.17
208.217	0.07
208.593	0.14
208.97	0.2
209.346	0.07
209.723	0.18
210.099	0.15
210.476	0.09
210.852	0.09
211.228	0.1
211.605	0.16
211.981	0.17
212.357	0.05
212.733	0.19
213.11	0.14
213.486	0.02
213.862	0.17
214.238	0.11
214.614	0.1
214.991	0.16
215.367	0.11
215.743	0.05
216.119	0.13
216.495	0.1
216.871	0.05
217.247	0.16
217.623	0.01
217.999	0.04
218.375	0.1
218.751	0.09
219.127	0.15
219.502	0.1
219.878	0.19
220.254	0.19
220.63	0.19
221.006	0.2
221.381	0.04
221.757	0.11
222.133	0.08
222.508	0.23
222.884	0.13
223.26	0.17
223.635	0.11
224.011	0.15
224.386	0.14
224.762	0.13
225.137	0.15
225.513	0.26
225.888	0.15
226.264	0.19
226.639	0.07
227.014	0.16
227.39	0.13
227.765	0.08
228.14	0.3
228.516	0.11
228.891	0.18
229.266	0.12
229.641	0.19
230.017	0.15
230.392	0.15
230.767	0.19
231.142	0.15
231.517	0.21
231.892	0.05
232.267	0.12
232.642	0.1
233.017	0.06
233.392	0.25
233.767	0.19
234.142	0.12
234.517	0.13
234.892	0.05
235.267	0.21
235.641	0.21
236.016	0.2
236.391	0.34
236.766	0.16
237.14	0.14
237.515	0.2
237.89	0.18
238.264	0.18
238.639	0.13
239.014	0.16
239.388	0.13
239.763	0.12
240.137	0.19
240.512	0.07
240.886	0.04
241.261	0.09
241.635	0.17
242.009	0.12
242.384	0.15
242.758	0.2
243.132	0.06
243.507	0.24
243.881	0.19
244.255	0.16
244.629	0.16
245.004	0.13
245.378	0.19
245.752	0.08
246.126	0.03
246.5	0.11
246.874	0.19
247.248	0.18
247.622	0.19
247.996	0.17
248.37	0.15
248.744	0.15
249.118	0.3
249.492	0.2
249.866	0.26
250.24	0.09
250.613	0.12
250.987	0.14
251.361	0.15
251.735	0.14
252.108	0.13
252.482	0.18
252.856	0.17
253.229	0.16
253.603	0.17
253.977	0.15
254.35	0.15
254.724	0.08
255.097	0.16
255.471	0.15
255.844	0.12
256.218	0.11
256.591	0.09
256.964	0.14
257.338	0.16
257.711	0.08
258.084	0.11
258.458	0.19
258.831	0.24
259.204	0.14
259.577	0.1
259.95	0.16
260.323	0.13
260.697	0.14
261.07	0.15
261.443	0.21
261.816	0.19
262.189	0.11
262.562	0.15
262.935	0.13
263.308	0.16
263.68	0.12
264.053	0.2
264.426	0.05
264.799	0.13
265.172	0.12
265.545	0.17
265.917	0.19
266.29	0.25
266.663	0.1
267.035	0.05
267.408	0.16
267.781	0.18
268.153	0.16
268.526	0.16
268.898	0.1
269.271	0.16
269.643	0.08
270.016	0.11
270.388	0.18
270.76	0.13
271.133	0.21
271.505	0.2
271.877	0.06
272.25	0.17
272.622	0.15
272.994	0.21
273.366	0.12
273.739	0.1
274.111	0.07
274.483	0.12
274.855	0.16
275.227	0.12
275.599	0.11
275.971	0.11
276.343	0.13
276.715	0.14
277.087	0.15
277.459	0.16
277.831	0.16
278.203	0.17
278.574	0.13
278.946	0.19
279.318	0.18
279.69	0.07
280.061	0.14
280.433	0.13
280.805	0.13
281.176	0.09
281.548	0.13
281.92	0.12
282.291	0.06
282.663	0.13
283.034	0.17
283.406	0.16
283.777	0.17
284.148	0.15
284.52	0.15
284.891	0.21
285.262	0.12
285.634	0.21
286.005	0.14
286.376	0.14
286.747	0.15
287.119	0.08
287.49	0.09
287.861	0.12
288.232	0.1
288.603	0.2
288.974	0.17
289.345	0.15
289.716	0.19
290.087	0.18
290.458	0.19
290.829	0.19
291.2	0.09
291.571	0.09
291.941	0.12
292.312	0.12
292.683	0.19
293.054	0.14
293.424	0.15
293.795	0.13
294.166	0.21
294.536	0.13
294.907	0.2
295.277	0.1
295.648	0.15
296.018	0.15
296.389	0.11
296.759	0.14
297.13	0.13
297.5	0.18
297.871	0.14
298.241	0.12
298.611	0.16
298.981	0.12
299.352	0.15
299.722	0.17
300.092	0.1
300.462	0.16
300.832	0.11
301.202	0.08
301.573	0.1
301.943	0.11
302.313	0.08
302.683	0.09
303.053	0.09
303.422	0.09
303.792	0.08
304.162	0.09
304.532	0.11
304.902	0.09
305.272	0.1
305.641	0.09
306.011	0.1
306.381	0.09
306.75	0.08
307.12	0.1
307.49	0.11
307.859	0.1
308.229	0.11
308.598	0.11
308.968	0.1
309.337	0.11
309.707	0.11
310.076	0.1
310.445	0.11
310.815	0.11
311.184	0.12
311.553	0.11
311.923	0.12
312.292	0.12
312.661	0.12
313.03	0.12
313.399	0.11
313.768	0.12
314.137	0.12
314.506	0.11
314.875	0.11
315.244	0.11
315.613	0.11
315.982	0.12
316.351	0.12
316.72	0.11
317.089	0.12
317.458	0.11
317.826	0.12
318.195	0.11
318.564	0.11
318.933	0.11
319.301	0.11
319.67	0.11
320.038	0.11
320.407	0.11
320.775	0.11
321.144	0.11
321.512	0.1
321.881	0.1
322.249	0.1
322.618	0.1
322.986	0.1
323.354	0.1
323.723	0.1
324.091	0.1
324.459	0.1
324.827	0.1
325.195	0.09
325.564	0.09
325.932	0.09
326.3	0.1
326.668	0.1
327.036	0.1
327.404	0.09
327.772	0.1
328.14	0.09
328.508	0.09
328.875	0.09
329.243	0.09
329.611	0.1
329.979	0.1
330.346	0.1
330.714	0.09
331.082	0.09
331.449	0.09
331.817	0.09
332.185	0.1
332.552	0.09
332.92	0.1
333.287	0.1
333.655	0.1
334.022	0.1
334.389	0.1
334.757	0.1
335.124	0.1
335.491	0.1
335.859	0.1
336.226	0.1
336.593	0.11
336.96	0.11
337.327	0.11
337.695	0.11
338.062	0.11
338.429	0.11
338.796	0.11
339.163	0.11
339.53	0.12
339.897	0.11
340.263	0.12
340.63	0.12
340.997	0.12
341.364	0.12
341.731	0.13
342.097	0.12
342.464	0.13
342.831	0.13
343.197	0.14
343.564	0.14
343.931	0.14
344.297	0.14
344.664	0.14
345.03	0.15
345.396	0.15
345.763	0.15
346.129	0.15
346.496	0.15
346.862	0.15
347.228	0.16
347.594	0.16
347.961	0.16
348.327	0.17
348.693	0.17
349.059	0.17
349.425	0.17
349.791	0.18
350.157	0.18
350.523	0.18
350.889	0.19
351.255	0.19
351.621	0.19
351.987	0.19
352.353	0.2
352.719	0.2
353.084	0.21
353.45	0.21
353.816	0.21
354.181	0.22
354.547	0.22
354.913	0.23
355.278	0.23
355.644	0.23
356.009	0.24
356.375	0.25
356.74	0.25
357.106	0.26
357.471	0.26
357.836	0.27
358.202	0.27
358.567	0.28
358.932	0.29
359.297	0.29
359.663	0.29
360.028	0.3
360.393	0.3
360.758	0.31
361.123	0.31
361.488	0.32
361.853	0.32
362.218	0.32
362.583	0.32
362.948	0.33
363.312	0.34
363.677	0.34
364.042	0.34
364.407	0.35
364.772	0.36
365.136	0.36
365.501	0.37
365.865	0.38
366.23	0.38
366.595	0.39
366.959	0.4
367.324	0.41
367.688	0.42
368.052	0.42
368.417	0.43
368.781	0.44
369.145	0.44
369.51	0.45
369.874	0.44
370.238	0.45
370.602	0.44
370.967	0.45
371.331	0.44
371.695	0.44
372.059	0.44
372.423	0.44
372.787	0.44
373.151	0.43
373.515	0.43
373.878	0.44
374.242	0.43
374.606	0.44
374.97	0.45
375.334	0.44
375.697	0.44
376.061	0.44
376.425	0.45
376.788	0.45
377.152	0.45
377.515	0.45
377.879	0.46
378.242	0.46
378.606	0.47
378.969	0.47
379.333	0.48
379.696	0.49
380.059	0.49
380.422	0.5
380.786	0.51
381.149	0.52
381.512	0.54
381.875	0.54
382.238	0.55
382.601	0.57
382.964	0.59
383.327	0.6
383.69	0.61
384.053	0.64
384.416	0.65
384.779	0.67
385.142	0.68
385.504	0.68
385.867	0.7
386.23	0.71
386.593	0.71
386.955	0.71
387.318	0.71
387.68	0.71
388.043	0.71
388.405	0.71
388.768	0.71
389.13	0.69
389.493	0.69
389.855	0.69
390.217	0.68
390.58	0.68
390.942	0.69
391.304	0.69
391.666	0.7
392.028	0.71
392.391	0.73
392.753	0.74
393.115	0.77
393.477	0.79
393.839	0.83
394.201	0.86
394.563	0.89
394.924	0.93
395.286	0.96
395.648	0.99
396.01	1.02
396.371	1.05
396.733	1.06
397.095	1.08
397.456	1.1
397.818	1.09
398.18	1.08
398.541	1.08
398.903	1.06
399.264	1.01
399.625	0.99
399.987	0.95
400.348	0.92
400.709	0.87
401.071	0.83
401.432	0.78
401.793	0.74
402.154	0.68
402.515	0.63
402.876	0.59
403.238	0.55
403.599	0.51
403.96	0.47
404.32	0.44
404.681	0.41
405.042	0.38
405.403	0.36
405.764	0.33
406.125	0.31
406.485	0.28
406.846	0.27
407.207	0.25
407.567	0.24
407.928	0.22
408.288	0.22
408.649	0.21
409.009	0.19
409.37	0.19
409.73	0.18
410.091	0.16
410.451	0.16
410.811	0.15
411.171	0.14
411.532	0.14
411.892	0.13
412.252	0.13
412.612	0.12
412.972	0.12
413.332	0.12
413.692	0.12
414.052	0.11
414.412	0.11
414.772	0.1
415.132	0.1
415.492	0.1
415.851	0.09
416.211	0.09
416.571	0.09
416.931	0.09
417.29	0.08
417.65	0.08
418.009	0.08
418.369	0.08
418.728	0.07
419.088	0.07
419.447	0.07
419.807	0.08
420.166	0.08
420.525	0.07
420.884	0.07
421.244	0.08
421.603	0.06
421.962	0.06
422.321	0.07
422.68	0.06
423.039	0.07
423.398	0.06
423.757	0.06
424.116	0.07
424.475	0.07
424.834	0.06
425.193	0.06
425.551	0.06
425.91	0.06
426.269	0.05
426.628	0.06
426.986	0.07
427.345	0.06
427.703	0.06
428.062	0.05
428.42	0.05
428.779	0.06
429.137	0.06
429.496	0.05
429.854	0.05
430.212	0.05
430.57	0.04
430.929	0.05
431.287	0.04
431.645	0.05
432.003	0.05
432.361	0.05
432.719	0.05
433.077	0.05
433.435	0.05
433.793	0.04
434.151	0.04
434.509	0.05
434.866	0.05
435.224	0.05
435.582	0.04
435.94	0.04
436.297	0.04
436.655	0.04
437.012	0.05
437.37	0.04
437.727	0.04
438.085	0.05
438.442	0.04
438.8	0.04
439.157	0.04
439.514	0.04
439.872	0.04
440.229	0.04
440.586	0.05
440.943	0.04
441.3	0.04
441.657	0.04
442.014	0.04
442.371	0.04
442.728	0.04
443.085	0.03
443.442	0.03
443.799	0.03
444.156	0.03
444.513	0.03
444.869	0.04
445.226	0.03
445.583	0.03
445.939	0.02
446.296	0.03
446.652	0.02
447.009	0.03
447.365	0.03
447.722	0.02
448.078	0.02
448.434	0.02
448.791	0.02
449.147	0.02
449.503	0.02
449.859	0.02
450.215	0.02
450.571	0.02
450.928	0.01
451.284	0
451.64	0.01
451.995	0.01
452.351	0
452.707	0.01
453.063	0
453.419	0
453.775	0
454.13	-0.01
454.486	-0
454.842	-0.01
455.197	-0.01
455.553	-0.02
455.908	-0.02
456.264	-0.01
456.619	-0.03
456.975	-0.03
457.33	-0.02
457.685	-0.03
458.04	-0.05
458.396	-0.05
458.751	-0.05
459.106	-0.06
459.461	-0.05
459.816	-0.06
460.171	-0.06
460.526	-0.07
460.881	-0.08
461.236	-0.08
461.591	-0.08
461.946	-0.09
462.301	-0.09
462.655	-0.09
463.01	-0.09
463.365	-0.1
463.719	-0.11
464.074	-0.11
464.428	-0.12
464.783	-0.13
465.137	-0.13
465.492	-0.12
465.846	-0.13
466.201	-0.13
466.555	-0.13
466.909	-0.12
467.263	-0.13
467.618	-0.12
467.972	-0.12
468.326	-0.13
468.68	-0.13
469.034	-0.14
469.388	-0.14
469.742	-0.14
470.096	-0.14
470.45	-0.14
470.804	-0.14
471.157	-0.14
471.511	-0.15
471.865	-0.14
472.218	-0.14
472.572	-0.14
472.926	-0.13
473.279	-0.13
473.633	-0.12
473.986	-0.12
474.34	-0.11
474.693	-0.11
475.046	-0.1
475.4	-0.09
475.753	-0.08
476.106	-0.08
476.459	-0.08
476.812	-0.07
477.165	-0.06
477.519	-0.06
477.872	-0.05
478.224	-0.05
478.577	-0.04
478.93	-0.05
479.283	-0.04
479.636	-0.04
479.989	-0.03
480.341	-0.03
480.694	-0.03
481.047	-0.02
481.399	-0.02
481.752	-0.02
482.104	-0.01
482.457	-0.01
482.809	-0.01
483.162	-0.01
483.514	0
483.866	-0
484.219	0
484.571	0
484.923	0
485.275	0.01
485.627	0.01
485.979	0.01
486.331	0.01
486.683	0.01
487.035	0.01
487.387	0.02
487.739	0.03
488.091	0.03
488.443	0.03
488.794	0.03
489.146	0.03
489.498	0.03
489.849	0.03
490.201	0.03
490.552	0.03
490.904	0.03
491.255	0.03
491.607	0.03
491.958	0.04
492.309	0.04
492.661	0.05
493.012	0.04
493.363	0.04
493.714	0.05
494.065	0.05
494.416	0.05
494.767	0.05
495.118	0.05
495.469	0.05
495.82	0.05
496.171	0.05
496.522	0.05
496.872	0.06
497.223	0.06
497.574	0.06
497.924	0.06
498.275	0.06
498.626	0.07
498.976	0.06
499.327	0.07
499.677	0.07
500.027	0.07
500.378	0.07
500.728	0.07
501.078	0.07
501.428	0.07
501.779	0.07
502.129	0.07
502.479	0.08
502.829	0.08
503.179	0.08
503.529	0.08
503.879	0.08
504.229	0.08
504.578	0.08
504.928	0.09
505.278	0.08
505.628	0.09
505.977	0.09
506.327	0.09
506.676	0.08
507.026	0.09
507.375	0.09
507.725	0.1
508.074	0.09
508.424	0.09
508.773	0.09
509.122	0.1
509.471	0.1
509.82	0.09
510.17	0.1
510.519	0.1
510.868	0.1
511.217	0.1
511.566	0.1
511.915	0.1
512.263	0.1
512.612	0.11
512.961	0.11
513.31	0.11
513.659	0.11
514.007	0.11
514.356	0.11
514.704	0.11
515.053	0.12
515.401	0.12
515.75	0.12
516.098	0.11
516.447	0.12
516.795	0.12
517.143	0.12
517.491	0.12
517.839	0.12
518.188	0.12
518.536	0.12
518.884	0.12
519.232	0.13
519.58	0.13
519.928	0.13
520.275	0.12
520.623	0.13
520.971	0.13
521.319	0.14
521.666	0.13
522.014	0.14
522.362	0.14
522.709	0.13
523.057	0.13
523.404	0.14
523.752	0.14
524.099	0.14
524.446	0.14
524.794	0.14
525.141	0.14
525.488	0.15
525.835	0.15
526.182	0.15
526.529	0.15
526.876	0.15
527.223	0.15
527.57	0.15
527.917	0.15
528.264	0.15
528.611	0.15
528.958	0.15
529.304	0.16
529.651	0.16
529.998	0.15
530.344	0.16
530.691	0.16
531.037	0.16
531.384	0.16
531.73	0.16
532.076	0.16
532.423	0.16
532.769	0.17
533.115	0.17
533.461	0.17
533.807	0.17
534.154	0.17
534.5	0.18
534.846	0.18
535.192	0.17
535.537	0.18
535.883	0.18
536.229	0.18
536.575	0.18
536.921	0.18
537.266	0.19
537.612	0.18
537.957	0.18
538.303	0.19
538.649	0.19
538.994	0.19
539.339	0.19
539.685	0.19
540.03	0.19
540.375	0.19
540.721	0.19
541.066	0.2
541.411	0.2
541.756	0.2
542.101	0.2
542.446	0.2
542.791	0.2
543.136	0.21
543.481	0.21
543.825	0.21
544.17	0.21
544.515	0.21
544.86	0.21
545.204	0.21
545.549	0.21
545.893	0.22
546.238	0.22
546.582	0.22
546.927	0.22
547.271	0.22
547.615	0.23
547.96	0.23
548.304	0.22
548.648	0.23
548.992	0.23
549.336	0.23
549.68	0.23
550.024	0.24
550.368	0.23
550.712	0.23
551.056	0.23
551.4	0.24
551.743	0.24
552.087	0.24
552.431	0.24
552.774	0.24
553.118	0.25
553.462	0.24
553.805	0.25
554.148	0.25
554.492	0.25
554.835	0.25
555.178	0.25
555.522	0.25
555.865	0.25
556.208	0.25
556.551	0.25
556.894	0.25
557.237	0.25
557.58	0.25
557.923	0.26
558.266	0.26
558.609	0.26
558.952	0.26
559.294	0.26
559.637	0.26
559.98	0.26
560.322	0.26
560.665	0.26
561.007	0.26
561.35	0.26
561.692	0.26
562.034	0.26
562.377	0.26
562.719	0.27
563.061	0.27
563.403	0.27
563.745	0.27
564.088	0.27
564.43	0.27
564.772	0.27
565.113	0.27
565.455	0.27
565.797	0.27
566.139	0.27
566.481	0.28
566.822	0.28
567.164	0.28
567.506	0.28
567.847	0.28
568.189	0.28
568.53	0.28
568.872	0.28
569.213	0.28
569.554	0.28
569.895	0.28
570.237	0.28
570.578	0.28
570.919	0.28
571.26	0.28
571.601	0.28
571.942	0.28
572.283	0.28
572.624	0.28
572.965	0.28
573.306	0.27
573.646	0.27
573.987	0.27
574.328	0.28
574.668	0.28
575.009	0.28
575.349	0.28
575.69	0.27
576.03	0.28
576.37	0.27
576.711	0.27
577.051	0.28
577.391	0.28
577.731	0.28
578.072	0.28
578.412	0.28
578.752	0.28
579.092	0.28
579.431	0.27
579.771	0.27
580.111	0.27
580.451	0.27
580.791	0.28
581.13	0.28
581.47	0.28
581.81	0.28
582.149	0.28
582.489	0.28
582.828	0.28
583.167	0.28
583.507	0.26
583.846	0.23
584.185	0.25
584.525	0.27
584.864	0.28
585.203	0.28
585.542	0.29
585.881	0.29
586.22	0.29
586.559	0.29
586.898	0.29
587.236	0.29
587.575	0.29
587.914	0.29
588.252	0.3
588.591	0.29
588.93	0.3
589.268	0.3
589.607	0.3
589.945	0.3
590.283	0.3
590.622	0.3
590.96	0.31
591.298	0.31
591.636	0.31
591.974	0.31
592.313	0.31
592.651	0.32
592.989	0.32
593.326	0.32
593.664	0.32
594.002	0.32
594.34	0.32
594.678	0.32
595.015	0.32
595.353	0.31
595.691	0.32
596.028	0.32
596.366	0.33
596.703	0.33
597.04	0.33
597.378	0.33
597.715	0.33
598.052	0.33
598.389	0.34
598.726	0.34
599.064	0.34
599.401	0.34
599.738	0.34
600.074	0.34
600.411	0.34
600.748	0.34
601.085	0.34
601.422	0.33
601.758	0.33
602.095	0.34
602.432	0.34
602.768	0.34
603.105	0.34
603.441	0.34
603.777	0.35
604.114	0.35
604.45	0.35
604.786	0.35
605.122	0.35
605.459	0.35
605.795	0.34
606.131	0.34
606.467	0.35
606.803	0.34
607.139	0.34
607.474	0.35
607.81	0.34
608.146	0.34
608.482	0.34
608.817	0.34
609.153	0.34
609.488	0.34
609.824	0.33
610.159	0.34
610.495	0.34
610.83	0.34
611.165	0.34
611.5	0.33
611.836	0.33
612.171	0.33
612.506	0.33
612.841	0.33
613.176	0.34
613.511	0.33
613.845	0.33
614.18	0.33
614.515	0.33
614.85	0.33
615.184	0.33
615.519	0.33
615.854	0.33
616.188	0.33
616.523	0.32
616.857	0.32
617.191	0.32
617.526	0.32
617.86	0.32
618.194	0.32
618.528	0.32
618.862	0.32
619.196	0.32
619.53	0.32
619.864	0.32
620.198	0.31
620.532	0.31
620.866	0.31
621.2	0.31
621.533	0.31
621.867	0.31
622.201	0.31
622.534	0.31
622.868	0.31
623.201	0.31
623.534	0.3
623.868	0.31
624.201	0.31
624.534	0.3
624.868	0.3
625.201	0.3
625.534	0.3
625.867	0.3
626.2	0.3
626.533	0.29
626.865	0.3
627.198	0.29
627.531	0.29
627.864	0.29
628.196	0.29
628.529	0.29
628.862	0.29
629.194	0.29
629.527	0.28
629.859	0.28
630.191	0.28
630.524	0.28
630.856	0.27
631.188	0.28
631.52	0.27
631.852	0.27
632.184	0.27
632.516	0.27
632.848	0.27
633.18	0.26
633.512	0.26
633.844	0.27
634.175	0.26
634.507	0.26
634.839	0.25
635.17	0.25
635.502	0.26
635.833	0.25
636.165	0.25
636.496	0.25
636.827	0.25
637.159	0.24
637.49	0.24
637.821	0.25
638.152	0.24
638.483	0.24
638.814	0.24
639.145	0.24
639.476	0.23
639.807	0.23
640.137	0.23
640.468	0.22
640.799	0.22
641.129	0.22
641.46	0.21
641.791	0.21
642.121	0.22
642.451	0.22
642.782	0.21
643.112	0.21
643.442	0.21
643.773	0.21
644.103	0.21
644.433	0.21
644.763	0.2
645.093	0.21
645.423	0.2
645.753	0.2
646.082	0.2
646.412	0.2
646.742	0.2
647.072	0.2
647.401	0.2
647.731	0.2
648.06	0.2
648.39	0.2
648.719	0.2
649.048	0.2
649.378	0.2
649.707	0.19
650.036	0.2
650.365	0.2
650.694	0.19
651.023	0.19
651.352	0.19
651.681	0.19
652.01	0.19
652.339	0.19
652.668	0.2
652.996	0.2
653.325	0.19
653.654	0.19
653.982	0.19
654.311	0.19
654.639	0.19
654.967	0.19
655.296	0.19
655.624	0.19
655.952	0.19
656.28	0.19
656.609	0.19
656.937	0.19
657.265	0.18
657.593	0.16
657.92	0.04
658.248	0
658.576	0
658.904	0.07
659.231	0.16
659.559	0.18
659.887	0.19
660.214	0.19
660.542	0.19
660.869	0.19
661.196	0.19
661.524	0.19
661.851	0.18
662.178	0.19
662.505	0.18
662.832	0.18
663.159	0.18
663.486	0.18
663.813	0.18
664.14	0.19
664.467	0.19
664.794	0.18
665.12	0.19
665.447	0.18
665.774	0.19
666.1	0.18
666.427	0.18
666.753	0.18
667.079	0.18
667.406	0.18
667.732	0.17
668.058	0.18
668.384	0.18
668.71	0.18
669.036	0.18
669.362	0.17
669.688	0.18
670.014	0.18
670.34	0.18
670.666	0.17
670.991	0.17
671.317	0.17
671.643	0.17
671.968	0.17
672.294	0.17
672.619	0.17
672.945	0.17
673.27	0.17
673.595	0.17
673.92	0.17
674.246	0.17
674.571	0.16
674.896	0.16
675.221	0.16
675.546	0.16
675.87	0.16
676.195	0.16
676.52	0.16
676.845	0.16
677.169	0.16
677.494	0.16
677.819	0.16
678.143	0.16
678.468	0.15
678.792	0.16
679.116	0.15
679.44	0.15
679.765	0.14
680.089	0.14
680.413	0.14
680.737	0.14
681.061	0.14
681.385	0.14
681.709	0.14
682.033	0.14
682.356	0.14
682.68	0.14
683.004	0.14
683.327	0.14
683.651	0.13
683.974	0.13
684.298	0.13
684.621	0.13
684.944	0.13
685.268	0.12
685.591	0.12
685.914	0.12
686.237	0.12
686.56	0.12
686.883	0.12
687.206	0.12
687.529	0.12
687.852	0.12
688.175	0.11
688.497	0.12
688.82	0.11
689.142	0.11
689.465	0.11
689.787	0.11
690.11	0.11
690.432	0.11
690.755	0.11
691.077	0.11
691.399	0.11
691.721	0.11
692.043	0.11
692.365	0.1
692.687	0.1
693.009	0.1
693.331	0.1
693.653	0.1
693.974	0.1
694.296	0.1
694.618	0.1
694.939	0.09
695.261	0.1
695.582	0.09
695.904	0.09
696.225	0.09
696.546	0.09
696.868	0.09
697.189	0.09
697.51	0.09
697.831	0.09
698.152	0.09
698.473	0.09
698.794	0.08
699.114	0.09
699.435	0.08
699.756	0.08
700.077	0.08
700.397	0.08
700.718	0.08
701.038	0.08
701.359	0.08
701.679	0.08
701.999	0.09
702.32	0.09
702.64	0.09
702.96	0.08
703.28	0.08
703.6	0.08
703.92	0.08
704.24	0.08
704.56	0.08
704.879	0.08
705.199	0.08
705.519	0.08
705.838	0.08
706.158	0.08
706.478	0.07
706.797	0.07
707.116	0.07
707.436	0.07
707.755	0.07
708.074	0.07
708.393	0.07
708.712	0.07
709.031	0.07
709.35	0.07
709.669	0.07
709.988	0.07
710.307	0.07
710.626	0.07
710.944	0.07
711.263	0.07
711.582	0.07
711.9	0.07
712.219	0.07
712.537	0.07
712.855	0.07
713.174	0.07
713.492	0.07
713.81	0.07
714.128	0.07
714.446	0.07
714.764	0.07
715.082	0.07
715.4	0.07
715.718	0.07
716.035	0.07
716.353	0.07
716.671	0.07
716.988	0.07
717.306	0.07
717.623	0.07
717.941	0.07
718.258	0.07
718.575	0.07
718.893	0.07
719.21	0.07
719.527	0.07
719.844	0.07
720.161	0.07
720.478	0.07
720.795	0.07
721.112	0.07
721.428	0.07
721.745	0.07
722.062	0.07
722.378	0.07
722.695	0.07
723.011	0.07
723.328	0.07
723.644	0.08
723.96	0.08
724.276	0.08
724.593	0.08
724.909	0.08
725.225	0.08
725.541	0.08
725.857	0.09
726.173	0.08
726.488	0.08
726.804	0.08
727.12	0.08
727.435	0.08
727.751	0.08
728.067	0.08
728.382	0.08
728.697	0.08
729.013	0.08
729.328	0.08
729.643	0.08
729.958	0.08
730.273	0.08
730.588	0.08
730.903	0.08
731.218	0.08
731.533	0.08
731.848	0.08
732.163	0.08
732.477	0.08
732.792	0.08
733.107	0.08
733.421	0.08
733.736	0.08
734.05	0.08
734.364	0.08
734.678	0.08
734.993	0.08
735.307	0.08
735.621	0.08
735.935	0.08
736.249	0.08
736.563	0.08
736.877	0.08
737.19	0.08
737.504	0.08
737.818	0.08
738.131	0.08
738.445	0.08
738.758	0.08
739.072	0.08
739.385	0.08
739.698	0.08
740.012	0.08
740.325	0.08
740.638	0.07
740.951	0.07
741.264	0.07
741.577	0.07
741.89	0.07
742.203	0.07
742.515	0.07
742.828	0.07
743.141	0.07
743.453	0.07
743.766	0.07
744.078	0.07
744.391	0.07
744.703	0.07
745.015	0.07
745.327	0.07
745.639	0.07
745.952	0.07
746.264	0.07
746.575	0.07
746.887	0.07
747.199	0.07
747.511	0.07
747.823	0.07
748.134	0.07
748.446	0.07
748.757	0.07
749.069	0.07
749.38	0.07
749.692	0.07
750.003	0.07
750.314	0.07
750.625	0.07
750.936	0.07
751.248	0.07
751.559	0.07
751.869	0.07
752.18	0.06
752.491	0.06
752.802	0.06
753.112	0.06
753.423	0.06
753.734	0.06
754.044	0.06
754.355	0.06
754.665	0.06
754.975	0.06
755.285	0.06
755.596	0.05
755.906	0.05
756.216	0.05
756.526	0.05
756.836	0.05
757.146	0.05
757.455	0.05
757.765	0.05
758.075	0.05
758.385	0.05
758.694	0.05
759.004	0.05
759.313	0.05
759.622	0.05
759.932	0.05
760.241	0.05
760.55	0.04
760.859	0.04
761.168	0.04
761.477	0.04
761.786	0.04
762.095	0.04
762.404	0.04
762.713	0.04
763.021	0.04
763.33	0.04
763.639	0.04
763.947	0.04
764.256	0.04
764.564	0.04
764.872	0.04
765.181	0.04
765.489	0.04
765.797	0.04
766.105	0.04
766.413	0.03
766.721	0.03
767.029	0.03
767.337	0.03
767.644	0.03
767.952	0.03
768.26	0.04
768.567	0.04
768.875	0.04
769.182	0.04
769.49	0.03
769.797	0.03
770.104	0.03
770.411	0.04
770.718	0.04
771.026	0.03
771.333	0.04
771.639	0.04
771.946	0.03
772.253	0.03
772.56	0.03
772.867	0.03
773.173	0.03
773.48	0.03
773.786	0.03
774.093	0.03
774.399	0.03
774.705	0.03
775.012	0.03
775.318	0.03
775.624	0.03
775.93	0.03
776.236	0.03
776.542	0.03
776.848	0.03
777.154	0.03
777.459	0.04
777.765	0.04
778.071	0.04
778.376	0.03
778.682	0.04
778.987	0.04
779.292	0.03
779.598	0.03
779.903	0.03
780.208	0.03
780.513	0.03
780.818	0.03
781.123	0.03
781.428	0.03
781.733	0.03
782.038	0.03
782.343	0.03
782.647	0.03
782.952	0.03
783.256	0.03
783.561	0.03
783.865	0.03
784.17	0.03
784.474	0.03
784.778	0.03
785.082	0.03
785.386	0.04
785.69	0.04
785.994	0.04
786.298	0.04
786.602	0.04
786.906	0.04
787.209	0.03
787.513	0.03
787.817	0.04
788.12	0.04
788.424	0.04
788.727	0.03
789.03	0.04
789.333	0.03
789.637	0.03
789.94	0.03
790.243	0.02
790.546	0.03
790.849	0.02
791.152	0.02
791.454	0.02
791.757	0.02
792.06	0.02
792.362	0.02
792.665	0.02
792.967	0.01
793.27	0.02
793.572	0.02
793.874	0.02
794.177	0.02
794.479	0.02
794.781	0.02
795.083	0.02
795.385	0.03
795.687	0.03
795.989	0.03
796.29	0.03
796.592	0.03
796.894	0.03
797.195	0.03
797.497	0.03
797.798	0.02
798.1	0.03
798.401	0.02
798.702	0.02
799.003	0.02
799.304	0.02
799.605	0.02
799.906	0.02
800.207	0.02
800.508	0.02
800.809	0.02
801.11	0.02
801.41	0.02
801.711	0.02
802.011	0.02
802.312	0.03
802.612	0.02
802.913	0.03
803.213	0.03
803.513	0.03
803.813	0.02
804.113	0.02
804.413	0.02
804.713	0.02
805.013	0.02
805.313	0.02
805.613	0.02
805.912	0.02
806.212	0.02
806.511	0.02
806.811	0.02
807.11	0.02
807.41	0.02
807.709	0.03
808.008	0.02
808.307	0.02
808.606	0.03
808.905	0.03
809.204	0.02
809.503	0.02
809.802	0.02
810.101	0.02
810.399	0.02
810.698	0.02
810.997	0.02
811.295	0.02
811.593	0.03
811.892	0.03
812.19	0.03
812.488	0.03
812.786	0.03
813.084	0.02
813.383	0.02
813.68	0.02
813.978	0.02
814.276	0.02
814.574	0.02
814.872	0.02
815.169	0.02
815.467	0.02
815.764	0.02
816.062	0.02
816.359	0.02
816.656	0.01
816.954	0.02
817.251	0.02
817.548	0.01
817.845	0.02
818.142	0.02
818.439	0.02
818.735	0.02
819.032	0.01
819.329	0.02
819.626	0.02
819.922	0.01
820.219	0.02
820.515	0.02
820.811	0.02
821.108	0.01
821.404	0.02
821.7	0.01
821.996	0.02
822.292	0.02
822.588	0.02
822.884	0.01
823.18	0.01
823.475	0.01
823.771	0.01
824.067	0.02
824.362	0.01
824.658	0.02
824.953	0.02
825.249	0.02
825.544	0.01
825.839	0.02
826.134	0.02
826.429	0.01
826.724	0.01
827.019	0.02
827.314	0.02
827.609	0.01
827.904	0.01
828.198	0.01
828.493	0.02
828.787	0.01
829.082	0.02
829.376	0.01
829.671	0.01
829.965	0.01
830.259	0.01
830.553	0.01
830.847	0.01
831.141	0.01
831.435	0.01
831.729	0
832.023	0.01
832.317	0
832.61	0.01
832.904	0.01
833.197	0.01
833.491	0
833.784	0.01
834.077	0
834.371	0.02
834.664	0.02
834.957	0.02
835.25	0.02
835.543	0.02
835.836	0.02
836.129	0.01
836.421	0.02
836.714	0.01
837.007	0.01
837.299	0.01
837.592	0.02
837.884	0.01
838.177	0
838.469	0.01
838.761	0
839.053	0.01
839.345	0.01
839.637	0.01
839.929	0.01
840.221	0.02
840.513	0.02
840.805	0.02
841.096	0.01
841.388	0.01
841.68	0.01
841.971	0.02
842.262	0.01
842.554	0.01
842.845	0.01
843.136	0.02
843.427	0.01
843.718	0.01
844.009	0
844.3	0.01
844.591	0
844.882	0.01
845.173	0.02
845.463	0.01
845.754	0.01
846.044	0.01
846.335	0.01
846.625	0.01
846.915	0.01
847.206	0.01
847.496	0.02
847.786	0.01
848.076	0.01
848.366	0.01
848.656	0
848.945	0
849.235	0.02
849.525	0
849.814	0.02
850.104	0.01
850.393	0.02
850.683	0.02
850.972	0.02
851.261	0.01
851.551	0.02
851.84	0.04
852.129	0.02
852.418	0.01
852.707	0.02
852.995	0.01
853.284	0.02
853.573	0.02
853.862	0.03
854.15	0.02
854.439	0
854.727	0
855.015	0.01
855.304	0.01
855.592	0
855.88	0.01
856.168	0.01
856.456	-0.01
856.744	0.01
857.032	-0.02
857.32	-0.01
857.607	0.01
857.895	-0.01
858.183	-0.01
858.47	-0.01
858.757	-0
859.045	-0
859.332	0.01
859.619	0.01
859.907	-0.01
860.194	-0.01
860.481	-0.01
860.768	-0.01
861.054	0
861.341	0.01
861.628	-0.01
861.915	-0.01
862.201	0.01
862.488	-0.02
862.774	0
863.061	-0.01
863.347	0.01
863.633	-0.01
863.919	-0.03
864.205	0
864.491	-0.01
864.777	-0.02
865.063	-0
865.349	-0
865.635	0.01
865.92	0.01
866.206	-0.01
866.492	-0
866.777	-0.03
867.062	-0.03
867.348	-0.07
867.633	0
867.918	-0.01
868.203	0.01
868.488	-0.04
868.773	-0.02
869.058	-0.04
869.343	-0.04
869.628	-0.01
869.912	-0.01
870.197	0
870.482	-0.04
870.766	-0.02
871.05	0.01
871.335	-0.02
871.619	-0.02
871.903	-0.04
872.187	-0.01
872.471	-0.04
872.755	-0.06
873.039	-0.07
873.323	-0.07
873.607	0.01
873.89	-0.07
874.174	-0.03
874.458	-0.05
874.741	-0.04
875.024	-0.05
875.308	0
875.591	-0.03
875.874	0.09
876.157	-0.03
876.44	-0.07
876.723	0.04
877.006	0.02
877.289	-0.05
877.572	-0.05
877.854	0.01
878.137	-0.03
878.42	0.05
878.702	-0.03
878.984	0.05
879.267	-0.05
879.549	-0.02
879.831	-0.05
880.113	-0.04
880.395	-0
880.677	-0.09
880.959	-0.07
