Data from Rubpy_EV_900_EDTA_Buffered_Absorbance_13-44-23-784.txt Node
Date: Tue Jun 30 13:44:23 BST 2026
User: fpm-admin
Spectrometer: OFX00224
Trigger mode: 0
Integration Time (sec): 7.000000E-2
Scans to average: 3
Nonlinearity correction enabled: false
Boxcar width: 0
Storing dark spectrum: false
XAxis mode: Wavelengths
Number of Pixels in Spectrum: 2136
>>>>>Begin Spectral Data<<<<<
154.91	-0
155.289	-1.51
155.669	-0
156.048	-0.96
156.428	0.45
156.807	-0
157.186	-0.28
157.566	-0
157.945	-0.06
158.325	-0.3
158.704	-0
159.083	0.2
159.462	0.24
159.842	0.86
160.221	0.3
160.6	0.55
160.979	-0.04
161.359	-0
161.738	0.06
162.117	-0.11
162.496	-0
162.875	-0
163.254	-0.2
163.633	0.4
164.012	-1.08
164.391	0.35
164.77	-0
165.149	0.19
165.528	-0
165.907	-0
166.286	-0
166.665	-0
167.044	-0.7
167.423	-0.06
167.802	-0.41
168.181	0.02
168.559	-0
168.938	-0
169.317	-0.03
169.696	-0
170.074	-0
170.453	-0
170.832	-0
171.21	-0.02
171.589	0.81
171.968	-0
172.346	-1.01
172.725	0.67
173.103	-0
173.482	-0.07
173.861	-0.06
174.239	-0.04
174.617	-0
174.996	-0
175.374	0.9
175.753	-0.11
176.131	-0
176.51	-0.46
176.888	-0
177.266	-0
177.645	-0.06
178.023	0.71
178.401	-0.09
178.779	0.28
179.158	-0
179.536	0.56
179.914	-0.22
180.292	-0.7
180.67	-0
181.048	-0
181.427	-0.09
181.805	-0.45
182.183	-1.22
182.561	-0
182.939	-0
183.317	-0
183.695	0.22
184.073	-0.73
184.451	-0
184.829	1.59
185.206	-0.06
185.584	-0.18
185.962	-0
186.34	-0.43
186.718	-0.24
187.096	-0.23
187.473	0.09
187.851	-0.24
188.229	0.24
188.607	0.1
188.984	0.15
189.362	0.11
189.74	0.04
190.117	0.06
190.495	0.1
190.872	0.06
191.25	0.19
191.627	0.12
192.005	0.12
192.382	0.17
192.76	0.15
193.137	0.12
193.515	0.11
193.892	0.08
194.269	0.09
194.647	0.1
195.024	0.12
195.401	0.17
195.779	0.13
196.156	0.19
196.533	0.02
196.91	0.08
197.288	0.17
197.665	-0
198.042	0.13
198.419	0.06
198.796	0.2
199.173	0.16
199.55	0.27
199.927	0.16
200.304	0.13
200.681	0.13
201.058	0.08
201.435	0.19
201.812	0.21
202.189	0.24
202.566	0.1
202.943	0.14
203.32	0.22
203.697	0.13
204.073	0.1
204.45	0.22
204.827	0.14
205.204	0.22
205.58	0.09
205.957	0.24
206.334	0.1
206.71	0.15
207.087	0.09
207.464	0.17
207.84	0.11
208.217	0.13
208.593	0.18
208.97	0.18
209.346	0.14
209.723	0.15
210.099	0.18
210.476	0.11
210.852	0.17
211.228	0.13
211.605	0.18
211.981	0.17
212.357	0.16
212.733	0.25
213.11	0.17
213.486	0.12
213.862	0.23
214.238	0.18
214.614	0.12
214.991	0.16
215.367	0.14
215.743	0.15
216.119	0.17
216.495	0.17
216.871	0.13
217.247	0.16
217.623	0.1
217.999	0.09
218.375	0.11
218.751	0.24
219.127	0.11
219.502	0.18
219.878	0.15
220.254	0.18
220.63	0.07
221.006	0.15
221.381	0.19
221.757	0.15
222.133	0.11
222.508	0.17
222.884	0.22
223.26	0.21
223.635	0.08
224.011	0.12
224.386	0.08
224.762	0.22
225.137	0.11
225.513	0.14
225.888	0.1
226.264	0.14
226.639	0.11
227.014	0.13
227.39	0.04
227.765	0.07
228.14	0.21
228.516	0.1
228.891	0.14
229.266	0.19
229.641	0.28
230.017	0.28
230.392	0.32
230.767	0.23
231.142	0.17
231.517	0.26
231.892	0.08
232.267	0.21
232.642	0.24
233.017	0.1
233.392	0.14
233.767	0.16
234.142	0.14
234.517	0.13
234.892	0.12
235.267	0.24
235.641	0.15
236.016	0.24
236.391	0.08
236.766	0.1
237.14	0.08
237.515	0.17
237.89	0.16
238.264	0.14
238.639	0.2
239.014	0.25
239.388	0.19
239.763	0.15
240.137	0.22
240.512	0.12
240.886	0.16
241.261	0.11
241.635	0.16
242.009	0.19
242.384	0.17
242.758	0.31
243.132	0.09
243.507	0.19
243.881	0.18
244.255	0.21
244.629	0.23
245.004	0.18
245.378	0.19
245.752	0.18
246.126	0.1
246.5	0.11
246.874	0.22
247.248	0.23
247.622	0.1
247.996	0.09
248.37	0.13
248.744	0.16
249.118	0.2
249.492	0.12
249.866	0.16
250.24	0.07
250.613	0.18
250.987	0.21
251.361	0.18
251.735	0.19
252.108	0.09
252.482	0.22
252.856	0.12
253.229	0.11
253.603	0.19
253.977	0.15
254.35	0.2
254.724	0.16
255.097	0.17
255.471	0.3
255.844	0.23
256.218	0.2
256.591	0.12
256.964	0.14
257.338	0.25
257.711	0.09
258.084	0.12
258.458	0.07
258.831	0.18
259.204	0.13
259.577	0.14
259.95	0.12
260.323	0.19
260.697	0.25
261.07	0.17
261.443	0.18
261.816	0.26
262.189	0.09
262.562	0.24
262.935	0.14
263.308	0.18
263.68	0.14
264.053	0.17
264.426	0.27
264.799	0.12
265.172	0.16
265.545	0.17
265.917	0.18
266.29	0.15
266.663	0.18
267.035	0.14
267.408	0.22
267.781	0.23
268.153	0.21
268.526	0.23
268.898	0.22
269.271	0.12
269.643	0.12
270.016	0.14
270.388	0.18
270.76	0.18
271.133	0.28
271.505	0.28
271.877	0.13
272.25	0.16
272.622	0.18
272.994	0.17
273.366	0.16
273.739	0.08
274.111	0.14
274.483	0.18
274.855	0.15
275.227	0.22
275.599	0.11
275.971	0.23
276.343	0.16
276.715	0.1
277.087	0.22
277.459	0.2
277.831	0.18
278.203	0.16
278.574	0.14
278.946	0.15
279.318	0.18
279.69	0.12
280.061	0.11
280.433	0.17
280.805	0.14
281.176	0.13
281.548	0.19
281.92	0.16
282.291	0.18
282.663	0.21
283.034	0.22
283.406	0.17
283.777	0.18
284.148	0.18
284.52	0.18
284.891	0.21
285.262	0.18
285.634	0.24
286.005	0.16
286.376	0.14
286.747	0.22
287.119	0.11
287.49	0.22
287.861	0.17
288.232	0.11
288.603	0.26
288.974	0.19
289.345	0.22
289.716	0.16
290.087	0.16
290.458	0.12
290.829	0.13
291.2	0.17
291.571	0.12
291.941	0.15
292.312	0.22
292.683	0.21
293.054	0.17
293.424	0.15
293.795	0.18
294.166	0.29
294.536	0.2
294.907	0.18
295.277	0.14
295.648	0.16
296.018	0.19
296.389	0.22
296.759	0.13
297.13	0.16
297.5	0.15
297.871	0.18
298.241	0.12
298.611	0.18
298.981	0.15
299.352	0.15
299.722	0.21
300.092	0.17
300.462	0.21
300.832	0.14
301.202	0.16
301.573	0.17
301.943	0.14
302.313	0.1
302.683	0.11
303.053	0.12
303.422	0.12
303.792	0.12
304.162	0.12
304.532	0.12
304.902	0.12
305.272	0.12
305.641	0.13
306.011	0.12
306.381	0.12
306.75	0.12
307.12	0.13
307.49	0.13
307.859	0.13
308.229	0.14
308.598	0.13
308.968	0.14
309.337	0.14
309.707	0.14
310.076	0.14
310.445	0.15
310.815	0.15
311.184	0.15
311.553	0.16
311.923	0.16
312.292	0.16
312.661	0.15
313.03	0.16
313.399	0.15
313.768	0.15
314.137	0.15
314.506	0.16
314.875	0.15
315.244	0.15
315.613	0.16
315.982	0.15
316.351	0.16
316.72	0.15
317.089	0.15
317.458	0.15
317.826	0.15
318.195	0.15
318.564	0.15
318.933	0.15
319.301	0.15
319.67	0.14
320.038	0.14
320.407	0.14
320.775	0.15
321.144	0.14
321.512	0.13
321.881	0.13
322.249	0.13
322.618	0.13
322.986	0.13
323.354	0.13
323.723	0.13
324.091	0.13
324.459	0.13
324.827	0.13
325.195	0.12
325.564	0.12
325.932	0.13
326.3	0.12
326.668	0.12
327.036	0.12
327.404	0.12
327.772	0.13
328.14	0.13
328.508	0.13
328.875	0.13
329.243	0.13
329.611	0.13
329.979	0.13
330.346	0.13
330.714	0.13
331.082	0.13
331.449	0.12
331.817	0.13
332.185	0.13
332.552	0.13
332.92	0.13
333.287	0.14
333.655	0.13
334.022	0.13
334.389	0.13
334.757	0.13
335.124	0.14
335.491	0.13
335.859	0.14
336.226	0.14
336.593	0.14
336.96	0.15
337.327	0.14
337.695	0.15
338.062	0.15
338.429	0.15
338.796	0.15
339.163	0.15
339.53	0.16
339.897	0.16
340.263	0.16
340.63	0.17
340.997	0.17
341.364	0.16
341.731	0.17
342.097	0.17
342.464	0.18
342.831	0.18
343.197	0.18
343.564	0.18
343.931	0.19
344.297	0.19
344.664	0.2
345.03	0.2
345.396	0.2
345.763	0.21
346.129	0.2
346.496	0.21
346.862	0.21
347.228	0.21
347.594	0.22
347.961	0.22
348.327	0.23
348.693	0.23
349.059	0.23
349.425	0.23
349.791	0.24
350.157	0.24
350.523	0.24
350.889	0.25
351.255	0.25
351.621	0.26
351.987	0.27
352.353	0.27
352.719	0.28
353.084	0.28
353.45	0.28
353.816	0.29
354.181	0.3
354.547	0.3
354.913	0.31
355.278	0.31
355.644	0.32
356.009	0.32
356.375	0.34
356.74	0.34
357.106	0.35
357.471	0.35
357.836	0.36
358.202	0.37
358.567	0.38
358.932	0.38
359.297	0.39
359.663	0.4
360.028	0.4
360.393	0.41
360.758	0.41
361.123	0.42
361.488	0.42
361.853	0.43
362.218	0.43
362.583	0.43
362.948	0.44
363.312	0.44
363.677	0.45
364.042	0.46
364.407	0.47
364.772	0.48
365.136	0.49
365.501	0.49
365.865	0.51
366.23	0.52
366.595	0.53
366.959	0.54
367.324	0.54
367.688	0.55
368.052	0.56
368.417	0.57
368.781	0.58
369.145	0.59
369.51	0.59
369.874	0.59
370.238	0.6
370.602	0.6
370.967	0.6
371.331	0.59
371.695	0.59
372.059	0.59
372.423	0.59
372.787	0.59
373.151	0.57
373.515	0.58
373.878	0.58
374.242	0.58
374.606	0.57
374.97	0.58
375.334	0.59
375.697	0.58
376.061	0.58
376.425	0.6
376.788	0.59
377.152	0.6
377.515	0.6
377.879	0.61
378.242	0.61
378.606	0.62
378.969	0.63
379.333	0.63
379.696	0.63
380.059	0.65
380.422	0.66
380.786	0.68
381.149	0.69
381.512	0.7
381.875	0.72
382.238	0.74
382.601	0.75
382.964	0.77
383.327	0.79
383.69	0.82
384.053	0.84
384.416	0.86
384.779	0.87
385.142	0.89
385.504	0.9
385.867	0.92
386.23	0.94
386.593	0.93
386.955	0.94
387.318	0.94
387.68	0.94
388.043	0.93
388.405	0.93
388.768	0.93
389.13	0.91
389.493	0.91
389.855	0.9
390.217	0.9
390.58	0.89
390.942	0.9
391.304	0.9
391.666	0.91
392.028	0.93
392.391	0.95
392.753	0.98
393.115	1.01
393.477	1.04
393.839	1.08
394.201	1.12
394.563	1.16
394.924	1.21
395.286	1.24
395.648	1.29
396.01	1.31
396.371	1.34
396.733	1.39
397.095	1.39
397.456	1.39
397.818	1.42
398.18	1.38
398.541	1.39
398.903	1.34
399.264	1.32
399.625	1.27
399.987	1.24
400.348	1.18
400.709	1.12
401.071	1.07
401.432	1
401.793	0.95
402.154	0.88
402.515	0.83
402.876	0.78
403.238	0.72
403.599	0.67
403.96	0.62
404.32	0.57
404.681	0.53
405.042	0.5
405.403	0.46
405.764	0.43
406.125	0.41
406.485	0.37
406.846	0.35
407.207	0.33
407.567	0.31
407.928	0.3
408.288	0.28
408.649	0.27
409.009	0.25
409.37	0.24
409.73	0.22
410.091	0.21
410.451	0.2
410.811	0.2
411.171	0.19
411.532	0.18
411.892	0.17
412.252	0.17
412.612	0.16
412.972	0.16
413.332	0.15
413.692	0.15
414.052	0.14
414.412	0.14
414.772	0.13
415.132	0.13
415.492	0.13
415.851	0.12
416.211	0.12
416.571	0.12
416.931	0.12
417.29	0.11
417.65	0.11
418.009	0.1
418.369	0.11
418.728	0.1
419.088	0.1
419.447	0.1
419.807	0.1
420.166	0.1
420.525	0.09
420.884	0.09
421.244	0.09
421.603	0.09
421.962	0.09
422.321	0.08
422.68	0.08
423.039	0.08
423.398	0.09
423.757	0.08
424.116	0.09
424.475	0.08
424.834	0.08
425.193	0.08
425.551	0.08
425.91	0.08
426.269	0.08
426.628	0.08
426.986	0.08
427.345	0.07
427.703	0.08
428.062	0.07
428.42	0.08
428.779	0.07
429.137	0.08
429.496	0.06
429.854	0.06
430.212	0.06
430.57	0.06
430.929	0.06
431.287	0.06
431.645	0.07
432.003	0.06
432.361	0.06
432.719	0.06
433.077	0.07
433.435	0.06
433.793	0.06
434.151	0.06
434.509	0.06
434.866	0.06
435.224	0.06
435.582	0.06
435.94	0.05
436.297	0.06
436.655	0.05
437.012	0.05
437.37	0.05
437.727	0.05
438.085	0.06
438.442	0.05
438.8	0.05
439.157	0.05
439.514	0.05
439.872	0.05
440.229	0.05
440.586	0.05
440.943	0.05
441.3	0.05
441.657	0.05
442.014	0.05
442.371	0.04
442.728	0.04
443.085	0.04
443.442	0.03
443.799	0.04
444.156	0.04
444.513	0.04
444.869	0.04
445.226	0.03
445.583	0.04
445.939	0.03
446.296	0.04
446.652	0.03
447.009	0.04
447.365	0.04
447.722	0.03
448.078	0.03
448.434	0.04
448.791	0.03
449.147	0.03
449.503	0.03
449.859	0.03
450.215	0.03
450.571	0.03
450.928	0.02
451.284	0.01
451.64	0.02
451.995	0.01
452.351	0.01
452.707	0.01
453.063	0.02
453.419	0.01
453.775	0.01
454.13	0
454.486	0
454.842	-0
455.197	0.01
455.553	-0.01
455.908	-0.01
456.264	-0
456.619	-0.02
456.975	-0.02
457.33	-0.02
457.685	-0.02
458.04	-0.03
458.396	-0.03
458.751	-0.04
459.106	-0.04
459.461	-0.05
459.816	-0.05
460.171	-0.05
460.526	-0.06
460.881	-0.07
461.236	-0.07
461.591	-0.07
461.946	-0.08
462.301	-0.08
462.655	-0.09
463.01	-0.08
463.365	-0.09
463.719	-0.1
464.074	-0.1
464.428	-0.11
464.783	-0.11
465.137	-0.12
465.492	-0.12
465.846	-0.12
466.201	-0.13
466.555	-0.12
466.909	-0.12
467.263	-0.12
467.618	-0.11
467.972	-0.12
468.326	-0.12
468.68	-0.13
469.034	-0.13
469.388	-0.13
469.742	-0.14
470.096	-0.14
470.45	-0.13
470.804	-0.13
471.157	-0.13
471.511	-0.14
471.865	-0.13
472.218	-0.13
472.572	-0.13
472.926	-0.12
473.279	-0.12
473.633	-0.12
473.986	-0.11
474.34	-0.1
474.693	-0.1
475.046	-0.09
475.4	-0.08
475.753	-0.07
476.106	-0.07
476.459	-0.07
476.812	-0.06
477.165	-0.05
477.519	-0.05
477.872	-0.04
478.224	-0.04
478.577	-0.03
478.93	-0.04
479.283	-0.03
479.636	-0.02
479.989	-0.02
480.341	-0.02
480.694	-0.02
481.047	-0.01
481.399	-0.01
481.752	-0
482.104	0.01
482.457	0.01
482.809	0.01
483.162	0.01
483.514	0.01
483.866	0.02
484.219	0.01
484.571	0.02
484.923	0.02
485.275	0.02
485.627	0.02
485.979	0.03
486.331	0.03
486.683	0.03
487.035	0.03
487.387	0.04
487.739	0.04
488.091	0.05
488.443	0.05
488.794	0.05
489.146	0.05
489.498	0.06
489.849	0.05
490.201	0.05
490.552	0.05
490.904	0.06
491.255	0.05
491.607	0.05
491.958	0.06
492.309	0.06
492.661	0.06
493.012	0.06
493.363	0.06
493.714	0.07
494.065	0.07
494.416	0.07
494.767	0.06
495.118	0.07
495.469	0.07
495.82	0.07
496.171	0.07
496.522	0.07
496.872	0.08
497.223	0.08
497.574	0.08
497.924	0.08
498.275	0.08
498.626	0.08
498.976	0.09
499.327	0.09
499.677	0.09
500.027	0.09
500.378	0.1
500.728	0.1
501.078	0.1
501.428	0.1
501.779	0.1
502.129	0.1
502.479	0.1
502.829	0.1
503.179	0.11
503.529	0.11
503.879	0.11
504.229	0.11
504.578	0.11
504.928	0.11
505.278	0.11
505.628	0.12
505.977	0.12
506.327	0.12
506.676	0.12
507.026	0.12
507.375	0.12
507.725	0.12
508.074	0.13
508.424	0.12
508.773	0.12
509.122	0.13
509.471	0.13
509.82	0.13
510.17	0.13
510.519	0.13
510.868	0.14
511.217	0.13
511.566	0.14
511.915	0.14
512.263	0.14
512.612	0.14
512.961	0.14
513.31	0.14
513.659	0.14
514.007	0.15
514.356	0.15
514.704	0.15
515.053	0.15
515.401	0.15
515.75	0.15
516.098	0.15
516.447	0.16
516.795	0.16
517.143	0.16
517.491	0.16
517.839	0.16
518.188	0.16
518.536	0.17
518.884	0.17
519.232	0.16
519.58	0.17
519.928	0.17
520.275	0.17
520.623	0.17
520.971	0.17
521.319	0.18
521.666	0.18
522.014	0.18
522.362	0.18
522.709	0.18
523.057	0.18
523.404	0.18
523.752	0.19
524.099	0.18
524.446	0.19
524.794	0.19
525.141	0.19
525.488	0.19
525.835	0.19
526.182	0.2
526.529	0.2
526.876	0.19
527.223	0.2
527.57	0.2
527.917	0.2
528.264	0.2
528.611	0.2
528.958	0.2
529.304	0.21
529.651	0.21
529.998	0.21
530.344	0.21
530.691	0.21
531.037	0.21
531.384	0.21
531.73	0.21
532.076	0.21
532.423	0.22
532.769	0.22
533.115	0.22
533.461	0.22
533.807	0.22
534.154	0.23
534.5	0.23
534.846	0.23
535.192	0.23
535.537	0.24
535.883	0.24
536.229	0.24
536.575	0.24
536.921	0.24
537.266	0.24
537.612	0.25
537.957	0.24
538.303	0.25
538.649	0.25
538.994	0.25
539.339	0.25
539.685	0.25
540.03	0.25
540.375	0.26
540.721	0.26
541.066	0.26
541.411	0.26
541.756	0.26
542.101	0.26
542.446	0.27
542.791	0.27
543.136	0.27
543.481	0.28
543.825	0.27
544.17	0.28
544.515	0.28
544.86	0.28
545.204	0.28
545.549	0.28
545.893	0.29
546.238	0.29
546.582	0.29
546.927	0.29
547.271	0.3
547.615	0.3
547.96	0.3
548.304	0.3
548.648	0.3
548.992	0.3
549.336	0.3
549.68	0.3
550.024	0.31
550.368	0.31
550.712	0.31
551.056	0.31
551.4	0.31
551.743	0.31
552.087	0.32
552.431	0.32
552.774	0.32
553.118	0.33
553.462	0.32
553.805	0.33
554.148	0.33
554.492	0.33
554.835	0.33
555.178	0.33
555.522	0.33
555.865	0.33
556.208	0.33
556.551	0.33
556.894	0.34
557.237	0.33
557.58	0.34
557.923	0.34
558.266	0.34
558.609	0.34
558.952	0.34
559.294	0.34
559.637	0.34
559.98	0.34
560.322	0.35
560.665	0.34
561.007	0.35
561.35	0.35
561.692	0.35
562.034	0.35
562.377	0.35
562.719	0.35
563.061	0.36
563.403	0.36
563.745	0.36
564.088	0.35
564.43	0.35
564.772	0.35
565.113	0.36
565.455	0.36
565.797	0.36
566.139	0.36
566.481	0.36
566.822	0.36
567.164	0.36
567.506	0.37
567.847	0.36
568.189	0.36
568.53	0.36
568.872	0.37
569.213	0.37
569.554	0.37
569.895	0.37
570.237	0.37
570.578	0.37
570.919	0.37
571.26	0.36
571.601	0.36
571.942	0.36
572.283	0.37
572.624	0.36
572.965	0.36
573.306	0.36
573.646	0.36
573.987	0.37
574.328	0.37
574.668	0.37
575.009	0.36
575.349	0.37
575.69	0.37
576.03	0.37
576.37	0.36
576.711	0.36
577.051	0.36
577.391	0.37
577.731	0.37
578.072	0.37
578.412	0.37
578.752	0.37
579.092	0.37
579.431	0.37
579.771	0.36
580.111	0.35
580.451	0.36
580.791	0.37
581.13	0.37
581.47	0.37
581.81	0.37
582.149	0.37
582.489	0.37
582.828	0.37
583.167	0.37
583.507	0.35
583.846	0.33
584.185	0.35
584.525	0.37
584.864	0.37
585.203	0.38
585.542	0.38
585.881	0.39
586.22	0.39
586.559	0.38
586.898	0.38
587.236	0.38
587.575	0.38
587.914	0.38
588.252	0.39
588.591	0.39
588.93	0.4
589.268	0.39
589.607	0.39
589.945	0.4
590.283	0.4
590.622	0.4
590.96	0.4
591.298	0.41
591.636	0.41
591.974	0.41
592.313	0.42
592.651	0.42
592.989	0.42
593.326	0.42
593.664	0.42
594.002	0.42
594.34	0.42
594.678	0.42
595.015	0.42
595.353	0.42
595.691	0.43
596.028	0.43
596.366	0.43
596.703	0.44
597.04	0.44
597.378	0.44
597.715	0.44
598.052	0.44
598.389	0.44
598.726	0.44
599.064	0.45
599.401	0.45
599.738	0.45
600.074	0.45
600.411	0.45
600.748	0.45
601.085	0.45
601.422	0.44
601.758	0.45
602.095	0.45
602.432	0.45
602.768	0.45
603.105	0.45
603.441	0.46
603.777	0.46
604.114	0.46
604.45	0.46
604.786	0.46
605.122	0.46
605.459	0.46
605.795	0.46
606.131	0.46
606.467	0.46
606.803	0.45
607.139	0.46
607.474	0.45
607.81	0.45
608.146	0.45
608.482	0.45
608.817	0.45
609.153	0.44
609.488	0.44
609.824	0.44
610.159	0.45
610.495	0.45
610.83	0.45
611.165	0.44
611.5	0.44
611.836	0.44
612.171	0.44
612.506	0.44
612.841	0.44
613.176	0.44
613.511	0.44
613.845	0.44
614.18	0.44
614.515	0.44
614.85	0.44
615.184	0.44
615.519	0.43
615.854	0.43
616.188	0.43
616.523	0.43
616.857	0.43
617.191	0.42
617.526	0.42
617.86	0.42
618.194	0.42
618.528	0.42
618.862	0.42
619.196	0.42
619.53	0.42
619.864	0.41
620.198	0.41
620.532	0.41
620.866	0.41
621.2	0.41
621.533	0.41
621.867	0.41
622.201	0.4
622.534	0.41
622.868	0.4
623.201	0.41
623.534	0.4
623.868	0.4
624.201	0.4
624.534	0.4
624.868	0.4
625.201	0.4
625.534	0.39
625.867	0.39
626.2	0.39
626.533	0.39
626.865	0.39
627.198	0.38
627.531	0.38
627.864	0.38
628.196	0.38
628.529	0.38
628.862	0.38
629.194	0.38
629.527	0.37
629.859	0.37
630.191	0.37
630.524	0.37
630.856	0.36
631.188	0.36
631.52	0.36
631.852	0.36
632.184	0.36
632.516	0.35
632.848	0.35
633.18	0.35
633.512	0.35
633.844	0.34
634.175	0.34
634.507	0.34
634.839	0.34
635.17	0.33
635.502	0.33
635.833	0.33
636.165	0.32
636.496	0.32
636.827	0.32
637.159	0.32
637.49	0.32
637.821	0.32
638.152	0.31
638.483	0.31
638.814	0.31
639.145	0.31
639.476	0.3
639.807	0.3
640.137	0.3
640.468	0.3
640.799	0.29
641.129	0.29
641.46	0.29
641.791	0.28
642.121	0.29
642.451	0.28
642.782	0.28
643.112	0.28
643.442	0.28
643.773	0.28
644.103	0.28
644.433	0.27
644.763	0.27
645.093	0.27
645.423	0.26
645.753	0.26
646.082	0.26
646.412	0.26
646.742	0.26
647.072	0.26
647.401	0.26
647.731	0.26
648.06	0.26
648.39	0.26
648.719	0.26
649.048	0.26
649.378	0.26
649.707	0.25
650.036	0.26
650.365	0.26
650.694	0.25
651.023	0.25
651.352	0.25
651.681	0.25
652.01	0.25
652.339	0.25
652.668	0.25
652.996	0.25
653.325	0.25
653.654	0.25
653.982	0.25
654.311	0.25
654.639	0.25
654.967	0.25
655.296	0.25
655.624	0.25
655.952	0.25
656.28	0.25
656.609	0.24
656.937	0.25
657.265	0.24
657.593	0.21
657.92	0.09
658.248	0.04
658.576	0.04
658.904	0.13
659.231	0.22
659.559	0.24
659.887	0.25
660.214	0.25
660.542	0.25
660.869	0.24
661.196	0.24
661.524	0.24
661.851	0.24
662.178	0.24
662.505	0.24
662.832	0.24
663.159	0.24
663.486	0.24
663.813	0.24
664.14	0.24
664.467	0.24
664.794	0.24
665.12	0.24
665.447	0.24
665.774	0.24
666.1	0.24
666.427	0.24
666.753	0.24
667.079	0.24
667.406	0.23
667.732	0.23
668.058	0.23
668.384	0.23
668.71	0.24
669.036	0.23
669.362	0.23
669.688	0.23
670.014	0.23
670.34	0.23
670.666	0.23
670.991	0.23
671.317	0.23
671.643	0.22
671.968	0.22
672.294	0.22
672.619	0.22
672.945	0.22
673.27	0.22
673.595	0.22
673.92	0.21
674.246	0.21
674.571	0.21
674.896	0.21
675.221	0.21
675.546	0.21
675.87	0.21
676.195	0.21
676.52	0.21
676.845	0.2
677.169	0.2
677.494	0.2
677.819	0.2
678.143	0.2
678.468	0.2
678.792	0.2
679.116	0.19
679.44	0.19
679.765	0.19
680.089	0.18
680.413	0.18
680.737	0.18
681.061	0.18
681.385	0.18
681.709	0.18
682.033	0.18
682.356	0.18
682.68	0.18
683.004	0.18
683.327	0.18
683.651	0.17
683.974	0.17
684.298	0.17
684.621	0.17
684.944	0.16
685.268	0.17
685.591	0.16
685.914	0.16
686.237	0.16
686.56	0.15
686.883	0.15
687.206	0.16
687.529	0.15
687.852	0.15
688.175	0.15
688.497	0.15
688.82	0.15
689.142	0.15
689.465	0.15
689.787	0.14
690.11	0.14
690.432	0.14
690.755	0.14
691.077	0.14
691.399	0.14
691.721	0.14
692.043	0.13
692.365	0.13
692.687	0.13
693.009	0.13
693.331	0.13
693.653	0.13
693.974	0.12
694.296	0.12
694.618	0.12
694.939	0.12
695.261	0.12
695.582	0.12
695.904	0.12
696.225	0.12
696.546	0.12
696.868	0.11
697.189	0.11
697.51	0.11
697.831	0.12
698.152	0.11
698.473	0.11
698.794	0.11
699.114	0.11
699.435	0.1
699.756	0.1
700.077	0.11
700.397	0.1
700.718	0.11
701.038	0.11
701.359	0.11
701.679	0.11
701.999	0.11
702.32	0.11
702.64	0.11
702.96	0.1
703.28	0.1
703.6	0.1
703.92	0.1
704.24	0.1
704.56	0.1
704.879	0.1
705.199	0.1
705.519	0.1
705.838	0.1
706.158	0.1
706.478	0.09
706.797	0.09
707.116	0.09
707.436	0.09
707.755	0.09
708.074	0.09
708.393	0.09
708.712	0.09
709.031	0.09
709.35	0.09
709.669	0.09
709.988	0.09
710.307	0.09
710.626	0.09
710.944	0.09
711.263	0.09
711.582	0.09
711.9	0.09
712.219	0.09
712.537	0.09
712.855	0.09
713.174	0.09
713.492	0.09
713.81	0.09
714.128	0.09
714.446	0.09
714.764	0.09
715.082	0.09
715.4	0.09
715.718	0.09
716.035	0.09
716.353	0.09
716.671	0.08
716.988	0.09
717.306	0.09
717.623	0.09
717.941	0.09
718.258	0.09
718.575	0.09
718.893	0.09
719.21	0.09
719.527	0.09
719.844	0.09
720.161	0.09
720.478	0.09
720.795	0.09
721.112	0.09
721.428	0.09
721.745	0.09
722.062	0.09
722.378	0.09
722.695	0.09
723.011	0.09
723.328	0.09
723.644	0.09
723.96	0.1
724.276	0.1
724.593	0.1
724.909	0.1
725.225	0.1
725.541	0.1
725.857	0.1
726.173	0.1
726.488	0.1
726.804	0.1
727.12	0.1
727.435	0.1
727.751	0.1
728.067	0.1
728.382	0.1
728.697	0.1
729.013	0.1
729.328	0.1
729.643	0.1
729.958	0.1
730.273	0.1
730.588	0.1
730.903	0.1
731.218	0.1
731.533	0.1
731.848	0.1
732.163	0.1
732.477	0.1
732.792	0.1
733.107	0.1
733.421	0.1
733.736	0.1
734.05	0.1
734.364	0.1
734.678	0.1
734.993	0.1
735.307	0.1
735.621	0.1
735.935	0.1
736.249	0.1
736.563	0.1
736.877	0.1
737.19	0.1
737.504	0.1
737.818	0.1
738.131	0.1
738.445	0.1
738.758	0.1
739.072	0.1
739.385	0.1
739.698	0.1
740.012	0.1
740.325	0.1
740.638	0.09
740.951	0.09
741.264	0.09
741.577	0.09
741.89	0.09
742.203	0.09
742.515	0.09
742.828	0.09
743.141	0.09
743.453	0.09
743.766	0.09
744.078	0.09
744.391	0.09
744.703	0.09
745.015	0.09
745.327	0.09
745.639	0.09
745.952	0.09
746.264	0.09
746.575	0.09
746.887	0.09
747.199	0.09
747.511	0.09
747.823	0.09
748.134	0.09
748.446	0.09
748.757	0.09
749.069	0.08
749.38	0.08
749.692	0.08
750.003	0.08
750.314	0.08
750.625	0.08
750.936	0.08
751.248	0.08
751.559	0.08
751.869	0.08
752.18	0.07
752.491	0.07
752.802	0.07
753.112	0.07
753.423	0.07
753.734	0.07
754.044	0.07
754.355	0.07
754.665	0.07
754.975	0.07
755.285	0.07
755.596	0.07
755.906	0.06
756.216	0.06
756.526	0.06
756.836	0.06
757.146	0.06
757.455	0.06
757.765	0.06
758.075	0.06
758.385	0.06
758.694	0.06
759.004	0.05
759.313	0.06
759.622	0.06
759.932	0.06
760.241	0.05
760.55	0.05
760.859	0.05
761.168	0.05
761.477	0.05
761.786	0.05
762.095	0.05
762.404	0.05
762.713	0.05
763.021	0.05
763.33	0.05
763.639	0.04
763.947	0.05
764.256	0.04
764.564	0.04
764.872	0.04
765.181	0.04
765.489	0.04
765.797	0.04
766.105	0.04
766.413	0.04
766.721	0.04
767.029	0.04
767.337	0.04
767.644	0.04
767.952	0.04
768.26	0.04
768.567	0.04
768.875	0.04
769.182	0.04
769.49	0.04
769.797	0.04
770.104	0.04
770.411	0.04
770.718	0.04
771.026	0.04
771.333	0.04
771.639	0.04
771.946	0.04
772.253	0.04
772.56	0.04
772.867	0.04
773.173	0.04
773.48	0.04
773.786	0.04
774.093	0.04
774.399	0.04
774.705	0.04
775.012	0.04
775.318	0.04
775.624	0.04
775.93	0.04
776.236	0.04
776.542	0.03
776.848	0.04
777.154	0.04
777.459	0.04
777.765	0.04
778.071	0.04
778.376	0.04
778.682	0.04
778.987	0.04
779.292	0.04
779.598	0.04
779.903	0.04
780.208	0.04
780.513	0.03
780.818	0.03
781.123	0.04
781.428	0.03
781.733	0.03
782.038	0.03
782.343	0.03
782.647	0.03
782.952	0.03
783.256	0.04
783.561	0.03
783.865	0.03
784.17	0.03
784.474	0.03
784.778	0.03
785.082	0.04
785.386	0.04
785.69	0.04
785.994	0.04
786.298	0.04
786.602	0.04
786.906	0.04
787.209	0.04
787.513	0.04
787.817	0.04
788.12	0.04
788.424	0.04
788.727	0.04
789.03	0.04
789.333	0.04
789.637	0.03
789.94	0.03
790.243	0.03
790.546	0.03
790.849	0.03
791.152	0.03
791.454	0.02
791.757	0.03
792.06	0.02
792.362	0.02
792.665	0.02
792.967	0.02
793.27	0.02
793.572	0.02
793.874	0.02
794.177	0.02
794.479	0.02
794.781	0.02
795.083	0.02
795.385	0.03
795.687	0.03
795.989	0.03
796.29	0.03
796.592	0.03
796.894	0.03
797.195	0.03
797.497	0.03
797.798	0.03
798.1	0.03
798.401	0.03
798.702	0.03
799.003	0.02
799.304	0.03
799.605	0.03
799.906	0.03
800.207	0.02
800.508	0.03
800.809	0.03
801.11	0.02
801.41	0.03
801.711	0.02
802.011	0.03
802.312	0.03
802.612	0.03
802.913	0.03
803.213	0.03
803.513	0.03
803.813	0.03
804.113	0.03
804.413	0.03
804.713	0.03
805.013	0.03
805.313	0.02
805.613	0.02
805.912	0.02
806.212	0.02
806.511	0.02
806.811	0.03
807.11	0.02
807.41	0.03
807.709	0.03
808.008	0.02
808.307	0.02
808.606	0.02
808.905	0.03
809.204	0.03
809.503	0.03
809.802	0.02
810.101	0.03
810.399	0.02
810.698	0.02
810.997	0.03
811.295	0.03
811.593	0.03
811.892	0.03
812.19	0.03
812.488	0.03
812.786	0.03
813.084	0.03
813.383	0.03
813.68	0.02
813.978	0.03
814.276	0.03
814.574	0.02
814.872	0.02
815.169	0.02
815.467	0.02
815.764	0.02
816.062	0.02
816.359	0.02
816.656	0.01
816.954	0.02
817.251	0.02
817.548	0.02
817.845	0.03
818.142	0.02
818.439	0.02
818.735	0.02
819.032	0.02
819.329	0.02
819.626	0.02
819.922	0.02
820.219	0.02
820.515	0.02
820.811	0.02
821.108	0.01
821.404	0.02
821.7	0.01
821.996	0.02
822.292	0.02
822.588	0.02
822.884	0.02
823.18	0.02
823.475	0.02
823.771	0.02
824.067	0.02
824.362	0.02
824.658	0.03
824.953	0.02
825.249	0.02
825.544	0.02
825.839	0.02
826.134	0.02
826.429	0.02
826.724	0.02
827.019	0.02
827.314	0.02
827.609	0.02
827.904	0.02
828.198	0.02
828.493	0.02
828.787	0.02
829.082	0.02
829.376	0.02
829.671	0.02
829.965	0.01
830.259	0.01
830.553	0.01
830.847	0.01
831.141	0.02
831.435	0.02
831.729	0.01
832.023	0.01
832.317	0.01
832.61	0.01
832.904	0.01
833.197	0.02
833.491	0.01
833.784	0.01
834.077	0.01
834.371	0.02
834.664	0.02
834.957	0.02
835.25	0.03
835.543	0.02
835.836	0.02
836.129	0.02
836.421	0.02
836.714	0.01
837.007	0.02
837.299	0.01
837.592	0.02
837.884	0.02
838.177	0.01
838.469	0.01
838.761	0.02
839.053	0
839.345	0.01
839.637	0.01
839.929	0.01
840.221	0.02
840.513	0.02
840.805	0.01
841.096	0.01
841.388	0.01
841.68	0.01
841.971	0.02
842.262	0.01
842.554	0.02
842.845	0.02
843.136	0.02
843.427	0.01
843.718	0.02
844.009	0.01
844.3	0.02
844.591	0.02
844.882	0.02
845.173	0.02
845.463	0.01
845.754	0.01
846.044	0.01
846.335	0.02
846.625	0.02
846.915	0.01
847.206	0.02
847.496	0.01
847.786	0.02
848.076	0.01
848.366	0.01
848.656	0.01
848.945	0
849.235	0.01
849.525	0.01
849.814	0.02
850.104	0.01
850.393	0.02
850.683	0.02
850.972	0.02
851.261	0.02
851.551	0.02
851.84	0.03
852.129	0.01
852.418	0
852.707	0.02
852.995	0.02
853.284	0.01
853.573	0.02
853.862	0.02
854.15	0.01
854.439	0.01
854.727	0.01
855.015	-0
855.304	0.01
855.592	-0.01
855.88	0.01
856.168	-0.01
856.456	0
856.744	0
857.032	-0.01
857.32	-0.01
857.607	0.01
857.895	-0.01
858.183	0.01
858.47	0
858.757	-0
859.045	-0.01
859.332	-0
859.619	0
859.907	-0
860.194	-0.01
860.481	-0
860.768	-0.01
861.054	-0
861.341	0.01
861.628	0
861.915	-0.02
862.201	-0.01
862.488	-0.02
862.774	-0.01
863.061	0
863.347	-0.01
863.633	-0
863.919	-0.03
864.205	0.01
864.491	-0
864.777	-0.02
865.063	0
865.349	0.01
865.635	-0.01
865.92	0.02
866.206	-0.02
866.492	-0.01
866.777	-0.01
867.062	-0.02
867.348	-0.03
867.633	0.02
867.918	-0.02
868.203	0
868.488	-0.04
868.773	-0
869.058	-0.05
869.343	-0.01
869.628	-0.03
869.912	-0
870.197	0.01
870.482	-0.02
870.766	-0.02
871.05	0.01
871.335	-0.01
871.619	-0.01
871.903	-0.01
872.187	0.01
872.471	-0.05
872.755	-0.01
873.039	-0.07
873.323	-0
873.607	0.03
873.89	-0.02
874.174	-0.03
874.458	-0.01
874.741	0
875.024	-0.04
875.308	0
875.591	-0.04
875.874	0.06
876.157	-0
876.44	-0.02
876.723	0.03
877.006	-0.05
877.289	-0.1
877.572	0.01
877.854	0.01
878.137	-0.08
878.42	0.11
878.702	0.02
878.984	0.05
879.267	-0.01
879.549	-0.01
879.831	-0.03
880.113	-0.02
880.395	-0.01
880.677	-0.12
880.959	0.06
