Data from Rubpy_EV_900_EDTA_Buffered_Absorbance_13-53-59-719.txt Node
Date: Tue Jun 30 13:53:59 BST 2026
User: fpm-admin
Spectrometer: OFX00224
Trigger mode: 0
Integration Time (sec): 7.000000E-2
Scans to average: 3
Nonlinearity correction enabled: false
Boxcar width: 0
Storing dark spectrum: false
XAxis mode: Wavelengths
Number of Pixels in Spectrum: 2136
>>>>>Begin Spectral Data<<<<<
154.91	-0
155.289	-1.36
155.669	-0
156.048	-0.53
156.428	-0
156.807	0.19
157.186	-0.09
157.566	-0
157.945	-0.05
158.325	-0.52
158.704	-0.27
159.083	0.39
159.462	0.79
159.842	0.51
160.221	0.12
160.6	0.12
160.979	-0.48
161.359	0.4
161.738	0.36
162.117	-0.22
162.496	-0
162.875	-0.3
163.254	0.1
163.633	0.68
164.012	-0
164.391	0.12
164.77	-0.48
165.149	0.15
165.528	0.6
165.907	-0
166.286	-0.57
166.665	-1.04
167.044	-0
167.423	-0
167.802	-0.3
168.181	-0
168.559	-0
168.938	-0
169.317	0.06
169.696	-0
170.074	-0.54
170.453	-0
170.832	-0
171.21	0.07
171.589	-0
171.968	-0
172.346	-0
172.725	0.37
173.103	-0
173.482	-0
173.861	-0
174.239	0.03
174.617	-0
174.996	-0.52
175.374	-0
175.753	0.32
176.131	-0
176.51	0.13
176.888	-0
177.266	-0
177.645	0.03
178.023	0.32
178.401	-0.23
178.779	0.21
179.158	-0
179.536	0.18
179.914	-0.07
180.292	-0
180.67	-0.03
181.048	-0
181.427	-0.37
181.805	-0
182.183	-0
182.561	-0
182.939	-0.39
183.317	0.03
183.695	0.43
184.073	-0.6
184.451	-0.54
184.829	0.34
185.206	-0.41
185.584	-0
185.962	0.31
186.34	-0
186.718	-0
187.096	-0
187.473	-0.16
187.851	-0.23
188.229	-0
188.607	0.15
188.984	0.21
189.362	0.12
189.74	0.06
190.117	0.04
190.495	0.15
190.872	0.19
191.25	0.16
191.627	0.14
192.005	0.19
192.382	0.2
192.76	0.26
193.137	0.11
193.515	0.16
193.892	0.23
194.269	0.14
194.647	0.17
195.024	0.11
195.401	0.26
195.779	0.2
196.156	0.25
196.533	0.07
196.91	0.14
197.288	0.18
197.665	0.18
198.042	0.06
198.419	0.1
198.796	0.07
199.173	0.15
199.55	0.37
199.927	0.17
200.304	0.17
200.681	0.12
201.058	0.1
201.435	0.31
201.812	0.23
202.189	0.16
202.566	0.15
202.943	0.15
203.32	0.19
203.697	0.08
204.073	0.12
204.45	0.21
204.827	0.19
205.204	0.19
205.58	0.17
205.957	0.22
206.334	0.17
206.71	0.31
207.087	0.1
207.464	0.2
207.84	0.15
208.217	0.08
208.593	0.21
208.97	0.17
209.346	0.17
209.723	0.26
210.099	0.16
210.476	0.19
210.852	0.11
211.228	0.18
211.605	0.17
211.981	0.17
212.357	0.19
212.733	0.11
213.11	0.25
213.486	0.18
213.862	0.21
214.238	0.3
214.614	0.11
214.991	0.14
215.367	0.4
215.743	0.21
216.119	0.08
216.495	0.13
216.871	0.15
217.247	0.2
217.623	0.2
217.999	0.09
218.375	0.18
218.751	0.13
219.127	0.13
219.502	0.24
219.878	0.1
220.254	0.16
220.63	0.09
221.006	0.18
221.381	0.17
221.757	0.06
222.133	0.24
222.508	0.22
222.884	0.16
223.26	0.29
223.635	0.21
224.011	0.11
224.386	0.09
224.762	0.13
225.137	0.2
225.513	0.14
225.888	0.12
226.264	0.16
226.639	0.14
227.014	0.18
227.39	0.15
227.765	0.14
228.14	0.24
228.516	0.12
228.891	0.25
229.266	0.18
229.641	0.18
230.017	0.22
230.392	0.2
230.767	0.17
231.142	0.25
231.517	0.21
231.892	0.13
232.267	0.1
232.642	0.12
233.017	0.17
233.392	0.21
233.767	0.25
234.142	0.18
234.517	0.12
234.892	0.09
235.267	0.22
235.641	0.18
236.016	0.25
236.391	0.14
236.766	0.11
237.14	0.23
237.515	0.13
237.89	0.18
238.264	0.1
238.639	0.4
239.014	0.16
239.388	0.16
239.763	0.21
240.137	0.17
240.512	0.09
240.886	0.14
241.261	0.15
241.635	0.33
242.009	0.19
242.384	0.2
242.758	0.24
243.132	0.16
243.507	0.32
243.881	0.23
244.255	0.19
244.629	0.2
245.004	0.19
245.378	0.14
245.752	0.1
246.126	0.11
246.5	0.31
246.874	0.24
247.248	0.19
247.622	0.22
247.996	0.25
248.37	0.24
248.744	0.21
249.118	0.34
249.492	0.11
249.866	0.15
250.24	0.17
250.613	0.17
250.987	0.09
251.361	0.15
251.735	0.18
252.108	0.19
252.482	0.2
252.856	0.15
253.229	0.19
253.603	0.17
253.977	0.15
254.35	0.23
254.724	0.23
255.097	0.16
255.471	0.17
255.844	0.27
256.218	0.25
256.591	0.2
256.964	0.13
257.338	0.27
257.711	0.16
258.084	0.13
258.458	0.27
258.831	0.32
259.204	0.12
259.577	0.25
259.95	0.26
260.323	0.11
260.697	0.23
261.07	0.2
261.443	0.15
261.816	0.24
262.189	0.16
262.562	0.23
262.935	0.19
263.308	0.14
263.68	0.1
264.053	0.2
264.426	0.1
264.799	0.13
265.172	0.13
265.545	0.26
265.917	0.2
266.29	0.17
266.663	0.18
267.035	0.25
267.408	0.26
267.781	0.21
268.153	0.19
268.526	0.24
268.898	0.21
269.271	0.15
269.643	0.15
270.016	0.19
270.388	0.23
270.76	0.16
271.133	0.18
271.505	0.18
271.877	0.23
272.25	0.17
272.622	0.18
272.994	0.18
273.366	0.24
273.739	0.13
274.111	0.12
274.483	0.18
274.855	0.15
275.227	0.19
275.599	0.2
275.971	0.15
276.343	0.14
276.715	0.17
277.087	0.19
277.459	0.34
277.831	0.22
278.203	0.25
278.574	0.14
278.946	0.17
279.318	0.21
279.69	0.2
280.061	0.13
280.433	0.25
280.805	0.27
281.176	0.2
281.548	0.21
281.92	0.21
282.291	0.21
282.663	0.21
283.034	0.25
283.406	0.24
283.777	0.29
284.148	0.24
284.52	0.18
284.891	0.26
285.262	0.19
285.634	0.26
286.005	0.22
286.376	0.22
286.747	0.2
287.119	0.13
287.49	0.25
287.861	0.17
288.232	0.12
288.603	0.27
288.974	0.23
289.345	0.21
289.716	0.25
290.087	0.26
290.458	0.23
290.829	0.21
291.2	0.18
291.571	0.15
291.941	0.17
292.312	0.21
292.683	0.19
293.054	0.19
293.424	0.2
293.795	0.21
294.166	0.21
294.536	0.26
294.907	0.2
295.277	0.14
295.648	0.22
296.018	0.2
296.389	0.2
296.759	0.16
297.13	0.16
297.5	0.21
297.871	0.14
298.241	0.17
298.611	0.19
298.981	0.19
299.352	0.18
299.722	0.22
300.092	0.19
300.462	0.23
300.832	0.17
301.202	0.15
301.573	0.18
301.943	0.17
302.313	0.15
302.683	0.14
303.053	0.15
303.422	0.15
303.792	0.14
304.162	0.15
304.532	0.18
304.902	0.16
305.272	0.15
305.641	0.16
306.011	0.15
306.381	0.17
306.75	0.15
307.12	0.16
307.49	0.17
307.859	0.18
308.229	0.18
308.598	0.18
308.968	0.18
309.337	0.18
309.707	0.19
310.076	0.19
310.445	0.19
310.815	0.19
311.184	0.2
311.553	0.2
311.923	0.2
312.292	0.2
312.661	0.21
313.03	0.2
313.399	0.2
313.768	0.2
314.137	0.2
314.506	0.21
314.875	0.2
315.244	0.21
315.613	0.21
315.982	0.21
316.351	0.21
316.72	0.2
317.089	0.2
317.458	0.2
317.826	0.2
318.195	0.19
318.564	0.2
318.933	0.2
319.301	0.2
319.67	0.2
320.038	0.19
320.407	0.19
320.775	0.19
321.144	0.19
321.512	0.18
321.881	0.18
322.249	0.18
322.618	0.18
322.986	0.18
323.354	0.17
323.723	0.18
324.091	0.18
324.459	0.18
324.827	0.17
325.195	0.17
325.564	0.17
325.932	0.17
326.3	0.17
326.668	0.17
327.036	0.17
327.404	0.17
327.772	0.17
328.14	0.17
328.508	0.17
328.875	0.16
329.243	0.17
329.611	0.18
329.979	0.18
330.346	0.17
330.714	0.17
331.082	0.17
331.449	0.17
331.817	0.18
332.185	0.17
332.552	0.18
332.92	0.18
333.287	0.18
333.655	0.19
334.022	0.18
334.389	0.18
334.757	0.18
335.124	0.19
335.491	0.19
335.859	0.2
336.226	0.19
336.593	0.19
336.96	0.2
337.327	0.19
337.695	0.2
338.062	0.2
338.429	0.21
338.796	0.21
339.163	0.21
339.53	0.21
339.897	0.22
340.263	0.22
340.63	0.22
340.997	0.23
341.364	0.23
341.731	0.24
342.097	0.24
342.464	0.24
342.831	0.24
343.197	0.25
343.564	0.26
343.931	0.26
344.297	0.26
344.664	0.26
345.03	0.27
345.396	0.27
345.763	0.28
346.129	0.28
346.496	0.28
346.862	0.29
347.228	0.29
347.594	0.29
347.961	0.3
348.327	0.31
348.693	0.31
349.059	0.32
349.425	0.31
349.791	0.33
350.157	0.33
350.523	0.34
350.889	0.34
351.255	0.35
351.621	0.35
351.987	0.36
352.353	0.37
352.719	0.38
353.084	0.39
353.45	0.39
353.816	0.4
354.181	0.41
354.547	0.41
354.913	0.42
355.278	0.42
355.644	0.43
356.009	0.45
356.375	0.46
356.74	0.46
357.106	0.48
357.471	0.48
357.836	0.49
358.202	0.5
358.567	0.52
358.932	0.52
359.297	0.52
359.663	0.54
360.028	0.54
360.393	0.54
360.758	0.56
361.123	0.56
361.488	0.58
361.853	0.58
362.218	0.58
362.583	0.59
362.948	0.6
363.312	0.6
363.677	0.61
364.042	0.62
364.407	0.64
364.772	0.65
365.136	0.65
365.501	0.67
365.865	0.68
366.23	0.69
366.595	0.71
366.959	0.73
367.324	0.74
367.688	0.75
368.052	0.75
368.417	0.77
368.781	0.78
369.145	0.78
369.51	0.79
369.874	0.8
370.238	0.79
370.602	0.79
370.967	0.79
371.331	0.79
371.695	0.79
372.059	0.78
372.423	0.78
372.787	0.78
373.151	0.78
373.515	0.78
373.878	0.77
374.242	0.78
374.606	0.78
374.97	0.78
375.334	0.78
375.697	0.78
376.061	0.78
376.425	0.8
376.788	0.79
377.152	0.79
377.515	0.8
377.879	0.81
378.242	0.82
378.606	0.83
378.969	0.83
379.333	0.83
379.696	0.86
380.059	0.87
380.422	0.89
380.786	0.9
381.149	0.91
381.512	0.93
381.875	0.94
382.238	0.97
382.601	0.99
382.964	1.02
383.327	1.03
383.69	1.07
384.053	1.09
384.416	1.12
384.779	1.15
385.142	1.16
385.504	1.18
385.867	1.19
386.23	1.22
386.593	1.23
386.955	1.23
387.318	1.22
387.68	1.23
388.043	1.21
388.405	1.21
388.768	1.2
389.13	1.19
389.493	1.18
389.855	1.17
390.217	1.18
390.58	1.18
390.942	1.17
391.304	1.17
391.666	1.2
392.028	1.21
392.391	1.24
392.753	1.26
393.115	1.31
393.477	1.34
393.839	1.39
394.201	1.44
394.563	1.49
394.924	1.56
395.286	1.59
395.648	1.61
396.01	1.65
396.371	1.68
396.733	1.7
397.095	1.72
397.456	1.71
397.818	1.74
398.18	1.72
398.541	1.73
398.903	1.68
399.264	1.63
399.625	1.6
399.987	1.57
400.348	1.51
400.709	1.43
401.071	1.39
401.432	1.31
401.793	1.23
402.154	1.15
402.515	1.07
402.876	1
403.238	0.93
403.599	0.88
403.96	0.81
404.32	0.76
404.681	0.7
405.042	0.66
405.403	0.61
405.764	0.57
406.125	0.53
406.485	0.5
406.846	0.46
407.207	0.44
407.567	0.41
407.928	0.39
408.288	0.37
408.649	0.35
409.009	0.33
409.37	0.32
409.73	0.3
410.091	0.29
410.451	0.27
410.811	0.26
411.171	0.25
411.532	0.24
411.892	0.22
412.252	0.23
412.612	0.21
412.972	0.2
413.332	0.2
413.692	0.2
414.052	0.19
414.412	0.18
414.772	0.17
415.132	0.18
415.492	0.16
415.851	0.16
416.211	0.16
416.571	0.15
416.931	0.14
417.29	0.15
417.65	0.14
418.009	0.14
418.369	0.13
418.728	0.13
419.088	0.13
419.447	0.13
419.807	0.13
420.166	0.12
420.525	0.12
420.884	0.12
421.244	0.12
421.603	0.11
421.962	0.11
422.321	0.11
422.68	0.11
423.039	0.11
423.398	0.1
423.757	0.1
424.116	0.1
424.475	0.11
424.834	0.1
425.193	0.1
425.551	0.1
425.91	0.1
426.269	0.1
426.628	0.1
426.986	0.09
427.345	0.1
427.703	0.1
428.062	0.09
428.42	0.09
428.779	0.1
429.137	0.09
429.496	0.09
429.854	0.09
430.212	0.09
430.57	0.08
430.929	0.08
431.287	0.07
431.645	0.08
432.003	0.08
432.361	0.08
432.719	0.08
433.077	0.08
433.435	0.08
433.793	0.08
434.151	0.08
434.509	0.08
434.866	0.08
435.224	0.08
435.582	0.08
435.94	0.07
436.297	0.07
436.655	0.07
437.012	0.08
437.37	0.07
437.727	0.08
438.085	0.08
438.442	0.06
438.8	0.07
439.157	0.07
439.514	0.07
439.872	0.07
440.229	0.07
440.586	0.08
440.943	0.06
441.3	0.07
441.657	0.06
442.014	0.07
442.371	0.06
442.728	0.05
443.085	0.06
443.442	0.05
443.799	0.06
444.156	0.06
444.513	0.06
444.869	0.05
445.226	0.05
445.583	0.05
445.939	0.05
446.296	0.06
446.652	0.04
447.009	0.05
447.365	0.05
447.722	0.05
448.078	0.04
448.434	0.05
448.791	0.04
449.147	0.04
449.503	0.04
449.859	0.05
450.215	0.05
450.571	0.04
450.928	0.04
451.284	0.03
451.64	0.03
451.995	0.03
452.351	0.03
452.707	0.03
453.063	0.02
453.419	0.02
453.775	0.02
454.13	0.02
454.486	0.01
454.842	0.01
455.197	0.01
455.553	-0
455.908	0
456.264	0.01
456.619	-0.02
456.975	-0.02
457.33	-0
457.685	-0.01
458.04	-0.03
458.396	-0.02
458.751	-0.03
459.106	-0.03
459.461	-0.04
459.816	-0.04
460.171	-0.05
460.526	-0.05
460.881	-0.06
461.236	-0.06
461.591	-0.06
461.946	-0.07
462.301	-0.08
462.655	-0.08
463.01	-0.08
463.365	-0.08
463.719	-0.09
464.074	-0.1
464.428	-0.1
464.783	-0.11
465.137	-0.11
465.492	-0.11
465.846	-0.11
466.201	-0.11
466.555	-0.11
466.909	-0.11
467.263	-0.11
467.618	-0.1
467.972	-0.11
468.326	-0.11
468.68	-0.12
469.034	-0.12
469.388	-0.13
469.742	-0.12
470.096	-0.12
470.45	-0.12
470.804	-0.12
471.157	-0.12
471.511	-0.12
471.865	-0.12
472.218	-0.12
472.572	-0.12
472.926	-0.1
473.279	-0.11
473.633	-0.11
473.986	-0.1
474.34	-0.1
474.693	-0.09
475.046	-0.07
475.4	-0.07
475.753	-0.06
476.106	-0.06
476.459	-0.05
476.812	-0.05
477.165	-0.03
477.519	-0.03
477.872	-0.02
478.224	-0.03
478.577	-0.01
478.93	-0.02
479.283	-0.01
479.636	-0.01
479.989	-0
480.341	-0
480.694	0.01
481.047	0.01
481.399	0.01
481.752	0.02
482.104	0.02
482.457	0.02
482.809	0.03
483.162	0.03
483.514	0.03
483.866	0.04
484.219	0.04
484.571	0.04
484.923	0.04
485.275	0.05
485.627	0.05
485.979	0.05
486.331	0.05
486.683	0.06
487.035	0.05
487.387	0.06
487.739	0.07
488.091	0.07
488.443	0.08
488.794	0.07
489.146	0.08
489.498	0.08
489.849	0.08
490.201	0.08
490.552	0.08
490.904	0.08
491.255	0.08
491.607	0.08
491.958	0.09
492.309	0.08
492.661	0.09
493.012	0.09
493.363	0.09
493.714	0.09
494.065	0.1
494.416	0.1
494.767	0.1
495.118	0.1
495.469	0.1
495.82	0.11
496.171	0.11
496.522	0.11
496.872	0.12
497.223	0.11
497.574	0.11
497.924	0.11
498.275	0.12
498.626	0.12
498.976	0.12
499.327	0.13
499.677	0.13
500.027	0.13
500.378	0.13
500.728	0.13
501.078	0.14
501.428	0.14
501.779	0.14
502.129	0.14
502.479	0.14
502.829	0.15
503.179	0.15
503.529	0.14
503.879	0.15
504.229	0.15
504.578	0.15
504.928	0.15
505.278	0.16
505.628	0.16
505.977	0.16
506.327	0.16
506.676	0.16
507.026	0.17
507.375	0.17
507.725	0.17
508.074	0.17
508.424	0.17
508.773	0.17
509.122	0.18
509.471	0.17
509.82	0.18
510.17	0.18
510.519	0.19
510.868	0.19
511.217	0.18
511.566	0.19
511.915	0.19
512.263	0.19
512.612	0.19
512.961	0.19
513.31	0.2
513.659	0.2
514.007	0.2
514.356	0.2
514.704	0.2
515.053	0.21
515.401	0.21
515.75	0.2
516.098	0.21
516.447	0.21
516.795	0.21
517.143	0.22
517.491	0.22
517.839	0.22
518.188	0.22
518.536	0.22
518.884	0.23
519.232	0.23
519.58	0.23
519.928	0.23
520.275	0.23
520.623	0.23
520.971	0.23
521.319	0.24
521.666	0.24
522.014	0.24
522.362	0.24
522.709	0.24
523.057	0.24
523.404	0.24
523.752	0.25
524.099	0.25
524.446	0.25
524.794	0.25
525.141	0.26
525.488	0.26
525.835	0.26
526.182	0.26
526.529	0.26
526.876	0.26
527.223	0.26
527.57	0.26
527.917	0.27
528.264	0.27
528.611	0.27
528.958	0.27
529.304	0.28
529.651	0.28
529.998	0.27
530.344	0.28
530.691	0.28
531.037	0.29
531.384	0.29
531.73	0.29
532.076	0.29
532.423	0.29
532.769	0.3
533.115	0.3
533.461	0.3
533.807	0.31
534.154	0.3
534.5	0.31
534.846	0.31
535.192	0.31
535.537	0.31
535.883	0.31
536.229	0.32
536.575	0.32
536.921	0.32
537.266	0.32
537.612	0.32
537.957	0.33
538.303	0.33
538.649	0.33
538.994	0.33
539.339	0.34
539.685	0.33
540.03	0.34
540.375	0.34
540.721	0.35
541.066	0.35
541.411	0.35
541.756	0.35
542.101	0.35
542.446	0.36
542.791	0.36
543.136	0.37
543.481	0.37
543.825	0.37
544.17	0.37
544.515	0.37
544.86	0.37
545.204	0.37
545.549	0.38
545.893	0.38
546.238	0.39
546.582	0.39
546.927	0.39
547.271	0.39
547.615	0.4
547.96	0.4
548.304	0.39
548.648	0.41
548.992	0.4
549.336	0.41
549.68	0.4
550.024	0.41
550.368	0.41
550.712	0.41
551.056	0.41
551.4	0.42
551.743	0.42
552.087	0.42
552.431	0.43
552.774	0.43
553.118	0.43
553.462	0.43
553.805	0.43
554.148	0.44
554.492	0.43
554.835	0.44
555.178	0.44
555.522	0.44
555.865	0.44
556.208	0.45
556.551	0.44
556.894	0.45
557.237	0.44
557.58	0.45
557.923	0.45
558.266	0.45
558.609	0.45
558.952	0.45
559.294	0.45
559.637	0.45
559.98	0.46
560.322	0.46
560.665	0.46
561.007	0.46
561.35	0.46
561.692	0.46
562.034	0.46
562.377	0.46
562.719	0.46
563.061	0.47
563.403	0.47
563.745	0.47
564.088	0.47
564.43	0.47
564.772	0.47
565.113	0.47
565.455	0.48
565.797	0.48
566.139	0.48
566.481	0.48
566.822	0.48
567.164	0.48
567.506	0.48
567.847	0.48
568.189	0.48
568.53	0.48
568.872	0.48
569.213	0.49
569.554	0.49
569.895	0.48
570.237	0.49
570.578	0.49
570.919	0.49
571.26	0.49
571.601	0.49
571.942	0.49
572.283	0.49
572.624	0.48
572.965	0.48
573.306	0.48
573.646	0.48
573.987	0.48
574.328	0.49
574.668	0.49
575.009	0.49
575.349	0.49
575.69	0.49
576.03	0.49
576.37	0.49
576.711	0.48
577.051	0.49
577.391	0.49
577.731	0.5
578.072	0.49
578.412	0.49
578.752	0.5
579.092	0.49
579.431	0.48
579.771	0.48
580.111	0.48
580.451	0.49
580.791	0.5
581.13	0.5
581.47	0.5
581.81	0.5
582.149	0.5
582.489	0.5
582.828	0.49
583.167	0.49
583.507	0.47
583.846	0.45
584.185	0.48
584.525	0.5
584.864	0.5
585.203	0.51
585.542	0.51
585.881	0.51
586.22	0.51
586.559	0.51
586.898	0.51
587.236	0.51
587.575	0.51
587.914	0.51
588.252	0.52
588.591	0.53
588.93	0.53
589.268	0.52
589.607	0.53
589.945	0.53
590.283	0.53
590.622	0.54
590.96	0.54
591.298	0.54
591.636	0.54
591.974	0.55
592.313	0.55
592.651	0.56
592.989	0.56
593.326	0.56
593.664	0.56
594.002	0.56
594.34	0.56
594.678	0.56
595.015	0.56
595.353	0.56
595.691	0.56
596.028	0.57
596.366	0.58
596.703	0.58
597.04	0.58
597.378	0.58
597.715	0.58
598.052	0.58
598.389	0.59
598.726	0.59
599.064	0.59
599.401	0.6
599.738	0.59
600.074	0.6
600.411	0.59
600.748	0.59
601.085	0.59
601.422	0.59
601.758	0.59
602.095	0.6
602.432	0.6
602.768	0.6
603.105	0.6
603.441	0.61
603.777	0.61
604.114	0.61
604.45	0.61
604.786	0.61
605.122	0.6
605.459	0.6
605.795	0.6
606.131	0.6
606.467	0.6
606.803	0.6
607.139	0.6
607.474	0.6
607.81	0.6
608.146	0.6
608.482	0.59
608.817	0.59
609.153	0.59
609.488	0.59
609.824	0.59
610.159	0.59
610.495	0.59
610.83	0.59
611.165	0.59
611.5	0.59
611.836	0.58
612.171	0.58
612.506	0.59
612.841	0.58
613.176	0.58
613.511	0.58
613.845	0.58
614.18	0.58
614.515	0.58
614.85	0.58
615.184	0.57
615.519	0.57
615.854	0.57
616.188	0.57
616.523	0.57
616.857	0.56
617.191	0.56
617.526	0.56
617.86	0.56
618.194	0.56
618.528	0.56
618.862	0.55
619.196	0.56
619.53	0.56
619.864	0.55
620.198	0.55
620.532	0.55
620.866	0.55
621.2	0.54
621.533	0.54
621.867	0.54
622.201	0.53
622.534	0.54
622.868	0.54
623.201	0.54
623.534	0.53
623.868	0.53
624.201	0.53
624.534	0.53
624.868	0.53
625.201	0.53
625.534	0.52
625.867	0.52
626.2	0.52
626.533	0.51
626.865	0.51
627.198	0.51
627.531	0.51
627.864	0.51
628.196	0.51
628.529	0.5
628.862	0.5
629.194	0.49
629.527	0.49
629.859	0.49
630.191	0.49
630.524	0.48
630.856	0.48
631.188	0.48
631.52	0.48
631.852	0.47
632.184	0.47
632.516	0.46
632.848	0.46
633.18	0.46
633.512	0.46
633.844	0.45
634.175	0.45
634.507	0.45
634.839	0.44
635.17	0.44
635.502	0.44
635.833	0.43
636.165	0.43
636.496	0.43
636.827	0.43
637.159	0.42
637.49	0.42
637.821	0.42
638.152	0.41
638.483	0.41
638.814	0.4
639.145	0.41
639.476	0.4
639.807	0.4
640.137	0.39
640.468	0.39
640.799	0.38
641.129	0.38
641.46	0.38
641.791	0.37
642.121	0.37
642.451	0.37
642.782	0.37
643.112	0.37
643.442	0.37
643.773	0.37
644.103	0.36
644.433	0.36
644.763	0.35
645.093	0.36
645.423	0.35
645.753	0.35
646.082	0.35
646.412	0.34
646.742	0.34
647.072	0.34
647.401	0.34
647.731	0.34
648.06	0.34
648.39	0.34
648.719	0.34
649.048	0.34
649.378	0.33
649.707	0.33
650.036	0.34
650.365	0.33
650.694	0.34
651.023	0.33
651.352	0.33
651.681	0.33
652.01	0.33
652.339	0.33
652.668	0.33
652.996	0.33
653.325	0.33
653.654	0.33
653.982	0.33
654.311	0.33
654.639	0.33
654.967	0.33
655.296	0.33
655.624	0.33
655.952	0.32
656.28	0.33
656.609	0.32
656.937	0.32
657.265	0.31
657.593	0.28
657.92	0.15
658.248	0.1
658.576	0.11
658.904	0.21
659.231	0.3
659.559	0.32
659.887	0.32
660.214	0.32
660.542	0.32
660.869	0.32
661.196	0.32
661.524	0.32
661.851	0.32
662.178	0.32
662.505	0.32
662.832	0.32
663.159	0.32
663.486	0.32
663.813	0.32
664.14	0.32
664.467	0.32
664.794	0.32
665.12	0.32
665.447	0.31
665.774	0.31
666.1	0.31
666.427	0.31
666.753	0.31
667.079	0.31
667.406	0.31
667.732	0.3
668.058	0.3
668.384	0.3
668.71	0.3
669.036	0.3
669.362	0.3
669.688	0.3
670.014	0.3
670.34	0.3
670.666	0.3
670.991	0.3
671.317	0.3
671.643	0.29
671.968	0.29
672.294	0.29
672.619	0.29
672.945	0.29
673.27	0.29
673.595	0.29
673.92	0.28
674.246	0.28
674.571	0.28
674.896	0.28
675.221	0.28
675.546	0.28
675.87	0.28
676.195	0.27
676.52	0.27
676.845	0.27
677.169	0.27
677.494	0.27
677.819	0.27
678.143	0.26
678.468	0.26
678.792	0.26
679.116	0.26
679.44	0.25
679.765	0.25
680.089	0.24
680.413	0.24
680.737	0.24
681.061	0.23
681.385	0.24
681.709	0.23
682.033	0.23
682.356	0.24
682.68	0.23
683.004	0.23
683.327	0.23
683.651	0.22
683.974	0.22
684.298	0.22
684.621	0.22
684.944	0.21
685.268	0.22
685.591	0.21
685.914	0.21
686.237	0.2
686.56	0.2
686.883	0.2
687.206	0.2
687.529	0.2
687.852	0.19
688.175	0.2
688.497	0.19
688.82	0.19
689.142	0.19
689.465	0.19
689.787	0.19
690.11	0.19
690.432	0.18
690.755	0.18
691.077	0.18
691.399	0.18
691.721	0.18
692.043	0.17
692.365	0.17
692.687	0.17
693.009	0.17
693.331	0.16
693.653	0.16
693.974	0.16
694.296	0.16
694.618	0.16
694.939	0.16
695.261	0.16
695.582	0.15
695.904	0.15
696.225	0.15
696.546	0.15
696.868	0.15
697.189	0.15
697.51	0.14
697.831	0.15
698.152	0.14
698.473	0.14
698.794	0.14
699.114	0.14
699.435	0.14
699.756	0.13
700.077	0.13
700.397	0.13
700.718	0.13
701.038	0.14
701.359	0.13
701.679	0.14
701.999	0.14
702.32	0.13
702.64	0.13
702.96	0.13
703.28	0.13
703.6	0.13
703.92	0.13
704.24	0.13
704.56	0.12
704.879	0.13
705.199	0.13
705.519	0.13
705.838	0.13
706.158	0.12
706.478	0.12
706.797	0.12
707.116	0.12
707.436	0.12
707.755	0.12
708.074	0.12
708.393	0.11
708.712	0.11
709.031	0.11
709.35	0.11
709.669	0.11
709.988	0.11
710.307	0.11
710.626	0.11
710.944	0.12
711.263	0.11
711.582	0.11
711.9	0.11
712.219	0.12
712.537	0.12
712.855	0.12
713.174	0.12
713.492	0.11
713.81	0.12
714.128	0.11
714.446	0.11
714.764	0.11
715.082	0.11
715.4	0.11
715.718	0.11
716.035	0.11
716.353	0.11
716.671	0.11
716.988	0.11
717.306	0.11
717.623	0.11
717.941	0.12
718.258	0.12
718.575	0.12
718.893	0.12
719.21	0.12
719.527	0.12
719.844	0.11
720.161	0.11
720.478	0.12
720.795	0.12
721.112	0.12
721.428	0.12
721.745	0.12
722.062	0.12
722.378	0.12
722.695	0.12
723.011	0.12
723.328	0.12
723.644	0.12
723.96	0.12
724.276	0.12
724.593	0.13
724.909	0.13
725.225	0.13
725.541	0.13
725.857	0.13
726.173	0.13
726.488	0.13
726.804	0.13
727.12	0.13
727.435	0.13
727.751	0.12
728.067	0.13
728.382	0.13
728.697	0.13
729.013	0.13
729.328	0.13
729.643	0.13
729.958	0.13
730.273	0.13
730.588	0.13
730.903	0.13
731.218	0.13
731.533	0.13
731.848	0.13
732.163	0.13
732.477	0.13
732.792	0.13
733.107	0.13
733.421	0.13
733.736	0.13
734.05	0.13
734.364	0.13
734.678	0.13
734.993	0.12
735.307	0.13
735.621	0.13
735.935	0.12
736.249	0.12
736.563	0.12
736.877	0.12
737.19	0.13
737.504	0.13
737.818	0.13
738.131	0.13
738.445	0.13
738.758	0.13
739.072	0.12
739.385	0.12
739.698	0.12
740.012	0.12
740.325	0.12
740.638	0.12
740.951	0.12
741.264	0.12
741.577	0.12
741.89	0.12
742.203	0.12
742.515	0.12
742.828	0.12
743.141	0.12
743.453	0.11
743.766	0.11
744.078	0.11
744.391	0.11
744.703	0.11
745.015	0.11
745.327	0.11
745.639	0.11
745.952	0.11
746.264	0.11
746.575	0.11
746.887	0.11
747.199	0.11
747.511	0.11
747.823	0.11
748.134	0.11
748.446	0.1
748.757	0.1
749.069	0.1
749.38	0.1
749.692	0.1
750.003	0.1
750.314	0.1
750.625	0.1
750.936	0.1
751.248	0.1
751.559	0.09
751.869	0.1
752.18	0.09
752.491	0.09
752.802	0.09
753.112	0.09
753.423	0.09
753.734	0.09
754.044	0.08
754.355	0.08
754.665	0.08
754.975	0.08
755.285	0.08
755.596	0.08
755.906	0.08
756.216	0.08
756.526	0.08
756.836	0.08
757.146	0.08
757.455	0.08
757.765	0.08
758.075	0.07
758.385	0.07
758.694	0.07
759.004	0.07
759.313	0.07
759.622	0.07
759.932	0.07
760.241	0.07
760.55	0.06
760.859	0.06
761.168	0.06
761.477	0.06
761.786	0.06
762.095	0.06
762.404	0.06
762.713	0.06
763.021	0.06
763.33	0.05
763.639	0.05
763.947	0.05
764.256	0.05
764.564	0.05
764.872	0.05
765.181	0.05
765.489	0.05
765.797	0.05
766.105	0.05
766.413	0.05
766.721	0.05
767.029	0.05
767.337	0.05
767.644	0.05
767.952	0.05
768.26	0.05
768.567	0.05
768.875	0.05
769.182	0.05
769.49	0.05
769.797	0.05
770.104	0.05
770.411	0.05
770.718	0.05
771.026	0.05
771.333	0.05
771.639	0.05
771.946	0.05
772.253	0.05
772.56	0.04
772.867	0.04
773.173	0.04
773.48	0.04
773.786	0.04
774.093	0.04
774.399	0.04
774.705	0.04
775.012	0.04
775.318	0.04
775.624	0.04
775.93	0.04
776.236	0.04
776.542	0.04
776.848	0.04
777.154	0.05
777.459	0.05
777.765	0.05
778.071	0.05
778.376	0.05
778.682	0.05
778.987	0.05
779.292	0.04
779.598	0.05
779.903	0.04
780.208	0.04
780.513	0.04
780.818	0.04
781.123	0.04
781.428	0.04
781.733	0.04
782.038	0.04
782.343	0.04
782.647	0.04
782.952	0.04
783.256	0.04
783.561	0.04
783.865	0.04
784.17	0.04
784.474	0.04
784.778	0.04
785.082	0.04
785.386	0.05
785.69	0.04
785.994	0.04
786.298	0.04
786.602	0.05
786.906	0.05
787.209	0.04
787.513	0.04
787.817	0.05
788.12	0.05
788.424	0.05
788.727	0.04
789.03	0.04
789.333	0.04
789.637	0.04
789.94	0.03
790.243	0.03
790.546	0.04
790.849	0.03
791.152	0.03
791.454	0.03
791.757	0.03
792.06	0.03
792.362	0.03
792.665	0.03
792.967	0.03
793.27	0.03
793.572	0.03
793.874	0.03
794.177	0.03
794.479	0.03
794.781	0.03
795.083	0.03
795.385	0.03
795.687	0.04
795.989	0.04
796.29	0.04
796.592	0.04
796.894	0.04
797.195	0.04
797.497	0.04
797.798	0.04
798.1	0.04
798.401	0.03
798.702	0.03
799.003	0.03
799.304	0.03
799.605	0.03
799.906	0.03
800.207	0.03
800.508	0.03
800.809	0.03
801.11	0.03
801.41	0.03
801.711	0.03
802.011	0.03
802.312	0.03
802.612	0.03
802.913	0.04
803.213	0.03
803.513	0.03
803.813	0.03
804.113	0.03
804.413	0.03
804.713	0.03
805.013	0.03
805.313	0.03
805.613	0.03
805.912	0.03
806.212	0.03
806.511	0.03
806.811	0.03
807.11	0.03
807.41	0.03
807.709	0.03
808.008	0.03
808.307	0.03
808.606	0.03
808.905	0.03
809.204	0.03
809.503	0.03
809.802	0.03
810.101	0.03
810.399	0.03
810.698	0.03
810.997	0.03
811.295	0.03
811.593	0.04
811.892	0.04
812.19	0.04
812.488	0.04
812.786	0.03
813.084	0.03
813.383	0.03
813.68	0.03
813.978	0.04
814.276	0.03
814.574	0.03
814.872	0.03
815.169	0.02
815.467	0.03
815.764	0.03
816.062	0.02
816.359	0.03
816.656	0.02
816.954	0.03
817.251	0.03
817.548	0.03
817.845	0.03
818.142	0.03
818.439	0.03
818.735	0.03
819.032	0.03
819.329	0.03
819.626	0.03
819.922	0.03
820.219	0.03
820.515	0.02
820.811	0.02
821.108	0.02
821.404	0.03
821.7	0.02
821.996	0.02
822.292	0.02
822.588	0.02
822.884	0.02
823.18	0.02
823.475	0.02
823.771	0.03
824.067	0.03
824.362	0.02
824.658	0.03
824.953	0.02
825.249	0.02
825.544	0.02
825.839	0.02
826.134	0.02
826.429	0.02
826.724	0.03
827.019	0.02
827.314	0.02
827.609	0.02
827.904	0.02
828.198	0.02
828.493	0.02
828.787	0.02
829.082	0.02
829.376	0.02
829.671	0.02
829.965	0.01
830.259	0.02
830.553	0.01
830.847	0.02
831.141	0.02
831.435	0.02
831.729	0.02
832.023	0.02
832.317	0.02
832.61	0.01
832.904	0.02
833.197	0.02
833.491	0.02
833.784	0.02
834.077	0.01
834.371	0.03
834.664	0.03
834.957	0.03
835.25	0.02
835.543	0.02
835.836	0.02
836.129	0.02
836.421	0.02
836.714	0.02
837.007	0.02
837.299	0.02
837.592	0.02
837.884	0.02
838.177	0.02
838.469	0.02
838.761	0.02
839.053	0.01
839.345	0.02
839.637	0.02
839.929	0.02
840.221	0.03
840.513	0.02
840.805	0.02
841.096	0.02
841.388	0.02
841.68	0.02
841.971	0.03
842.262	0.02
842.554	0.03
842.845	0.03
843.136	0.02
843.427	0.02
843.718	0.02
844.009	0.02
844.3	0.03
844.591	0.02
844.882	0.02
845.173	0.02
845.463	0.02
845.754	0.02
846.044	0.02
846.335	0.02
846.625	0.02
846.915	0.02
847.206	0.01
847.496	0.02
847.786	0.02
848.076	0.01
848.366	0.01
848.656	0.02
848.945	0.01
849.235	0.02
849.525	0.01
849.814	0.02
850.104	0.02
850.393	0.02
850.683	0.03
850.972	0.02
851.261	0.03
851.551	0.03
851.84	0.02
852.129	0.01
852.418	0.01
852.707	0.03
852.995	0.02
853.284	0.01
853.573	0.04
853.862	0.01
854.15	0.02
854.439	0.01
854.727	0.01
855.015	0.02
855.304	0.02
855.592	0
855.88	0
856.168	0
856.456	-0
856.744	0.02
857.032	-0.01
857.32	-0.01
857.607	0.01
857.895	0
858.183	0
858.47	-0
858.757	-0
859.045	-0
859.332	0.03
859.619	0.03
859.907	0.01
860.194	0.01
860.481	0
860.768	-0.01
861.054	-0.01
861.341	0.01
861.628	0.01
861.915	0
862.201	0.01
862.488	-0.02
862.774	0.02
863.061	-0
863.347	0.01
863.633	-0.01
863.919	-0.01
864.205	-0
864.491	-0.02
864.777	-0.01
865.063	0.02
865.349	0.01
865.635	0.01
865.92	0.02
866.206	-0.01
866.492	0
866.777	-0.03
867.062	-0
867.348	-0.04
867.633	0.03
867.918	-0.03
868.203	0.01
868.488	-0.05
868.773	-0
869.058	-0.07
869.343	-0.03
869.628	-0.02
869.912	-0.02
870.197	-0.01
870.482	-0.02
870.766	-0.05
871.05	0.01
871.335	-0.01
871.619	0.04
871.903	0.01
872.187	0.02
872.471	-0.06
872.755	-0.07
873.039	-0.02
873.323	-0.05
873.607	0.02
873.89	-0.04
874.174	-0.03
874.458	0.02
874.741	0.01
875.024	-0.06
875.308	-0.01
875.591	-0.02
875.874	0.05
876.157	-0.05
876.44	-0.01
876.723	0.02
877.006	-0
877.289	-0.01
877.572	-0.06
877.854	0
878.137	-0.07
878.42	0.1
878.702	-0.04
878.984	-0.03
879.267	-0.06
879.549	-0.01
879.831	-0.05
880.113	-0.09
880.395	0.01
880.677	-0.16
880.959	-0.01
