Data from Rubpy_EV_900_EDTA_Buffered_Absorbance_13-40-15-763.txt Node
Date: Tue Jun 30 13:40:15 BST 2026
User: fpm-admin
Spectrometer: OFX00224
Trigger mode: 0
Integration Time (sec): 7.000000E-2
Scans to average: 3
Nonlinearity correction enabled: false
Boxcar width: 0
Storing dark spectrum: false
XAxis mode: Wavelengths
Number of Pixels in Spectrum: 2136
>>>>>Begin Spectral Data<<<<<
154.91	-0
155.289	-1.58
155.669	-0.35
156.048	-0.62
156.428	0.1
156.807	0.45
157.186	-0.15
157.566	0.5
157.945	0.09
158.325	-0.2
158.704	-0
159.083	-0
159.462	0.06
159.842	0.21
160.221	0.06
160.6	0.25
160.979	-0
161.359	-0
161.738	-0.18
162.117	0.03
162.496	-0
162.875	-1.04
163.254	-0.04
163.633	-0
164.012	-1.18
164.391	-0.12
164.77	0.35
165.149	-0.11
165.528	-0
165.907	0.85
166.286	-0
166.665	-0
167.044	-0
167.423	0.19
167.802	-0.09
168.181	0.36
168.559	-0
168.938	-0
169.317	1.18
169.696	-0
170.074	-0
170.453	0.7
170.832	-0
171.21	1.45
171.589	-0
171.968	-0
172.346	-0
172.725	0.48
173.103	-0
173.482	0.26
173.861	0.82
174.239	0.1
174.617	-0
174.996	-0
175.374	0.43
175.753	-0.02
176.131	0.04
176.51	-0.2
176.888	-0
177.266	0.74
177.645	0.01
178.023	0.4
178.401	-0.2
178.779	0.06
179.158	-0
179.536	0.26
179.914	0.03
180.292	-0
180.67	0.73
181.048	0.11
181.427	0.11
181.805	0.22
182.183	-0.18
182.561	-0
182.939	-0.19
183.317	-0
183.695	-0.18
184.073	-0
184.451	-0
184.829	0.19
185.206	-0.37
185.584	-0
185.962	-0
186.34	-0.34
186.718	-0
187.096	-0
187.473	-0.03
187.851	-0.3
188.229	-0.25
188.607	0.03
188.984	0.1
189.362	0.06
189.74	0.06
190.117	0.03
190.495	0.04
190.872	0.15
191.25	0.01
191.627	-0
192.005	0.1
192.382	0.09
192.76	0.15
193.137	0.02
193.515	0.08
193.892	0.05
194.269	0.07
194.647	0.04
195.024	0.06
195.401	0.2
195.779	0.22
196.156	0.07
196.533	0.08
196.91	0.07
197.288	0.13
197.665	0
198.042	0.21
198.419	0.01
198.796	0.23
199.173	0.13
199.55	0.19
199.927	0.09
200.304	0.04
200.681	0.03
201.058	0.03
201.435	0.12
201.812	0.15
202.189	0.2
202.566	0.11
202.943	0.09
203.32	0.18
203.697	0.14
204.073	0.05
204.45	0.15
204.827	0.13
205.204	0.23
205.58	0.19
205.957	0.2
206.334	0.13
206.71	0.1
207.087	0.03
207.464	0.21
207.84	0.18
208.217	0.13
208.593	0.18
208.97	0.14
209.346	0.1
209.723	0.13
210.099	0.19
210.476	0.05
210.852	0.11
211.228	0.15
211.605	0.15
211.981	0.11
212.357	0.1
212.733	0.22
213.11	0.15
213.486	0.1
213.862	0.14
214.238	0.16
214.614	0.08
214.991	0.1
215.367	0.09
215.743	0.14
216.119	0.07
216.495	0.08
216.871	0.05
217.247	0.17
217.623	0.14
217.999	0.06
218.375	0.12
218.751	0.1
219.127	0.09
219.502	0.18
219.878	0.1
220.254	0.06
220.63	0.06
221.006	0.13
221.381	0.12
221.757	0.13
222.133	0.09
222.508	0.16
222.884	0.18
223.26	0.22
223.635	0.12
224.011	0.06
224.386	0.1
224.762	0.21
225.137	0.14
225.513	0.11
225.888	0.17
226.264	0.09
226.639	-0.01
227.014	0.15
227.39	0.06
227.765	0.15
228.14	0.19
228.516	0.03
228.891	0.19
229.266	0.23
229.641	0.13
230.017	0.16
230.392	0.16
230.767	0.17
231.142	0.11
231.517	0.14
231.892	0.11
232.267	0.11
232.642	0.1
233.017	0.08
233.392	0.17
233.767	0.14
234.142	0.1
234.517	0.1
234.892	0.09
235.267	0.15
235.641	0.22
236.016	0.18
236.391	0.16
236.766	0.04
237.14	0.04
237.515	0.13
237.89	0.12
238.264	0.1
238.639	0.1
239.014	0.18
239.388	0.09
239.763	0.1
240.137	0.11
240.512	0.13
240.886	0.1
241.261	0.06
241.635	0.19
242.009	0.19
242.384	0.16
242.758	0.24
243.132	0.03
243.507	0.2
243.881	0.15
244.255	0.19
244.629	0.17
245.004	0.13
245.378	0.08
245.752	0.04
246.126	0.07
246.5	0.11
246.874	0.16
247.248	0.15
247.622	0.16
247.996	0.12
248.37	0.2
248.744	0.14
249.118	0.23
249.492	0.21
249.866	0.14
250.24	0.13
250.613	0.14
250.987	0.14
251.361	0.13
251.735	0.06
252.108	0.1
252.482	0.2
252.856	0.18
253.229	0.09
253.603	0.16
253.977	0.13
254.35	0.21
254.724	0.06
255.097	0.12
255.471	0.12
255.844	0.16
256.218	0.09
256.591	0.08
256.964	0.16
257.338	0.15
257.711	0.04
258.084	0.13
258.458	0.13
258.831	0.14
259.204	0.08
259.577	0.13
259.95	0.16
260.323	0.08
260.697	0.09
261.07	0.18
261.443	0.16
261.816	0.16
262.189	0.2
262.562	0.21
262.935	0.15
263.308	0.16
263.68	0.17
264.053	0.15
264.426	0.08
264.799	0.12
265.172	0.12
265.545	0.14
265.917	0.11
266.29	0.16
266.663	0.14
267.035	0.09
267.408	0.17
267.781	0.17
268.153	0.22
268.526	0.12
268.898	0.16
269.271	0.12
269.643	0.13
270.016	0.1
270.388	0.15
270.76	0.19
271.133	0.15
271.505	0.18
271.877	0.12
272.25	0.2
272.622	0.11
272.994	0.18
273.366	0.07
273.739	0.02
274.111	0.05
274.483	0.16
274.855	0.1
275.227	0.09
275.599	0.07
275.971	0.17
276.343	0.18
276.715	0.09
277.087	0.13
277.459	0.17
277.831	0.16
278.203	0.15
278.574	0.1
278.946	0.16
279.318	0.15
279.69	0.13
280.061	0.1
280.433	0.17
280.805	0.13
281.176	0.1
281.548	0.12
281.92	0.11
282.291	0.2
282.663	0.1
283.034	0.11
283.406	0.14
283.777	0.14
284.148	0.17
284.52	0.13
284.891	0.16
285.262	0.13
285.634	0.21
286.005	0.13
286.376	0.11
286.747	0.17
287.119	0.12
287.49	0.16
287.861	0.13
288.232	0.07
288.603	0.17
288.974	0.19
289.345	0.19
289.716	0.17
290.087	0.11
290.458	0.11
290.829	0.26
291.2	0.15
291.571	0.08
291.941	0.05
292.312	0.13
292.683	0.18
293.054	0.16
293.424	0.11
293.795	0.14
294.166	0.17
294.536	0.13
294.907	0.18
295.277	0.08
295.648	0.07
296.018	0.14
296.389	0.11
296.759	0.11
297.13	0.09
297.5	0.15
297.871	0.11
298.241	0.11
298.611	0.13
298.981	0.1
299.352	0.12
299.722	0.11
300.092	0.11
300.462	0.13
300.832	0.14
301.202	0.1
301.573	0.1
301.943	0.12
302.313	0.07
302.683	0.07
303.053	0.1
303.422	0.09
303.792	0.1
304.162	0.09
304.532	0.08
304.902	0.08
305.272	0.09
305.641	0.1
306.011	0.08
306.381	0.09
306.75	0.09
307.12	0.09
307.49	0.1
307.859	0.09
308.229	0.1
308.598	0.09
308.968	0.1
309.337	0.1
309.707	0.1
310.076	0.1
310.445	0.11
310.815	0.11
311.184	0.11
311.553	0.11
311.923	0.11
312.292	0.11
312.661	0.11
313.03	0.11
313.399	0.1
313.768	0.11
314.137	0.11
314.506	0.11
314.875	0.11
315.244	0.11
315.613	0.11
315.982	0.11
316.351	0.11
316.72	0.11
317.089	0.1
317.458	0.11
317.826	0.11
318.195	0.1
318.564	0.1
318.933	0.11
319.301	0.11
319.67	0.1
320.038	0.1
320.407	0.1
320.775	0.11
321.144	0.1
321.512	0.1
321.881	0.1
322.249	0.09
322.618	0.09
322.986	0.09
323.354	0.09
323.723	0.09
324.091	0.09
324.459	0.1
324.827	0.09
325.195	0.09
325.564	0.09
325.932	0.09
326.3	0.09
326.668	0.09
327.036	0.09
327.404	0.08
327.772	0.09
328.14	0.09
328.508	0.09
328.875	0.09
329.243	0.09
329.611	0.1
329.979	0.09
330.346	0.09
330.714	0.09
331.082	0.09
331.449	0.09
331.817	0.09
332.185	0.09
332.552	0.09
332.92	0.09
333.287	0.1
333.655	0.09
334.022	0.1
334.389	0.1
334.757	0.09
335.124	0.1
335.491	0.09
335.859	0.09
336.226	0.1
336.593	0.1
336.96	0.1
337.327	0.1
337.695	0.1
338.062	0.1
338.429	0.1
338.796	0.11
339.163	0.11
339.53	0.11
339.897	0.11
340.263	0.11
340.63	0.11
340.997	0.12
341.364	0.12
341.731	0.12
342.097	0.11
342.464	0.12
342.831	0.12
343.197	0.13
343.564	0.13
343.931	0.13
344.297	0.13
344.664	0.13
345.03	0.13
345.396	0.14
345.763	0.14
346.129	0.14
346.496	0.14
346.862	0.15
347.228	0.15
347.594	0.15
347.961	0.15
348.327	0.16
348.693	0.16
349.059	0.16
349.425	0.16
349.791	0.17
350.157	0.16
350.523	0.17
350.889	0.17
351.255	0.18
351.621	0.18
351.987	0.18
352.353	0.19
352.719	0.19
353.084	0.19
353.45	0.2
353.816	0.2
354.181	0.2
354.547	0.2
354.913	0.21
355.278	0.21
355.644	0.22
356.009	0.22
356.375	0.23
356.74	0.23
357.106	0.24
357.471	0.24
357.836	0.25
358.202	0.25
358.567	0.26
358.932	0.26
359.297	0.27
359.663	0.28
360.028	0.27
360.393	0.28
360.758	0.29
361.123	0.29
361.488	0.29
361.853	0.3
362.218	0.3
362.583	0.3
362.948	0.3
363.312	0.31
363.677	0.31
364.042	0.32
364.407	0.33
364.772	0.33
365.136	0.34
365.501	0.34
365.865	0.35
366.23	0.35
366.595	0.36
366.959	0.37
367.324	0.38
367.688	0.39
368.052	0.39
368.417	0.4
368.781	0.41
369.145	0.41
369.51	0.41
369.874	0.41
370.238	0.41
370.602	0.42
370.967	0.41
371.331	0.41
371.695	0.41
372.059	0.41
372.423	0.41
372.787	0.41
373.151	0.4
373.515	0.4
373.878	0.41
374.242	0.4
374.606	0.4
374.97	0.41
375.334	0.41
375.697	0.41
376.061	0.41
376.425	0.41
376.788	0.41
377.152	0.42
377.515	0.42
377.879	0.42
378.242	0.43
378.606	0.44
378.969	0.44
379.333	0.44
379.696	0.45
380.059	0.45
380.422	0.46
380.786	0.47
381.149	0.48
381.512	0.49
381.875	0.5
382.238	0.52
382.601	0.53
382.964	0.54
383.327	0.55
383.69	0.57
384.053	0.6
384.416	0.6
384.779	0.62
385.142	0.63
385.504	0.64
385.867	0.65
386.23	0.66
386.593	0.66
386.955	0.67
387.318	0.67
387.68	0.66
388.043	0.65
388.405	0.65
388.768	0.65
389.13	0.65
389.493	0.64
389.855	0.64
390.217	0.63
390.58	0.63
390.942	0.63
391.304	0.64
391.666	0.65
392.028	0.67
392.391	0.67
392.753	0.69
393.115	0.71
393.477	0.74
393.839	0.76
394.201	0.79
394.563	0.83
394.924	0.87
395.286	0.89
395.648	0.92
396.01	0.95
396.371	0.98
396.733	0.99
397.095	1.02
397.456	1.03
397.818	1.03
398.18	1.02
398.541	1
398.903	0.98
399.264	0.96
399.625	0.93
399.987	0.89
400.348	0.85
400.709	0.8
401.071	0.77
401.432	0.72
401.793	0.68
402.154	0.63
402.515	0.59
402.876	0.55
403.238	0.51
403.599	0.48
403.96	0.44
404.32	0.41
404.681	0.38
405.042	0.36
405.403	0.33
405.764	0.31
406.125	0.29
406.485	0.27
406.846	0.25
407.207	0.24
407.567	0.22
407.928	0.21
408.288	0.2
408.649	0.19
409.009	0.18
409.37	0.17
409.73	0.16
410.091	0.15
410.451	0.15
410.811	0.14
411.171	0.13
411.532	0.12
411.892	0.12
412.252	0.12
412.612	0.12
412.972	0.11
413.332	0.11
413.692	0.11
414.052	0.11
414.412	0.1
414.772	0.09
415.132	0.09
415.492	0.09
415.851	0.09
416.211	0.09
416.571	0.09
416.931	0.08
417.29	0.08
417.65	0.08
418.009	0.07
418.369	0.08
418.728	0.08
419.088	0.07
419.447	0.07
419.807	0.07
420.166	0.07
420.525	0.06
420.884	0.07
421.244	0.07
421.603	0.06
421.962	0.06
422.321	0.06
422.68	0.06
423.039	0.06
423.398	0.06
423.757	0.05
424.116	0.06
424.475	0.06
424.834	0.06
425.193	0.06
425.551	0.06
425.91	0.05
426.269	0.06
426.628	0.06
426.986	0.06
427.345	0.05
427.703	0.06
428.062	0.05
428.42	0.05
428.779	0.05
429.137	0.05
429.496	0.05
429.854	0.05
430.212	0.05
430.57	0.04
430.929	0.04
431.287	0.04
431.645	0.05
432.003	0.05
432.361	0.04
432.719	0.04
433.077	0.04
433.435	0.05
433.793	0.04
434.151	0.04
434.509	0.04
434.866	0.04
435.224	0.05
435.582	0.05
435.94	0.03
436.297	0.04
436.655	0.04
437.012	0.04
437.37	0.03
437.727	0.04
438.085	0.04
438.442	0.03
438.8	0.04
439.157	0.03
439.514	0.03
439.872	0.04
440.229	0.03
440.586	0.04
440.943	0.04
441.3	0.04
441.657	0.03
442.014	0.04
442.371	0.03
442.728	0.03
443.085	0.04
443.442	0.03
443.799	0.03
444.156	0.02
444.513	0.03
444.869	0.03
445.226	0.02
445.583	0.03
445.939	0.01
446.296	0.02
446.652	0.01
447.009	0.02
447.365	0.02
447.722	0.02
448.078	0.02
448.434	0.02
448.791	0.02
449.147	0.01
449.503	0.02
449.859	0.02
450.215	0.01
450.571	0
450.928	0
451.284	0
451.64	0
451.995	-0
452.351	0.01
452.707	0
453.063	-0
453.419	0
453.775	-0
454.13	-0.01
454.486	-0.01
454.842	-0.01
455.197	-0.01
455.553	-0.02
455.908	-0.02
456.264	-0.02
456.619	-0.04
456.975	-0.03
457.33	-0.03
457.685	-0.03
458.04	-0.04
458.396	-0.04
458.751	-0.05
459.106	-0.05
459.461	-0.05
459.816	-0.06
460.171	-0.06
460.526	-0.07
460.881	-0.08
461.236	-0.08
461.591	-0.08
461.946	-0.09
462.301	-0.09
462.655	-0.1
463.01	-0.09
463.365	-0.1
463.719	-0.1
464.074	-0.11
464.428	-0.12
464.783	-0.12
465.137	-0.13
465.492	-0.13
465.846	-0.13
466.201	-0.13
466.555	-0.13
466.909	-0.13
467.263	-0.13
467.618	-0.12
467.972	-0.13
468.326	-0.13
468.68	-0.14
469.034	-0.13
469.388	-0.14
469.742	-0.14
470.096	-0.14
470.45	-0.14
470.804	-0.14
471.157	-0.15
471.511	-0.15
471.865	-0.14
472.218	-0.14
472.572	-0.14
472.926	-0.13
473.279	-0.13
473.633	-0.13
473.986	-0.12
474.34	-0.12
474.693	-0.11
475.046	-0.1
475.4	-0.09
475.753	-0.09
476.106	-0.09
476.459	-0.08
476.812	-0.07
477.165	-0.06
477.519	-0.06
477.872	-0.05
478.224	-0.06
478.577	-0.04
478.93	-0.05
479.283	-0.04
479.636	-0.04
479.989	-0.04
480.341	-0.03
480.694	-0.03
481.047	-0.03
481.399	-0.02
481.752	-0.02
482.104	-0.01
482.457	-0.01
482.809	-0.01
483.162	-0.01
483.514	-0
483.866	-0
484.219	-0
484.571	-0
484.923	-0
485.275	0
485.627	0.01
485.979	0.01
486.331	0.01
486.683	0.01
487.035	0.01
487.387	0.02
487.739	0.02
488.091	0.03
488.443	0.03
488.794	0.03
489.146	0.02
489.498	0.03
489.849	0.03
490.201	0.03
490.552	0.03
490.904	0.03
491.255	0.03
491.607	0.03
491.958	0.04
492.309	0.03
492.661	0.04
493.012	0.04
493.363	0.04
493.714	0.04
494.065	0.04
494.416	0.04
494.767	0.04
495.118	0.04
495.469	0.05
495.82	0.04
496.171	0.05
496.522	0.05
496.872	0.05
497.223	0.05
497.574	0.05
497.924	0.05
498.275	0.05
498.626	0.06
498.976	0.06
499.327	0.06
499.677	0.06
500.027	0.06
500.378	0.06
500.728	0.06
501.078	0.06
501.428	0.06
501.779	0.07
502.129	0.07
502.479	0.07
502.829	0.07
503.179	0.07
503.529	0.07
503.879	0.08
504.229	0.07
504.578	0.07
504.928	0.08
505.278	0.08
505.628	0.08
505.977	0.08
506.327	0.08
506.676	0.08
507.026	0.08
507.375	0.09
507.725	0.09
508.074	0.09
508.424	0.08
508.773	0.09
509.122	0.09
509.471	0.09
509.82	0.09
510.17	0.09
510.519	0.09
510.868	0.1
511.217	0.09
511.566	0.1
511.915	0.1
512.263	0.1
512.612	0.1
512.961	0.1
513.31	0.1
513.659	0.1
514.007	0.1
514.356	0.1
514.704	0.11
515.053	0.1
515.401	0.1
515.75	0.11
516.098	0.11
516.447	0.11
516.795	0.11
517.143	0.11
517.491	0.11
517.839	0.11
518.188	0.11
518.536	0.12
518.884	0.12
519.232	0.11
519.58	0.12
519.928	0.12
520.275	0.12
520.623	0.11
520.971	0.12
521.319	0.13
521.666	0.12
522.014	0.12
522.362	0.12
522.709	0.12
523.057	0.12
523.404	0.13
523.752	0.13
524.099	0.13
524.446	0.13
524.794	0.13
525.141	0.13
525.488	0.13
525.835	0.13
526.182	0.14
526.529	0.13
526.876	0.14
527.223	0.14
527.57	0.14
527.917	0.14
528.264	0.14
528.611	0.14
528.958	0.14
529.304	0.14
529.651	0.15
529.998	0.14
530.344	0.15
530.691	0.15
531.037	0.15
531.384	0.15
531.73	0.15
532.076	0.15
532.423	0.15
532.769	0.15
533.115	0.16
533.461	0.16
533.807	0.16
534.154	0.16
534.5	0.16
534.846	0.16
535.192	0.16
535.537	0.16
535.883	0.16
536.229	0.17
536.575	0.17
536.921	0.17
537.266	0.17
537.612	0.17
537.957	0.17
538.303	0.17
538.649	0.17
538.994	0.17
539.339	0.18
539.685	0.18
540.03	0.18
540.375	0.18
540.721	0.18
541.066	0.18
541.411	0.18
541.756	0.18
542.101	0.19
542.446	0.19
542.791	0.19
543.136	0.19
543.481	0.19
543.825	0.19
544.17	0.2
544.515	0.2
544.86	0.2
545.204	0.2
545.549	0.2
545.893	0.2
546.238	0.2
546.582	0.21
546.927	0.21
547.271	0.21
547.615	0.21
547.96	0.21
548.304	0.21
548.648	0.21
548.992	0.21
549.336	0.21
549.68	0.21
550.024	0.21
550.368	0.22
550.712	0.22
551.056	0.22
551.4	0.22
551.743	0.22
552.087	0.23
552.431	0.22
552.774	0.23
553.118	0.23
553.462	0.23
553.805	0.23
554.148	0.23
554.492	0.23
554.835	0.23
555.178	0.23
555.522	0.23
555.865	0.23
556.208	0.24
556.551	0.23
556.894	0.23
557.237	0.24
557.58	0.24
557.923	0.23
558.266	0.24
558.609	0.24
558.952	0.24
559.294	0.24
559.637	0.24
559.98	0.24
560.322	0.24
560.665	0.24
561.007	0.24
561.35	0.24
561.692	0.24
562.034	0.24
562.377	0.25
562.719	0.25
563.061	0.25
563.403	0.25
563.745	0.25
564.088	0.25
564.43	0.25
564.772	0.25
565.113	0.25
565.455	0.25
565.797	0.26
566.139	0.26
566.481	0.26
566.822	0.25
567.164	0.25
567.506	0.25
567.847	0.25
568.189	0.25
568.53	0.25
568.872	0.26
569.213	0.26
569.554	0.26
569.895	0.26
570.237	0.26
570.578	0.26
570.919	0.26
571.26	0.26
571.601	0.26
571.942	0.25
572.283	0.25
572.624	0.25
572.965	0.26
573.306	0.25
573.646	0.25
573.987	0.25
574.328	0.26
574.668	0.26
575.009	0.26
575.349	0.26
575.69	0.26
576.03	0.26
576.37	0.25
576.711	0.25
577.051	0.25
577.391	0.26
577.731	0.26
578.072	0.26
578.412	0.26
578.752	0.26
579.092	0.26
579.431	0.25
579.771	0.25
580.111	0.25
580.451	0.25
580.791	0.26
581.13	0.26
581.47	0.26
581.81	0.26
582.149	0.26
582.489	0.26
582.828	0.26
583.167	0.25
583.507	0.23
583.846	0.21
584.185	0.23
584.525	0.25
584.864	0.26
585.203	0.26
585.542	0.27
585.881	0.27
586.22	0.27
586.559	0.27
586.898	0.27
587.236	0.27
587.575	0.27
587.914	0.27
588.252	0.27
588.591	0.27
588.93	0.28
589.268	0.27
589.607	0.27
589.945	0.28
590.283	0.28
590.622	0.28
590.96	0.28
591.298	0.28
591.636	0.28
591.974	0.29
592.313	0.29
592.651	0.29
592.989	0.29
593.326	0.3
593.664	0.3
594.002	0.3
594.34	0.29
594.678	0.29
595.015	0.3
595.353	0.29
595.691	0.3
596.028	0.3
596.366	0.3
596.703	0.31
597.04	0.3
597.378	0.31
597.715	0.31
598.052	0.31
598.389	0.31
598.726	0.31
599.064	0.31
599.401	0.32
599.738	0.31
600.074	0.32
600.411	0.31
600.748	0.32
601.085	0.31
601.422	0.31
601.758	0.31
602.095	0.31
602.432	0.31
602.768	0.31
603.105	0.31
603.441	0.32
603.777	0.32
604.114	0.32
604.45	0.32
604.786	0.32
605.122	0.32
605.459	0.32
605.795	0.32
606.131	0.32
606.467	0.32
606.803	0.32
607.139	0.32
607.474	0.32
607.81	0.32
608.146	0.31
608.482	0.31
608.817	0.31
609.153	0.31
609.488	0.31
609.824	0.31
610.159	0.31
610.495	0.31
610.83	0.31
611.165	0.31
611.5	0.31
611.836	0.31
612.171	0.31
612.506	0.31
612.841	0.31
613.176	0.31
613.511	0.31
613.845	0.31
614.18	0.3
614.515	0.31
614.85	0.31
615.184	0.31
615.519	0.31
615.854	0.31
616.188	0.3
616.523	0.3
616.857	0.3
617.191	0.3
617.526	0.3
617.86	0.3
618.194	0.29
618.528	0.3
618.862	0.3
619.196	0.3
619.53	0.29
619.864	0.29
620.198	0.29
620.532	0.29
620.866	0.29
621.2	0.29
621.533	0.29
621.867	0.29
622.201	0.28
622.534	0.28
622.868	0.28
623.201	0.29
623.534	0.29
623.868	0.28
624.201	0.28
624.534	0.28
624.868	0.28
625.201	0.28
625.534	0.28
625.867	0.28
626.2	0.28
626.533	0.27
626.865	0.27
627.198	0.27
627.531	0.27
627.864	0.27
628.196	0.27
628.529	0.27
628.862	0.27
629.194	0.27
629.527	0.26
629.859	0.26
630.191	0.26
630.524	0.26
630.856	0.26
631.188	0.26
631.52	0.25
631.852	0.25
632.184	0.25
632.516	0.25
632.848	0.25
633.18	0.24
633.512	0.24
633.844	0.25
634.175	0.24
634.507	0.24
634.839	0.24
635.17	0.24
635.502	0.23
635.833	0.23
636.165	0.23
636.496	0.23
636.827	0.23
637.159	0.23
637.49	0.23
637.821	0.22
638.152	0.23
638.483	0.22
638.814	0.22
639.145	0.22
639.476	0.22
639.807	0.22
640.137	0.21
640.468	0.21
640.799	0.2
641.129	0.21
641.46	0.2
641.791	0.2
642.121	0.2
642.451	0.2
642.782	0.2
643.112	0.2
643.442	0.2
643.773	0.2
644.103	0.2
644.433	0.2
644.763	0.19
645.093	0.19
645.423	0.19
645.753	0.19
646.082	0.19
646.412	0.18
646.742	0.18
647.072	0.18
647.401	0.18
647.731	0.18
648.06	0.18
648.39	0.18
648.719	0.19
649.048	0.18
649.378	0.18
649.707	0.18
650.036	0.18
650.365	0.18
650.694	0.18
651.023	0.18
651.352	0.18
651.681	0.18
652.01	0.18
652.339	0.18
652.668	0.18
652.996	0.18
653.325	0.18
653.654	0.18
653.982	0.18
654.311	0.18
654.639	0.18
654.967	0.18
655.296	0.18
655.624	0.18
655.952	0.17
656.28	0.18
656.609	0.17
656.937	0.18
657.265	0.17
657.593	0.16
657.92	0.03
658.248	0
658.576	0
658.904	0.06
659.231	0.14
659.559	0.17
659.887	0.17
660.214	0.18
660.542	0.17
660.869	0.17
661.196	0.17
661.524	0.17
661.851	0.17
662.178	0.17
662.505	0.17
662.832	0.17
663.159	0.17
663.486	0.17
663.813	0.17
664.14	0.17
664.467	0.17
664.794	0.17
665.12	0.17
665.447	0.17
665.774	0.17
666.1	0.17
666.427	0.17
666.753	0.17
667.079	0.17
667.406	0.16
667.732	0.16
668.058	0.16
668.384	0.17
668.71	0.17
669.036	0.16
669.362	0.16
669.688	0.16
670.014	0.17
670.34	0.16
670.666	0.16
670.991	0.16
671.317	0.16
671.643	0.16
671.968	0.16
672.294	0.16
672.619	0.16
672.945	0.16
673.27	0.16
673.595	0.16
673.92	0.15
674.246	0.15
674.571	0.15
674.896	0.15
675.221	0.15
675.546	0.15
675.87	0.15
676.195	0.15
676.52	0.15
676.845	0.15
677.169	0.15
677.494	0.14
677.819	0.14
678.143	0.15
678.468	0.14
678.792	0.14
679.116	0.14
679.44	0.14
679.765	0.13
680.089	0.13
680.413	0.13
680.737	0.13
681.061	0.13
681.385	0.13
681.709	0.13
682.033	0.13
682.356	0.13
682.68	0.13
683.004	0.13
683.327	0.13
683.651	0.12
683.974	0.13
684.298	0.12
684.621	0.12
684.944	0.12
685.268	0.12
685.591	0.11
685.914	0.11
686.237	0.11
686.56	0.11
686.883	0.11
687.206	0.11
687.529	0.11
687.852	0.11
688.175	0.11
688.497	0.11
688.82	0.11
689.142	0.11
689.465	0.11
689.787	0.11
690.11	0.1
690.432	0.1
690.755	0.1
691.077	0.1
691.399	0.1
691.721	0.1
692.043	0.1
692.365	0.1
692.687	0.09
693.009	0.09
693.331	0.09
693.653	0.09
693.974	0.09
694.296	0.09
694.618	0.09
694.939	0.09
695.261	0.09
695.582	0.08
695.904	0.08
696.225	0.08
696.546	0.08
696.868	0.09
697.189	0.08
697.51	0.08
697.831	0.08
698.152	0.08
698.473	0.08
698.794	0.08
699.114	0.08
699.435	0.08
699.756	0.08
700.077	0.08
700.397	0.08
700.718	0.08
701.038	0.08
701.359	0.08
701.679	0.08
701.999	0.08
702.32	0.08
702.64	0.08
702.96	0.08
703.28	0.08
703.6	0.08
703.92	0.07
704.24	0.07
704.56	0.07
704.879	0.07
705.199	0.07
705.519	0.07
705.838	0.07
706.158	0.07
706.478	0.07
706.797	0.07
707.116	0.07
707.436	0.07
707.755	0.07
708.074	0.07
708.393	0.07
708.712	0.07
709.031	0.06
709.35	0.06
709.669	0.06
709.988	0.06
710.307	0.06
710.626	0.07
710.944	0.07
711.263	0.07
711.582	0.07
711.9	0.06
712.219	0.07
712.537	0.07
712.855	0.07
713.174	0.07
713.492	0.06
713.81	0.07
714.128	0.07
714.446	0.07
714.764	0.06
715.082	0.06
715.4	0.06
715.718	0.06
716.035	0.06
716.353	0.06
716.671	0.06
716.988	0.06
717.306	0.06
717.623	0.07
717.941	0.07
718.258	0.07
718.575	0.07
718.893	0.07
719.21	0.07
719.527	0.07
719.844	0.06
720.161	0.06
720.478	0.06
720.795	0.07
721.112	0.06
721.428	0.06
721.745	0.06
722.062	0.06
722.378	0.07
722.695	0.07
723.011	0.07
723.328	0.07
723.644	0.07
723.96	0.07
724.276	0.07
724.593	0.07
724.909	0.08
725.225	0.08
725.541	0.08
725.857	0.08
726.173	0.08
726.488	0.08
726.804	0.08
727.12	0.07
727.435	0.07
727.751	0.07
728.067	0.07
728.382	0.08
728.697	0.07
729.013	0.08
729.328	0.07
729.643	0.07
729.958	0.07
730.273	0.08
730.588	0.08
730.903	0.08
731.218	0.08
731.533	0.08
731.848	0.08
732.163	0.07
732.477	0.08
732.792	0.08
733.107	0.07
733.421	0.08
733.736	0.07
734.05	0.08
734.364	0.08
734.678	0.08
734.993	0.07
735.307	0.08
735.621	0.07
735.935	0.07
736.249	0.07
736.563	0.07
736.877	0.08
737.19	0.08
737.504	0.08
737.818	0.08
738.131	0.08
738.445	0.08
738.758	0.08
739.072	0.07
739.385	0.07
739.698	0.07
740.012	0.07
740.325	0.07
740.638	0.07
740.951	0.07
741.264	0.07
741.577	0.07
741.89	0.07
742.203	0.07
742.515	0.07
742.828	0.07
743.141	0.07
743.453	0.07
743.766	0.07
744.078	0.07
744.391	0.07
744.703	0.07
745.015	0.07
745.327	0.07
745.639	0.07
745.952	0.07
746.264	0.07
746.575	0.07
746.887	0.07
747.199	0.07
747.511	0.07
747.823	0.07
748.134	0.06
748.446	0.06
748.757	0.06
749.069	0.06
749.38	0.06
749.692	0.06
750.003	0.06
750.314	0.06
750.625	0.06
750.936	0.06
751.248	0.06
751.559	0.06
751.869	0.06
752.18	0.06
752.491	0.06
752.802	0.05
753.112	0.05
753.423	0.05
753.734	0.05
754.044	0.05
754.355	0.05
754.665	0.05
754.975	0.05
755.285	0.05
755.596	0.05
755.906	0.05
756.216	0.05
756.526	0.05
756.836	0.05
757.146	0.05
757.455	0.05
757.765	0.05
758.075	0.05
758.385	0.04
758.694	0.04
759.004	0.04
759.313	0.04
759.622	0.04
759.932	0.04
760.241	0.04
760.55	0.04
760.859	0.04
761.168	0.04
761.477	0.04
761.786	0.04
762.095	0.04
762.404	0.03
762.713	0.04
763.021	0.04
763.33	0.03
763.639	0.03
763.947	0.03
764.256	0.03
764.564	0.04
764.872	0.04
765.181	0.03
765.489	0.03
765.797	0.03
766.105	0.03
766.413	0.03
766.721	0.03
767.029	0.03
767.337	0.03
767.644	0.03
767.952	0.03
768.26	0.03
768.567	0.03
768.875	0.03
769.182	0.03
769.49	0.03
769.797	0.03
770.104	0.03
770.411	0.03
770.718	0.04
771.026	0.03
771.333	0.03
771.639	0.03
771.946	0.03
772.253	0.03
772.56	0.03
772.867	0.03
773.173	0.03
773.48	0.03
773.786	0.03
774.093	0.03
774.399	0.03
774.705	0.03
775.012	0.03
775.318	0.03
775.624	0.03
775.93	0.03
776.236	0.03
776.542	0.03
776.848	0.03
777.154	0.03
777.459	0.03
777.765	0.03
778.071	0.03
778.376	0.03
778.682	0.03
778.987	0.03
779.292	0.03
779.598	0.03
779.903	0.03
780.208	0.03
780.513	0.03
780.818	0.02
781.123	0.03
781.428	0.03
781.733	0.02
782.038	0.02
782.343	0.03
782.647	0.03
782.952	0.03
783.256	0.03
783.561	0.03
783.865	0.03
784.17	0.03
784.474	0.03
784.778	0.03
785.082	0.03
785.386	0.03
785.69	0.04
785.994	0.03
786.298	0.03
786.602	0.03
786.906	0.03
787.209	0.03
787.513	0.03
787.817	0.04
788.12	0.04
788.424	0.04
788.727	0.04
789.03	0.03
789.333	0.03
789.637	0.03
789.94	0.03
790.243	0.02
790.546	0.03
790.849	0.02
791.152	0.02
791.454	0.02
791.757	0.02
792.06	0.02
792.362	0.01
792.665	0.02
792.967	0.02
793.27	0.01
793.572	0.02
793.874	0.02
794.177	0.02
794.479	0.02
794.781	0.02
795.083	0.02
795.385	0.02
795.687	0.02
795.989	0.02
796.29	0.03
796.592	0.03
796.894	0.03
797.195	0.03
797.497	0.02
797.798	0.02
798.1	0.02
798.401	0.02
798.702	0.02
799.003	0.02
799.304	0.02
799.605	0.02
799.906	0.02
800.207	0.02
800.508	0.02
800.809	0.02
801.11	0.02
801.41	0.02
801.711	0.02
802.011	0.02
802.312	0.02
802.612	0.02
802.913	0.02
803.213	0.02
803.513	0.03
803.813	0.02
804.113	0.02
804.413	0.02
804.713	0.02
805.013	0.02
805.313	0.02
805.613	0.02
805.912	0.02
806.212	0.02
806.511	0.02
806.811	0.02
807.11	0.02
807.41	0.02
807.709	0.02
808.008	0.02
808.307	0.02
808.606	0.02
808.905	0.03
809.204	0.02
809.503	0.02
809.802	0.02
810.101	0.02
810.399	0.02
810.698	0.01
810.997	0.02
811.295	0.02
811.593	0.02
811.892	0.03
812.19	0.03
812.488	0.02
812.786	0.02
813.084	0.02
813.383	0.02
813.68	0.02
813.978	0.02
814.276	0.02
814.574	0.02
814.872	0.02
815.169	0.01
815.467	0.02
815.764	0.02
816.062	0.02
816.359	0.01
816.656	0.01
816.954	0.01
817.251	0.02
817.548	0.01
817.845	0.01
818.142	0.02
818.439	0.01
818.735	0.02
819.032	0.01
819.329	0.02
819.626	0.02
819.922	0.02
820.219	0.02
820.515	0.02
820.811	0.02
821.108	0.01
821.404	0.02
821.7	0.01
821.996	0.01
822.292	0.01
822.588	0.01
822.884	0.01
823.18	0.01
823.475	0.01
823.771	0.01
824.067	0.01
824.362	0.01
824.658	0.02
824.953	0.01
825.249	0.01
825.544	0.01
825.839	0.01
826.134	0.01
826.429	0.01
826.724	0.01
827.019	0.01
827.314	0.02
827.609	0.01
827.904	0.02
828.198	0.01
828.493	0.01
828.787	0.01
829.082	0.01
829.376	0.01
829.671	0.01
829.965	0.01
830.259	0.01
830.553	0
830.847	0
831.141	0
831.435	0.01
831.729	0
832.023	0
832.317	0.01
832.61	0.01
832.904	0.01
833.197	0.01
833.491	0.01
833.784	0.01
834.077	0.01
834.371	0.01
834.664	0.02
834.957	0.01
835.25	0.01
835.543	0.02
835.836	0.02
836.129	0.01
836.421	0.01
836.714	0.01
837.007	0.02
837.299	0.01
837.592	0.01
837.884	0
838.177	0
838.469	0.01
838.761	0
839.053	0
839.345	0.01
839.637	-0
839.929	0.01
840.221	0.01
840.513	0.01
840.805	0.02
841.096	0.01
841.388	0.01
841.68	0.01
841.971	0.02
842.262	0
842.554	0.01
842.845	0.01
843.136	0.01
843.427	0.01
843.718	0
844.009	-0
844.3	0.01
844.591	0.01
844.882	0.01
845.173	0.01
845.463	0.01
845.754	0.01
846.044	0.02
846.335	0.01
846.625	0.01
846.915	0.01
847.206	0
847.496	0.01
847.786	0.02
848.076	0.01
848.366	0.01
848.656	-0
848.945	0.01
849.235	0
849.525	-0
849.814	0.01
850.104	0.01
850.393	0.01
850.683	0.01
850.972	0.01
851.261	0.02
851.551	0.02
851.84	0.03
852.129	0.02
852.418	0.01
852.707	0.02
852.995	0
853.284	0.01
853.573	0.02
853.862	0.01
854.15	0
854.439	0.01
854.727	0.01
855.015	0.01
855.304	0.01
855.592	-0
855.88	-0
856.168	0.01
856.456	0
856.744	0
857.032	-0.02
857.32	-0
857.607	-0
857.895	-0.01
858.183	-0.01
858.47	-0.01
858.757	-0.02
859.045	-0.02
859.332	0
859.619	0.01
859.907	0.01
860.194	-0
860.481	0
860.768	0
861.054	0.01
861.341	0.01
861.628	-0
861.915	-0.03
862.201	0.01
862.488	-0.02
862.774	-0
863.061	-0.01
863.347	0
863.633	-0.01
863.919	-0.04
864.205	-0
864.491	-0.02
864.777	-0.02
865.063	0.02
865.349	0.03
865.635	-0.01
865.92	-0
866.206	-0.02
866.492	-0
866.777	-0.01
867.062	-0.01
867.348	-0.08
867.633	0.03
867.918	-0.04
868.203	-0.02
868.488	-0.03
868.773	0
869.058	-0.07
869.343	-0.04
869.628	-0.01
869.912	-0.04
870.197	-0.01
870.482	-0.06
870.766	-0.06
871.05	-0.01
871.335	-0.02
871.619	-0
871.903	-0.04
872.187	-0.01
872.471	-0.06
872.755	-0.06
873.039	-0.08
873.323	-0.05
873.607	-0.03
873.89	-0.05
874.174	-0.02
874.458	-0.04
874.741	0.02
875.024	-0.08
875.308	0.07
875.591	-0.05
875.874	0.03
876.157	-0.06
876.44	-0.01
876.723	0.09
877.006	0.05
877.289	-0.04
877.572	-0.02
877.854	0.03
878.137	-0.02
878.42	0.07
878.702	-0.02
878.984	0.02
879.267	-0
879.549	-0.03
879.831	-0.09
880.113	-0.09
880.395	-0.03
880.677	-0.13
880.959	0.05
