Data from Rubpy_EV_900_EDTA_Buffered_Absorbance_13-58-05-834.txt Node
Date: Tue Jun 30 13:58:05 BST 2026
User: fpm-admin
Spectrometer: OFX00224
Trigger mode: 0
Integration Time (sec): 7.000000E-2
Scans to average: 3
Nonlinearity correction enabled: false
Boxcar width: 0
Storing dark spectrum: false
XAxis mode: Wavelengths
Number of Pixels in Spectrum: 2136
>>>>>Begin Spectral Data<<<<<
154.91	1.13
155.289	-1
155.669	0.6
156.048	-0.82
156.428	-0
156.807	-0
157.186	-0.18
157.566	0.18
157.945	-0.1
158.325	-0.5
158.704	-0.48
159.083	-0
159.462	0.09
159.842	-0.03
160.221	0.51
160.6	0.18
160.979	0.2
161.359	-0
161.738	-0.18
162.117	0.67
162.496	-0.36
162.875	-0
163.254	-0
163.633	0.09
164.012	-1.41
164.391	-0.13
164.77	-0.63
165.149	0.02
165.528	-0
165.907	-0
166.286	-0
166.665	-0
167.044	-0
167.423	0.01
167.802	-0.59
168.181	0.06
168.559	-0
168.938	-0
169.317	0.13
169.696	-0
170.074	-0.99
170.453	-0
170.832	-0
171.21	-0.1
171.589	-0
171.968	-0.12
172.346	-0.67
172.725	0.37
173.103	-0
173.482	-0.26
173.861	-0.1
174.239	0.08
174.617	0.7
174.996	-0
175.374	-0
175.753	-0.25
176.131	0.37
176.51	0.22
176.888	-0
177.266	-0
177.645	0.07
178.023	0.8
178.401	-0.12
178.779	0.15
179.158	-0
179.536	-0.03
179.914	0.12
180.292	-0
180.67	-0
181.048	-0
181.427	-0
181.805	-0.41
182.183	-1.1
182.561	-0
182.939	-0.45
183.317	-0.3
183.695	0.03
184.073	-0
184.451	-0.44
184.829	1.11
185.206	-0.29
185.584	-0
185.962	0.13
186.34	-0
186.718	-0
187.096	0.55
187.473	0.67
187.851	-0.26
188.229	0.54
188.607	0.12
188.984	0.11
189.362	0.09
189.74	0.06
190.117	0.02
190.495	0.14
190.872	0.14
191.25	0.12
191.627	0.12
192.005	0.06
192.382	0.22
192.76	0.13
193.137	0.16
193.515	0.24
193.892	0.09
194.269	0.2
194.647	0.08
195.024	0.08
195.401	0.17
195.779	0.12
196.156	0.17
196.533	0.07
196.91	0.08
197.288	0.09
197.665	0.05
198.042	0.12
198.419	0.05
198.796	0.18
199.173	0.19
199.55	0.26
199.927	0.12
200.304	0.07
200.681	0.21
201.058	0.03
201.435	0.16
201.812	0.12
202.189	0.14
202.566	0.09
202.943	0.08
203.32	0.16
203.697	0.15
204.073	0.15
204.45	0.13
204.827	0.2
205.204	0.15
205.58	0.15
205.957	0.14
206.334	0.16
206.71	0.17
207.087	0.08
207.464	0.17
207.84	0.17
208.217	0.02
208.593	0.08
208.97	0.14
209.346	0.12
209.723	0.29
210.099	0.19
210.476	0.11
210.852	0.16
211.228	0.13
211.605	0.13
211.981	0.14
212.357	0.15
212.733	0.22
213.11	0.19
213.486	0.14
213.862	0.2
214.238	0.32
214.614	0.14
214.991	0.19
215.367	0.16
215.743	0.24
216.119	0.06
216.495	0.2
216.871	0.18
217.247	0.27
217.623	0.17
217.999	0.16
218.375	0.17
218.751	0.1
219.127	0.09
219.502	0.23
219.878	0.27
220.254	0.29
220.63	0.15
221.006	0.13
221.381	0.14
221.757	0.13
222.133	0.28
222.508	0.1
222.884	0.23
223.26	0.15
223.635	0.13
224.011	0.11
224.386	0.1
224.762	0.17
225.137	0.19
225.513	0.11
225.888	0.18
226.264	0.13
226.639	0.06
227.014	0.18
227.39	0.09
227.765	0.14
228.14	0.21
228.516	0.11
228.891	0.26
229.266	0.15
229.641	0.32
230.017	0.17
230.392	0.23
230.767	0.27
231.142	0.2
231.517	0.22
231.892	0.12
232.267	0.17
232.642	0.21
233.017	0.07
233.392	0.31
233.767	0.22
234.142	0.1
234.517	0.12
234.892	0.11
235.267	0.23
235.641	0.18
236.016	0.26
236.391	0.19
236.766	0.12
237.14	0.2
237.515	0.14
237.89	0.16
238.264	0.23
238.639	0.25
239.014	0.15
239.388	0.14
239.763	0.13
240.137	0.18
240.512	0.13
240.886	0.09
241.261	0.12
241.635	0.22
242.009	0.23
242.384	0.12
242.758	0.14
243.132	0.11
243.507	0.2
243.881	0.1
244.255	0.19
244.629	0.22
245.004	0.21
245.378	0.2
245.752	0.1
246.126	0.13
246.5	0.1
246.874	0.25
247.248	0.19
247.622	0.22
247.996	0.13
248.37	0.21
248.744	0.21
249.118	0.34
249.492	0.21
249.866	0.14
250.24	0.24
250.613	0.22
250.987	0.21
251.361	0.18
251.735	0.16
252.108	0.14
252.482	0.27
252.856	0.19
253.229	0.24
253.603	0.24
253.977	0.18
254.35	0.24
254.724	0.17
255.097	0.08
255.471	0.26
255.844	0.16
256.218	0.24
256.591	0.17
256.964	0.18
257.338	0.26
257.711	0.09
258.084	0.13
258.458	0.19
258.831	0.2
259.204	0.21
259.577	0.15
259.95	0.17
260.323	0.11
260.697	0.22
261.07	0.19
261.443	0.16
261.816	0.17
262.189	0.13
262.562	0.33
262.935	0.17
263.308	0.19
263.68	0.2
264.053	0.22
264.426	0.21
264.799	0.2
265.172	0.19
265.545	0.19
265.917	0.24
266.29	0.22
266.663	0.19
267.035	0.2
267.408	0.18
267.781	0.23
268.153	0.2
268.526	0.25
268.898	0.22
269.271	0.19
269.643	0.09
270.016	0.23
270.388	0.22
270.76	0.24
271.133	0.32
271.505	0.2
271.877	0.23
272.25	0.22
272.622	0.2
272.994	0.23
273.366	0.18
273.739	0.17
274.111	0.14
274.483	0.2
274.855	0.21
275.227	0.23
275.599	0.16
275.971	0.19
276.343	0.19
276.715	0.21
277.087	0.22
277.459	0.25
277.831	0.3
278.203	0.31
278.574	0.21
278.946	0.26
279.318	0.26
279.69	0.25
280.061	0.2
280.433	0.19
280.805	0.24
281.176	0.16
281.548	0.23
281.92	0.13
282.291	0.18
282.663	0.15
283.034	0.29
283.406	0.17
283.777	0.26
284.148	0.25
284.52	0.22
284.891	0.26
285.262	0.32
285.634	0.24
286.005	0.16
286.376	0.27
286.747	0.24
287.119	0.14
287.49	0.19
287.861	0.15
288.232	0.18
288.603	0.25
288.974	0.27
289.345	0.23
289.716	0.25
290.087	0.17
290.458	0.16
290.829	0.2
291.2	0.23
291.571	0.2
291.941	0.22
292.312	0.26
292.683	0.22
293.054	0.26
293.424	0.23
293.795	0.2
294.166	0.28
294.536	0.31
294.907	0.21
295.277	0.18
295.648	0.17
296.018	0.2
296.389	0.21
296.759	0.12
297.13	0.19
297.5	0.24
297.871	0.21
298.241	0.2
298.611	0.23
298.981	0.24
299.352	0.18
299.722	0.17
300.092	0.19
300.462	0.23
300.832	0.19
301.202	0.15
301.573	0.16
301.943	0.19
302.313	0.13
302.683	0.14
303.053	0.14
303.422	0.16
303.792	0.15
304.162	0.16
304.532	0.17
304.902	0.17
305.272	0.16
305.641	0.17
306.011	0.15
306.381	0.17
306.75	0.18
307.12	0.18
307.49	0.19
307.859	0.17
308.229	0.2
308.598	0.19
308.968	0.19
309.337	0.19
309.707	0.21
310.076	0.2
310.445	0.2
310.815	0.2
311.184	0.21
311.553	0.2
311.923	0.22
312.292	0.21
312.661	0.21
313.03	0.21
313.399	0.22
313.768	0.22
314.137	0.22
314.506	0.22
314.875	0.21
315.244	0.22
315.613	0.22
315.982	0.22
316.351	0.22
316.72	0.21
317.089	0.21
317.458	0.21
317.826	0.21
318.195	0.2
318.564	0.21
318.933	0.21
319.301	0.21
319.67	0.2
320.038	0.2
320.407	0.2
320.775	0.2
321.144	0.2
321.512	0.19
321.881	0.19
322.249	0.19
322.618	0.19
322.986	0.19
323.354	0.18
323.723	0.19
324.091	0.18
324.459	0.19
324.827	0.18
325.195	0.17
325.564	0.17
325.932	0.18
326.3	0.17
326.668	0.18
327.036	0.18
327.404	0.17
327.772	0.17
328.14	0.18
328.508	0.18
328.875	0.18
329.243	0.18
329.611	0.18
329.979	0.18
330.346	0.18
330.714	0.18
331.082	0.18
331.449	0.18
331.817	0.18
332.185	0.18
332.552	0.18
332.92	0.19
333.287	0.19
333.655	0.19
334.022	0.19
334.389	0.19
334.757	0.2
335.124	0.2
335.491	0.19
335.859	0.2
336.226	0.2
336.593	0.21
336.96	0.21
337.327	0.21
337.695	0.22
338.062	0.21
338.429	0.22
338.796	0.22
339.163	0.22
339.53	0.22
339.897	0.23
340.263	0.23
340.63	0.24
340.997	0.24
341.364	0.24
341.731	0.25
342.097	0.25
342.464	0.26
342.831	0.26
343.197	0.27
343.564	0.27
343.931	0.27
344.297	0.28
344.664	0.28
345.03	0.28
345.396	0.29
345.763	0.29
346.129	0.29
346.496	0.3
346.862	0.31
347.228	0.31
347.594	0.31
347.961	0.32
348.327	0.32
348.693	0.33
349.059	0.33
349.425	0.34
349.791	0.35
350.157	0.35
350.523	0.36
350.889	0.36
351.255	0.37
351.621	0.37
351.987	0.37
352.353	0.39
352.719	0.4
353.084	0.41
353.45	0.41
353.816	0.42
354.181	0.42
354.547	0.44
354.913	0.44
355.278	0.45
355.644	0.46
356.009	0.47
356.375	0.49
356.74	0.5
357.106	0.5
357.471	0.51
357.836	0.52
358.202	0.53
358.567	0.54
358.932	0.55
359.297	0.56
359.663	0.57
360.028	0.58
360.393	0.59
360.758	0.59
361.123	0.6
361.488	0.61
361.853	0.61
362.218	0.61
362.583	0.62
362.948	0.63
363.312	0.64
363.677	0.65
364.042	0.66
364.407	0.67
364.772	0.69
365.136	0.69
365.501	0.71
365.865	0.72
366.23	0.73
366.595	0.75
366.959	0.76
367.324	0.77
367.688	0.8
368.052	0.8
368.417	0.81
368.781	0.81
369.145	0.83
369.51	0.85
369.874	0.84
370.238	0.84
370.602	0.84
370.967	0.83
371.331	0.83
371.695	0.84
372.059	0.83
372.423	0.83
372.787	0.83
373.151	0.82
373.515	0.81
373.878	0.82
374.242	0.81
374.606	0.81
374.97	0.82
375.334	0.82
375.697	0.83
376.061	0.83
376.425	0.83
376.788	0.84
377.152	0.84
377.515	0.85
377.879	0.86
378.242	0.86
378.606	0.88
378.969	0.87
379.333	0.89
379.696	0.91
380.059	0.91
380.422	0.93
380.786	0.94
381.149	0.97
381.512	0.99
381.875	1.01
382.238	1.03
382.601	1.04
382.964	1.08
383.327	1.1
383.69	1.13
384.053	1.15
384.416	1.18
384.779	1.2
385.142	1.25
385.504	1.25
385.867	1.26
386.23	1.29
386.593	1.28
386.955	1.3
387.318	1.28
387.68	1.29
388.043	1.27
388.405	1.27
388.768	1.25
389.13	1.26
389.493	1.25
389.855	1.23
390.217	1.24
390.58	1.24
390.942	1.24
391.304	1.26
391.666	1.28
392.028	1.27
392.391	1.3
392.753	1.33
393.115	1.37
393.477	1.42
393.839	1.45
394.201	1.5
394.563	1.59
394.924	1.6
395.286	1.67
395.648	1.69
396.01	1.71
396.371	1.75
396.733	1.79
397.095	1.81
397.456	1.8
397.818	1.8
398.18	1.79
398.541	1.75
398.903	1.76
399.264	1.7
399.625	1.66
399.987	1.63
400.348	1.59
400.709	1.52
401.071	1.46
401.432	1.39
401.793	1.3
402.154	1.21
402.515	1.14
402.876	1.05
403.238	0.98
403.599	0.92
403.96	0.85
404.32	0.79
404.681	0.74
405.042	0.69
405.403	0.65
405.764	0.59
406.125	0.56
406.485	0.52
406.846	0.49
407.207	0.46
407.567	0.43
407.928	0.42
408.288	0.39
408.649	0.37
409.009	0.35
409.37	0.33
409.73	0.31
410.091	0.3
410.451	0.29
410.811	0.28
411.171	0.26
411.532	0.25
411.892	0.24
412.252	0.24
412.612	0.23
412.972	0.22
413.332	0.21
413.692	0.21
414.052	0.2
414.412	0.19
414.772	0.18
415.132	0.18
415.492	0.17
415.851	0.17
416.211	0.17
416.571	0.17
416.931	0.15
417.29	0.16
417.65	0.15
418.009	0.14
418.369	0.14
418.728	0.14
419.088	0.14
419.447	0.14
419.807	0.14
420.166	0.13
420.525	0.13
420.884	0.13
421.244	0.13
421.603	0.11
421.962	0.12
422.321	0.12
422.68	0.11
423.039	0.12
423.398	0.11
423.757	0.11
424.116	0.11
424.475	0.11
424.834	0.11
425.193	0.11
425.551	0.1
425.91	0.1
426.269	0.1
426.628	0.11
426.986	0.1
427.345	0.1
427.703	0.1
428.062	0.09
428.42	0.09
428.779	0.1
429.137	0.1
429.496	0.09
429.854	0.1
430.212	0.1
430.57	0.09
430.929	0.08
431.287	0.08
431.645	0.09
432.003	0.09
432.361	0.09
432.719	0.08
433.077	0.09
433.435	0.08
433.793	0.08
434.151	0.08
434.509	0.08
434.866	0.08
435.224	0.09
435.582	0.08
435.94	0.08
436.297	0.08
436.655	0.08
437.012	0.08
437.37	0.06
437.727	0.08
438.085	0.07
438.442	0.07
438.8	0.08
439.157	0.07
439.514	0.07
439.872	0.07
440.229	0.08
440.586	0.07
440.943	0.06
441.3	0.07
441.657	0.07
442.014	0.07
442.371	0.07
442.728	0.06
443.085	0.06
443.442	0.06
443.799	0.06
444.156	0.06
444.513	0.06
444.869	0.05
445.226	0.05
445.583	0.06
445.939	0.05
446.296	0.06
446.652	0.05
447.009	0.05
447.365	0.05
447.722	0.05
448.078	0.04
448.434	0.05
448.791	0.05
449.147	0.04
449.503	0.04
449.859	0.05
450.215	0.04
450.571	0.04
450.928	0.04
451.284	0.03
451.64	0.04
451.995	0.03
452.351	0.03
452.707	0.03
453.063	0.02
453.419	0.02
453.775	0.02
454.13	0.02
454.486	0.02
454.842	0.01
455.197	0
455.553	0
455.908	-0
456.264	-0
456.619	-0.01
456.975	-0.01
457.33	-0.01
457.685	-0.01
458.04	-0.03
458.396	-0.02
458.751	-0.02
459.106	-0.03
459.461	-0.03
459.816	-0.04
460.171	-0.04
460.526	-0.05
460.881	-0.05
461.236	-0.06
461.591	-0.06
461.946	-0.07
462.301	-0.07
462.655	-0.08
463.01	-0.07
463.365	-0.08
463.719	-0.08
464.074	-0.09
464.428	-0.1
464.783	-0.1
465.137	-0.11
465.492	-0.11
465.846	-0.11
466.201	-0.11
466.555	-0.11
466.909	-0.11
467.263	-0.11
467.618	-0.1
467.972	-0.11
468.326	-0.11
468.68	-0.11
469.034	-0.11
469.388	-0.13
469.742	-0.12
470.096	-0.12
470.45	-0.12
470.804	-0.12
471.157	-0.12
471.511	-0.12
471.865	-0.12
472.218	-0.12
472.572	-0.12
472.926	-0.1
473.279	-0.11
473.633	-0.1
473.986	-0.1
474.34	-0.09
474.693	-0.09
475.046	-0.08
475.4	-0.07
475.753	-0.06
476.106	-0.05
476.459	-0.05
476.812	-0.04
477.165	-0.03
477.519	-0.02
477.872	-0.02
478.224	-0.02
478.577	-0.01
478.93	-0.01
479.283	-0.01
479.636	-0.01
479.989	-0
480.341	0
480.694	0.01
481.047	0.01
481.399	0.01
481.752	0.02
482.104	0.03
482.457	0.03
482.809	0.03
483.162	0.03
483.514	0.04
483.866	0.04
484.219	0.05
484.571	0.05
484.923	0.05
485.275	0.05
485.627	0.05
485.979	0.06
486.331	0.05
486.683	0.06
487.035	0.06
487.387	0.06
487.739	0.08
488.091	0.08
488.443	0.08
488.794	0.08
489.146	0.08
489.498	0.08
489.849	0.09
490.201	0.08
490.552	0.08
490.904	0.09
491.255	0.08
491.607	0.08
491.958	0.1
492.309	0.09
492.661	0.1
493.012	0.1
493.363	0.09
493.714	0.1
494.065	0.1
494.416	0.11
494.767	0.1
495.118	0.11
495.469	0.11
495.82	0.11
496.171	0.11
496.522	0.11
496.872	0.12
497.223	0.12
497.574	0.12
497.924	0.12
498.275	0.13
498.626	0.13
498.976	0.13
499.327	0.14
499.677	0.13
500.027	0.14
500.378	0.14
500.728	0.14
501.078	0.14
501.428	0.15
501.779	0.15
502.129	0.15
502.479	0.15
502.829	0.16
503.179	0.16
503.529	0.15
503.879	0.16
504.229	0.16
504.578	0.16
504.928	0.16
505.278	0.16
505.628	0.16
505.977	0.17
506.327	0.17
506.676	0.17
507.026	0.17
507.375	0.18
507.725	0.18
508.074	0.18
508.424	0.18
508.773	0.18
509.122	0.18
509.471	0.19
509.82	0.19
510.17	0.19
510.519	0.19
510.868	0.2
511.217	0.19
511.566	0.2
511.915	0.2
512.263	0.2
512.612	0.2
512.961	0.21
513.31	0.2
513.659	0.21
514.007	0.21
514.356	0.21
514.704	0.21
515.053	0.22
515.401	0.21
515.75	0.22
516.098	0.22
516.447	0.23
516.795	0.23
517.143	0.23
517.491	0.23
517.839	0.23
518.188	0.24
518.536	0.23
518.884	0.24
519.232	0.24
519.58	0.24
519.928	0.24
520.275	0.24
520.623	0.24
520.971	0.24
521.319	0.25
521.666	0.25
522.014	0.26
522.362	0.26
522.709	0.25
523.057	0.26
523.404	0.25
523.752	0.26
524.099	0.26
524.446	0.26
524.794	0.26
525.141	0.27
525.488	0.27
525.835	0.27
526.182	0.27
526.529	0.28
526.876	0.28
527.223	0.28
527.57	0.28
527.917	0.28
528.264	0.28
528.611	0.29
528.958	0.29
529.304	0.29
529.651	0.29
529.998	0.29
530.344	0.29
530.691	0.3
531.037	0.3
531.384	0.3
531.73	0.31
532.076	0.31
532.423	0.31
532.769	0.31
533.115	0.32
533.461	0.31
533.807	0.32
534.154	0.32
534.5	0.32
534.846	0.33
535.192	0.32
535.537	0.33
535.883	0.33
536.229	0.34
536.575	0.34
536.921	0.34
537.266	0.35
537.612	0.34
537.957	0.35
538.303	0.35
538.649	0.35
538.994	0.35
539.339	0.35
539.685	0.36
540.03	0.36
540.375	0.37
540.721	0.36
541.066	0.37
541.411	0.37
541.756	0.38
542.101	0.37
542.446	0.37
542.791	0.38
543.136	0.39
543.481	0.38
543.825	0.39
544.17	0.39
544.515	0.4
544.86	0.4
545.204	0.4
545.549	0.4
545.893	0.4
546.238	0.41
546.582	0.41
546.927	0.42
547.271	0.42
547.615	0.42
547.96	0.42
548.304	0.42
548.648	0.43
548.992	0.42
549.336	0.43
549.68	0.43
550.024	0.43
550.368	0.44
550.712	0.44
551.056	0.44
551.4	0.44
551.743	0.44
552.087	0.44
552.431	0.45
552.774	0.46
553.118	0.46
553.462	0.46
553.805	0.45
554.148	0.46
554.492	0.46
554.835	0.46
555.178	0.46
555.522	0.46
555.865	0.46
556.208	0.47
556.551	0.47
556.894	0.47
557.237	0.47
557.58	0.48
557.923	0.47
558.266	0.47
558.609	0.48
558.952	0.48
559.294	0.48
559.637	0.48
559.98	0.49
560.322	0.49
560.665	0.48
561.007	0.49
561.35	0.49
561.692	0.49
562.034	0.49
562.377	0.49
562.719	0.5
563.061	0.49
563.403	0.5
563.745	0.5
564.088	0.5
564.43	0.5
564.772	0.5
565.113	0.5
565.455	0.5
565.797	0.51
566.139	0.51
566.481	0.51
566.822	0.51
567.164	0.51
567.506	0.51
567.847	0.51
568.189	0.51
568.53	0.51
568.872	0.51
569.213	0.51
569.554	0.51
569.895	0.51
570.237	0.51
570.578	0.51
570.919	0.51
571.26	0.51
571.601	0.52
571.942	0.51
572.283	0.51
572.624	0.51
572.965	0.51
573.306	0.51
573.646	0.51
573.987	0.52
574.328	0.52
574.668	0.52
575.009	0.52
575.349	0.52
575.69	0.52
576.03	0.52
576.37	0.51
576.711	0.51
577.051	0.52
577.391	0.52
577.731	0.53
578.072	0.52
578.412	0.52
578.752	0.52
579.092	0.52
579.431	0.51
579.771	0.51
580.111	0.51
580.451	0.52
580.791	0.53
581.13	0.53
581.47	0.53
581.81	0.53
582.149	0.53
582.489	0.53
582.828	0.52
583.167	0.52
583.507	0.5
583.846	0.48
584.185	0.51
584.525	0.52
584.864	0.53
585.203	0.54
585.542	0.54
585.881	0.55
586.22	0.54
586.559	0.54
586.898	0.54
587.236	0.54
587.575	0.54
587.914	0.55
588.252	0.55
588.591	0.56
588.93	0.56
589.268	0.55
589.607	0.56
589.945	0.56
590.283	0.56
590.622	0.57
590.96	0.57
591.298	0.58
591.636	0.58
591.974	0.58
592.313	0.59
592.651	0.59
592.989	0.59
593.326	0.59
593.664	0.6
594.002	0.6
594.34	0.59
594.678	0.59
595.015	0.59
595.353	0.59
595.691	0.6
596.028	0.61
596.366	0.61
596.703	0.62
597.04	0.61
597.378	0.62
597.715	0.62
598.052	0.62
598.389	0.62
598.726	0.62
599.064	0.63
599.401	0.63
599.738	0.62
600.074	0.63
600.411	0.63
600.748	0.63
601.085	0.63
601.422	0.63
601.758	0.63
602.095	0.63
602.432	0.63
602.768	0.64
603.105	0.64
603.441	0.64
603.777	0.64
604.114	0.64
604.45	0.64
604.786	0.64
605.122	0.64
605.459	0.64
605.795	0.64
606.131	0.64
606.467	0.64
606.803	0.63
607.139	0.63
607.474	0.63
607.81	0.63
608.146	0.63
608.482	0.63
608.817	0.63
609.153	0.63
609.488	0.62
609.824	0.62
610.159	0.63
610.495	0.63
610.83	0.62
611.165	0.62
611.5	0.62
611.836	0.62
612.171	0.62
612.506	0.61
612.841	0.62
613.176	0.61
613.511	0.61
613.845	0.61
614.18	0.61
614.515	0.61
614.85	0.61
615.184	0.61
615.519	0.6
615.854	0.6
616.188	0.6
616.523	0.6
616.857	0.59
617.191	0.59
617.526	0.6
617.86	0.59
618.194	0.59
618.528	0.59
618.862	0.59
619.196	0.59
619.53	0.59
619.864	0.58
620.198	0.58
620.532	0.58
620.866	0.57
621.2	0.58
621.533	0.57
621.867	0.57
622.201	0.57
622.534	0.57
622.868	0.57
623.201	0.56
623.534	0.56
623.868	0.56
624.201	0.56
624.534	0.56
624.868	0.56
625.201	0.56
625.534	0.55
625.867	0.55
626.2	0.55
626.533	0.54
626.865	0.54
627.198	0.54
627.531	0.54
627.864	0.53
628.196	0.53
628.529	0.53
628.862	0.53
629.194	0.52
629.527	0.52
629.859	0.52
630.191	0.51
630.524	0.51
630.856	0.51
631.188	0.5
631.52	0.5
631.852	0.5
632.184	0.49
632.516	0.49
632.848	0.49
633.18	0.48
633.512	0.48
633.844	0.48
634.175	0.48
634.507	0.48
634.839	0.46
635.17	0.46
635.502	0.46
635.833	0.46
636.165	0.45
636.496	0.45
636.827	0.45
637.159	0.45
637.49	0.44
637.821	0.44
638.152	0.43
638.483	0.43
638.814	0.43
639.145	0.43
639.476	0.42
639.807	0.42
640.137	0.41
640.468	0.41
640.799	0.4
641.129	0.41
641.46	0.4
641.791	0.4
642.121	0.4
642.451	0.4
642.782	0.39
643.112	0.39
643.442	0.39
643.773	0.39
644.103	0.38
644.433	0.39
644.763	0.38
645.093	0.38
645.423	0.37
645.753	0.37
646.082	0.37
646.412	0.37
646.742	0.36
647.072	0.36
647.401	0.36
647.731	0.36
648.06	0.36
648.39	0.36
648.719	0.36
649.048	0.35
649.378	0.35
649.707	0.35
650.036	0.35
650.365	0.35
650.694	0.35
651.023	0.35
651.352	0.35
651.681	0.35
652.01	0.35
652.339	0.35
652.668	0.35
652.996	0.35
653.325	0.35
653.654	0.35
653.982	0.35
654.311	0.35
654.639	0.34
654.967	0.34
655.296	0.34
655.624	0.34
655.952	0.34
656.28	0.35
656.609	0.34
656.937	0.34
657.265	0.32
657.593	0.29
657.92	0.17
658.248	0.12
658.576	0.12
658.904	0.23
659.231	0.32
659.559	0.34
659.887	0.35
660.214	0.34
660.542	0.34
660.869	0.34
661.196	0.34
661.524	0.34
661.851	0.33
662.178	0.34
662.505	0.34
662.832	0.34
663.159	0.33
663.486	0.34
663.813	0.34
664.14	0.34
664.467	0.33
664.794	0.34
665.12	0.34
665.447	0.33
665.774	0.33
666.1	0.33
666.427	0.33
666.753	0.33
667.079	0.33
667.406	0.32
667.732	0.32
668.058	0.32
668.384	0.32
668.71	0.33
669.036	0.32
669.362	0.32
669.688	0.32
670.014	0.32
670.34	0.32
670.666	0.32
670.991	0.31
671.317	0.31
671.643	0.31
671.968	0.31
672.294	0.31
672.619	0.31
672.945	0.31
673.27	0.3
673.595	0.3
673.92	0.3
674.246	0.3
674.571	0.3
674.896	0.29
675.221	0.29
675.546	0.29
675.87	0.29
676.195	0.29
676.52	0.29
676.845	0.28
677.169	0.28
677.494	0.28
677.819	0.28
678.143	0.28
678.468	0.28
678.792	0.27
679.116	0.27
679.44	0.27
679.765	0.26
680.089	0.26
680.413	0.25
680.737	0.26
681.061	0.25
681.385	0.25
681.709	0.25
682.033	0.25
682.356	0.25
682.68	0.25
683.004	0.24
683.327	0.24
683.651	0.24
683.974	0.24
684.298	0.23
684.621	0.23
684.944	0.23
685.268	0.22
685.591	0.22
685.914	0.22
686.237	0.22
686.56	0.21
686.883	0.21
687.206	0.21
687.529	0.21
687.852	0.2
688.175	0.2
688.497	0.2
688.82	0.2
689.142	0.2
689.465	0.2
689.787	0.2
690.11	0.2
690.432	0.19
690.755	0.19
691.077	0.19
691.399	0.19
691.721	0.19
692.043	0.18
692.365	0.19
692.687	0.18
693.009	0.18
693.331	0.17
693.653	0.17
693.974	0.17
694.296	0.17
694.618	0.17
694.939	0.17
695.261	0.17
695.582	0.16
695.904	0.16
696.225	0.16
696.546	0.16
696.868	0.16
697.189	0.15
697.51	0.15
697.831	0.15
698.152	0.15
698.473	0.15
698.794	0.14
699.114	0.15
699.435	0.14
699.756	0.14
700.077	0.14
700.397	0.14
700.718	0.14
701.038	0.14
701.359	0.14
701.679	0.14
701.999	0.14
702.32	0.14
702.64	0.14
702.96	0.14
703.28	0.14
703.6	0.14
703.92	0.14
704.24	0.13
704.56	0.13
704.879	0.13
705.199	0.13
705.519	0.13
705.838	0.13
706.158	0.13
706.478	0.13
706.797	0.12
707.116	0.12
707.436	0.12
707.755	0.12
708.074	0.12
708.393	0.12
708.712	0.12
709.031	0.12
709.35	0.12
709.669	0.12
709.988	0.12
710.307	0.12
710.626	0.12
710.944	0.12
711.263	0.12
711.582	0.12
711.9	0.12
712.219	0.12
712.537	0.12
712.855	0.12
713.174	0.12
713.492	0.12
713.81	0.12
714.128	0.12
714.446	0.12
714.764	0.11
715.082	0.12
715.4	0.12
715.718	0.12
716.035	0.12
716.353	0.12
716.671	0.11
716.988	0.12
717.306	0.12
717.623	0.12
717.941	0.12
718.258	0.13
718.575	0.12
718.893	0.12
719.21	0.12
719.527	0.12
719.844	0.12
720.161	0.12
720.478	0.12
720.795	0.12
721.112	0.12
721.428	0.12
721.745	0.13
722.062	0.12
722.378	0.13
722.695	0.12
723.011	0.12
723.328	0.12
723.644	0.13
723.96	0.13
724.276	0.13
724.593	0.13
724.909	0.14
725.225	0.13
725.541	0.14
725.857	0.14
726.173	0.14
726.488	0.13
726.804	0.13
727.12	0.13
727.435	0.13
727.751	0.13
728.067	0.13
728.382	0.14
728.697	0.14
729.013	0.14
729.328	0.14
729.643	0.13
729.958	0.13
730.273	0.14
730.588	0.14
730.903	0.14
731.218	0.14
731.533	0.14
731.848	0.14
732.163	0.13
732.477	0.13
732.792	0.14
733.107	0.13
733.421	0.14
733.736	0.14
734.05	0.13
734.364	0.14
734.678	0.13
734.993	0.13
735.307	0.13
735.621	0.13
735.935	0.13
736.249	0.13
736.563	0.13
736.877	0.13
737.19	0.13
737.504	0.13
737.818	0.13
738.131	0.13
738.445	0.13
738.758	0.13
739.072	0.13
739.385	0.13
739.698	0.13
740.012	0.13
740.325	0.13
740.638	0.12
740.951	0.13
741.264	0.12
741.577	0.13
741.89	0.13
742.203	0.12
742.515	0.12
742.828	0.12
743.141	0.12
743.453	0.12
743.766	0.12
744.078	0.12
744.391	0.12
744.703	0.12
745.015	0.12
745.327	0.12
745.639	0.12
745.952	0.12
746.264	0.12
746.575	0.11
746.887	0.11
747.199	0.11
747.511	0.11
747.823	0.11
748.134	0.11
748.446	0.11
748.757	0.11
749.069	0.1
749.38	0.1
749.692	0.1
750.003	0.1
750.314	0.1
750.625	0.1
750.936	0.1
751.248	0.1
751.559	0.1
751.869	0.1
752.18	0.1
752.491	0.1
752.802	0.09
753.112	0.09
753.423	0.09
753.734	0.09
754.044	0.09
754.355	0.09
754.665	0.09
754.975	0.08
755.285	0.08
755.596	0.08
755.906	0.08
756.216	0.09
756.526	0.08
756.836	0.08
757.146	0.08
757.455	0.08
757.765	0.08
758.075	0.07
758.385	0.07
758.694	0.07
759.004	0.07
759.313	0.07
759.622	0.07
759.932	0.07
760.241	0.07
760.55	0.07
760.859	0.06
761.168	0.06
761.477	0.06
761.786	0.06
762.095	0.06
762.404	0.06
762.713	0.06
763.021	0.06
763.33	0.06
763.639	0.06
763.947	0.05
764.256	0.05
764.564	0.06
764.872	0.05
765.181	0.05
765.489	0.05
765.797	0.05
766.105	0.05
766.413	0.05
766.721	0.05
767.029	0.05
767.337	0.05
767.644	0.05
767.952	0.05
768.26	0.05
768.567	0.05
768.875	0.05
769.182	0.05
769.49	0.05
769.797	0.05
770.104	0.05
770.411	0.05
770.718	0.05
771.026	0.05
771.333	0.05
771.639	0.05
771.946	0.05
772.253	0.05
772.56	0.05
772.867	0.05
773.173	0.05
773.48	0.04
773.786	0.04
774.093	0.04
774.399	0.04
774.705	0.04
775.012	0.04
775.318	0.04
775.624	0.04
775.93	0.04
776.236	0.05
776.542	0.05
776.848	0.05
777.154	0.05
777.459	0.05
777.765	0.05
778.071	0.05
778.376	0.05
778.682	0.04
778.987	0.04
779.292	0.05
779.598	0.04
779.903	0.04
780.208	0.04
780.513	0.04
780.818	0.04
781.123	0.04
781.428	0.04
781.733	0.04
782.038	0.04
782.343	0.04
782.647	0.04
782.952	0.04
783.256	0.04
783.561	0.04
783.865	0.04
784.17	0.04
784.474	0.04
784.778	0.04
785.082	0.04
785.386	0.05
785.69	0.05
785.994	0.05
786.298	0.04
786.602	0.05
786.906	0.05
787.209	0.05
787.513	0.04
787.817	0.05
788.12	0.05
788.424	0.05
788.727	0.05
789.03	0.05
789.333	0.04
789.637	0.04
789.94	0.04
790.243	0.03
790.546	0.04
790.849	0.03
791.152	0.03
791.454	0.03
791.757	0.03
792.06	0.03
792.362	0.03
792.665	0.03
792.967	0.03
793.27	0.03
793.572	0.03
793.874	0.03
794.177	0.03
794.479	0.03
794.781	0.03
795.083	0.03
795.385	0.03
795.687	0.03
795.989	0.04
796.29	0.04
796.592	0.04
796.894	0.04
797.195	0.04
797.497	0.04
797.798	0.04
798.1	0.04
798.401	0.03
798.702	0.03
799.003	0.03
799.304	0.03
799.605	0.03
799.906	0.03
800.207	0.03
800.508	0.03
800.809	0.03
801.11	0.03
801.41	0.03
801.711	0.03
802.011	0.03
802.312	0.03
802.612	0.03
802.913	0.04
803.213	0.03
803.513	0.03
803.813	0.03
804.113	0.03
804.413	0.03
804.713	0.03
805.013	0.03
805.313	0.03
805.613	0.03
805.912	0.03
806.212	0.03
806.511	0.03
806.811	0.03
807.11	0.03
807.41	0.03
807.709	0.03
808.008	0.03
808.307	0.03
808.606	0.04
808.905	0.04
809.204	0.03
809.503	0.03
809.802	0.03
810.101	0.03
810.399	0.04
810.698	0.03
810.997	0.04
811.295	0.04
811.593	0.04
811.892	0.04
812.19	0.04
812.488	0.04
812.786	0.04
813.084	0.04
813.383	0.03
813.68	0.03
813.978	0.03
814.276	0.03
814.574	0.03
814.872	0.03
815.169	0.02
815.467	0.03
815.764	0.03
816.062	0.02
816.359	0.02
816.656	0.02
816.954	0.02
817.251	0.03
817.548	0.02
817.845	0.03
818.142	0.03
818.439	0.03
818.735	0.03
819.032	0.02
819.329	0.03
819.626	0.03
819.922	0.03
820.219	0.03
820.515	0.03
820.811	0.03
821.108	0.02
821.404	0.03
821.7	0.02
821.996	0.03
822.292	0.02
822.588	0.03
822.884	0.03
823.18	0.02
823.475	0.02
823.771	0.02
824.067	0.03
824.362	0.03
824.658	0.03
824.953	0.03
825.249	0.02
825.544	0.02
825.839	0.03
826.134	0.03
826.429	0.02
826.724	0.03
827.019	0.03
827.314	0.03
827.609	0.03
827.904	0.03
828.198	0.02
828.493	0.02
828.787	0.02
829.082	0.02
829.376	0.02
829.671	0.02
829.965	0.02
830.259	0.02
830.553	0.01
830.847	0.02
831.141	0.02
831.435	0.02
831.729	0.02
832.023	0.02
832.317	0.02
832.61	0.02
832.904	0.02
833.197	0.03
833.491	0.02
833.784	0.02
834.077	0.02
834.371	0.03
834.664	0.02
834.957	0.03
835.25	0.03
835.543	0.03
835.836	0.02
836.129	0.03
836.421	0.03
836.714	0.03
837.007	0.02
837.299	0.02
837.592	0.02
837.884	0.01
838.177	0.01
838.469	0.02
838.761	0.01
839.053	0.01
839.345	0.01
839.637	0.02
839.929	0.02
840.221	0.03
840.513	0.03
840.805	0.02
841.096	0.02
841.388	0.02
841.68	0.02
841.971	0.03
842.262	0.02
842.554	0.02
842.845	0.03
843.136	0.02
843.427	0.02
843.718	0.02
844.009	0.03
844.3	0.03
844.591	0.02
844.882	0.02
845.173	0.02
845.463	0.02
845.754	0.02
846.044	0.02
846.335	0.02
846.625	0.03
846.915	0.02
847.206	0.02
847.496	0.01
847.786	0.02
848.076	0.01
848.366	0.01
848.656	0.03
848.945	0.01
849.235	0.01
849.525	0.01
849.814	0.03
850.104	0.02
850.393	0.03
850.683	0.02
850.972	0.03
851.261	0.02
851.551	0.03
851.84	0.03
852.129	0.02
852.418	0.02
852.707	0.02
852.995	0.02
853.284	0.03
853.573	0.03
853.862	0.02
854.15	0.02
854.439	0.01
854.727	0.01
855.015	0.01
855.304	0.01
855.592	0
855.88	0.01
856.168	0
856.456	0
856.744	0.01
857.032	-0.02
857.32	-0.01
857.607	0.01
857.895	-0.01
858.183	0.01
858.47	0
858.757	0
859.045	0
859.332	0.01
859.619	0.01
859.907	0.01
860.194	0.02
860.481	-0.01
860.768	-0.01
861.054	0
861.341	0.01
861.628	0
861.915	0
862.201	0
862.488	-0.01
862.774	0.01
863.061	0.02
863.347	0.01
863.633	0.01
863.919	-0.01
864.205	0
864.491	-0.01
864.777	-0
865.063	0.03
865.349	-0
865.635	0.01
865.92	0
866.206	0.01
866.492	0.01
866.777	-0.01
867.062	-0.03
867.348	-0.05
867.633	0.04
867.918	-0.01
868.203	-0.01
868.488	0
868.773	-0.03
869.058	-0.06
869.343	-0.02
869.628	-0.02
869.912	0
870.197	0.02
870.482	-0.06
870.766	-0.04
871.05	-0
871.335	-0.02
871.619	0.03
871.903	0.02
872.187	0.01
872.471	-0.03
872.755	-0.06
873.039	-0.04
873.323	-0.03
873.607	0.01
873.89	-0.07
874.174	-0.04
874.458	-0.09
874.741	0.04
875.024	-0.02
875.308	0.05
875.591	-0
875.874	0.03
876.157	-0.05
876.44	-0.04
876.723	-0.01
877.006	-0
877.289	0.04
877.572	0
877.854	0.01
878.137	0
878.42	0.1
878.702	-0.05
878.984	-0.04
879.267	-0.05
879.549	0.02
879.831	-0.06
880.113	-0.02
880.395	-0.05
880.677	-0.01
880.959	0.02
