Data from Rubpy_EV_900_EDTA_Buffered_Absorbance_13-56-54-835.txt Node
Date: Tue Jun 30 13:56:54 BST 2026
User: fpm-admin
Spectrometer: OFX00224
Trigger mode: 0
Integration Time (sec): 7.000000E-2
Scans to average: 3
Nonlinearity correction enabled: false
Boxcar width: 0
Storing dark spectrum: false
XAxis mode: Wavelengths
Number of Pixels in Spectrum: 2136
>>>>>Begin Spectral Data<<<<<
154.91	0.13
155.289	-1.04
155.669	-0
156.048	-0.26
156.428	0.54
156.807	0.13
157.186	-0.16
157.566	-0
157.945	-0
158.325	-0.15
158.704	-0
159.083	0.26
159.462	1.01
159.842	0.12
160.221	-0.1
160.6	-0
160.979	0.34
161.359	-0
161.738	-0.29
162.117	0.03
162.496	-0
162.875	-0
163.254	-0
163.633	0.88
164.012	-0
164.391	-0
164.77	-0
165.149	0.43
165.528	0.18
165.907	-0
166.286	-0
166.665	-0.93
167.044	-0
167.423	1.06
167.802	-0
168.181	-0
168.559	-0
168.938	-0
169.317	-0
169.696	-0
170.074	-0.57
170.453	-0
170.832	-0
171.21	0.41
171.589	-0
171.968	-0
172.346	-0.12
172.725	0.19
173.103	-0.26
173.482	-0
173.861	-0.23
174.239	1.33
174.617	-0
174.996	-0
175.374	0.43
175.753	0.26
176.131	-0
176.51	-0.4
176.888	-0
177.266	-0
177.645	-0
178.023	0.53
178.401	-0.14
178.779	0.03
179.158	-0
179.536	-0.01
179.914	0.16
180.292	-0
180.67	-0
181.048	0.46
181.427	-0.09
181.805	0.7
182.183	-0.93
182.561	-0
182.939	-0.32
183.317	0.03
183.695	0.13
184.073	-0
184.451	-0
184.829	-0.05
185.206	-0.35
185.584	0.6
185.962	0.21
186.34	0.52
186.718	-0
187.096	0.06
187.473	0.53
187.851	-0
188.229	0.07
188.607	0.19
188.984	0.18
189.362	0.15
189.74	0.04
190.117	0.07
190.495	0.25
190.872	0.26
191.25	0.24
191.627	0.07
192.005	0.23
192.382	0.28
192.76	0.31
193.137	0.21
193.515	0.26
193.892	0.25
194.269	0.09
194.647	0.34
195.024	0.29
195.401	0.27
195.779	0.06
196.156	0.2
196.533	0.2
196.91	0.17
197.288	0.12
197.665	0.04
198.042	0.17
198.419	0.13
198.796	0.27
199.173	0.11
199.55	0.32
199.927	0.18
200.304	0.29
200.681	0.17
201.058	0.16
201.435	0.22
201.812	0.17
202.189	0.19
202.566	0.24
202.943	0.14
203.32	0.29
203.697	0.27
204.073	0.22
204.45	0.21
204.827	0.17
205.204	0.19
205.58	0.24
205.957	0.22
206.334	0.25
206.71	0.26
207.087	0.18
207.464	0.2
207.84	0.21
208.217	0.15
208.593	0.18
208.97	0.23
209.346	0.16
209.723	0.3
210.099	0.22
210.476	0.2
210.852	0.15
211.228	0.23
211.605	0.21
211.981	0.26
212.357	0.17
212.733	0.37
213.11	0.17
213.486	0.14
213.862	0.26
214.238	0.11
214.614	0.19
214.991	0.23
215.367	0.13
215.743	0.15
216.119	0.13
216.495	0.17
216.871	0.18
217.247	0.16
217.623	0.21
217.999	0.09
218.375	0.11
218.751	0.2
219.127	0.13
219.502	0.23
219.878	0.24
220.254	0.36
220.63	0.25
221.006	0.22
221.381	0.26
221.757	0.21
222.133	0.15
222.508	0.27
222.884	0.27
223.26	0.22
223.635	0.22
224.011	0.21
224.386	0.18
224.762	0.29
225.137	0.21
225.513	0.15
225.888	0.34
226.264	0.23
226.639	0.17
227.014	0.28
227.39	0.1
227.765	0.15
228.14	0.3
228.516	0.12
228.891	0.19
229.266	0.2
229.641	0.11
230.017	0.19
230.392	0.33
230.767	0.18
231.142	0.28
231.517	0.27
231.892	0.16
232.267	0.11
232.642	0.19
233.017	0.12
233.392	0.21
233.767	0.37
234.142	0.3
234.517	0.17
234.892	0.16
235.267	0.19
235.641	0.3
236.016	0.3
236.391	0.23
236.766	0.08
237.14	0.21
237.515	0.19
237.89	0.29
238.264	0.22
238.639	0.24
239.014	0.22
239.388	0.23
239.763	0.34
240.137	0.15
240.512	0.16
240.886	0.17
241.261	0.14
241.635	0.26
242.009	0.15
242.384	0.27
242.758	0.37
243.132	0.1
243.507	0.3
243.881	0.23
244.255	0.27
244.629	0.29
245.004	0.23
245.378	0.21
245.752	0.21
246.126	0.16
246.5	0.23
246.874	0.18
247.248	0.21
247.622	0.23
247.996	0.22
248.37	0.29
248.744	0.26
249.118	0.13
249.492	0.31
249.866	0.18
250.24	0.14
250.613	0.18
250.987	0.3
251.361	0.18
251.735	0.22
252.108	0.24
252.482	0.24
252.856	0.25
253.229	0.23
253.603	0.21
253.977	0.36
254.35	0.29
254.724	0.22
255.097	0.2
255.471	0.25
255.844	0.21
256.218	0.29
256.591	0.22
256.964	0.21
257.338	0.3
257.711	0.13
258.084	0.15
258.458	0.31
258.831	0.3
259.204	0.21
259.577	0.3
259.95	0.22
260.323	0.19
260.697	0.3
261.07	0.21
261.443	0.23
261.816	0.27
262.189	0.3
262.562	0.35
262.935	0.23
263.308	0.33
263.68	0.27
264.053	0.29
264.426	0.13
264.799	0.31
265.172	0.21
265.545	0.18
265.917	0.23
266.29	0.26
266.663	0.2
267.035	0.27
267.408	0.23
267.781	0.2
268.153	0.24
268.526	0.27
268.898	0.23
269.271	0.21
269.643	0.15
270.016	0.24
270.388	0.29
270.76	0.28
271.133	0.2
271.505	0.29
271.877	0.21
272.25	0.18
272.622	0.24
272.994	0.19
273.366	0.24
273.739	0.19
274.111	0.2
274.483	0.17
274.855	0.21
275.227	0.27
275.599	0.25
275.971	0.33
276.343	0.14
276.715	0.17
277.087	0.32
277.459	0.22
277.831	0.21
278.203	0.31
278.574	0.23
278.946	0.22
279.318	0.22
279.69	0.23
280.061	0.17
280.433	0.2
280.805	0.29
281.176	0.22
281.548	0.21
281.92	0.2
282.291	0.24
282.663	0.12
283.034	0.27
283.406	0.17
283.777	0.24
284.148	0.33
284.52	0.16
284.891	0.19
285.262	0.27
285.634	0.33
286.005	0.26
286.376	0.25
286.747	0.26
287.119	0.23
287.49	0.25
287.861	0.22
288.232	0.24
288.603	0.29
288.974	0.21
289.345	0.27
289.716	0.16
290.087	0.27
290.458	0.27
290.829	0.28
291.2	0.2
291.571	0.21
291.941	0.19
292.312	0.19
292.683	0.23
293.054	0.24
293.424	0.22
293.795	0.21
294.166	0.28
294.536	0.28
294.907	0.3
295.277	0.23
295.648	0.2
296.018	0.22
296.389	0.23
296.759	0.19
297.13	0.23
297.5	0.2
297.871	0.21
298.241	0.2
298.611	0.27
298.981	0.26
299.352	0.17
299.722	0.23
300.092	0.21
300.462	0.2
300.832	0.21
301.202	0.16
301.573	0.19
301.943	0.2
302.313	0.17
302.683	0.16
303.053	0.16
303.422	0.17
303.792	0.16
304.162	0.16
304.532	0.18
304.902	0.16
305.272	0.16
305.641	0.18
306.011	0.17
306.381	0.17
306.75	0.16
307.12	0.17
307.49	0.19
307.859	0.18
308.229	0.19
308.598	0.19
308.968	0.19
309.337	0.2
309.707	0.2
310.076	0.2
310.445	0.2
310.815	0.2
311.184	0.2
311.553	0.21
311.923	0.22
312.292	0.21
312.661	0.22
313.03	0.21
313.399	0.2
313.768	0.21
314.137	0.21
314.506	0.21
314.875	0.21
315.244	0.21
315.613	0.21
315.982	0.21
316.351	0.21
316.72	0.2
317.089	0.2
317.458	0.2
317.826	0.2
318.195	0.2
318.564	0.21
318.933	0.21
319.301	0.21
319.67	0.19
320.038	0.2
320.407	0.2
320.775	0.2
321.144	0.19
321.512	0.18
321.881	0.19
322.249	0.19
322.618	0.19
322.986	0.19
323.354	0.18
323.723	0.18
324.091	0.18
324.459	0.19
324.827	0.18
325.195	0.18
325.564	0.17
325.932	0.18
326.3	0.17
326.668	0.18
327.036	0.17
327.404	0.17
327.772	0.18
328.14	0.17
328.508	0.17
328.875	0.17
329.243	0.18
329.611	0.18
329.979	0.18
330.346	0.18
330.714	0.18
331.082	0.18
331.449	0.18
331.817	0.18
332.185	0.18
332.552	0.18
332.92	0.18
333.287	0.18
333.655	0.19
334.022	0.19
334.389	0.19
334.757	0.19
335.124	0.2
335.491	0.19
335.859	0.19
336.226	0.2
336.593	0.2
336.96	0.2
337.327	0.2
337.695	0.21
338.062	0.21
338.429	0.22
338.796	0.21
339.163	0.22
339.53	0.22
339.897	0.22
340.263	0.23
340.63	0.23
340.997	0.24
341.364	0.24
341.731	0.24
342.097	0.24
342.464	0.25
342.831	0.25
343.197	0.26
343.564	0.26
343.931	0.27
344.297	0.27
344.664	0.28
345.03	0.28
345.396	0.28
345.763	0.28
346.129	0.29
346.496	0.3
346.862	0.3
347.228	0.3
347.594	0.3
347.961	0.31
348.327	0.32
348.693	0.32
349.059	0.33
349.425	0.33
349.791	0.34
350.157	0.34
350.523	0.35
350.889	0.36
351.255	0.36
351.621	0.36
351.987	0.38
352.353	0.38
352.719	0.39
353.084	0.39
353.45	0.4
353.816	0.41
354.181	0.42
354.547	0.43
354.913	0.44
355.278	0.44
355.644	0.45
356.009	0.46
356.375	0.47
356.74	0.47
357.106	0.49
357.471	0.5
357.836	0.51
358.202	0.51
358.567	0.53
358.932	0.54
359.297	0.54
359.663	0.55
360.028	0.57
360.393	0.57
360.758	0.58
361.123	0.58
361.488	0.59
361.853	0.6
362.218	0.6
362.583	0.61
362.948	0.62
363.312	0.63
363.677	0.64
364.042	0.64
364.407	0.65
364.772	0.67
365.136	0.68
365.501	0.69
365.865	0.71
366.23	0.71
366.595	0.74
366.959	0.75
367.324	0.76
367.688	0.77
368.052	0.79
368.417	0.8
368.781	0.8
369.145	0.82
369.51	0.82
369.874	0.84
370.238	0.83
370.602	0.83
370.967	0.83
371.331	0.82
371.695	0.82
372.059	0.81
372.423	0.81
372.787	0.8
373.151	0.8
373.515	0.79
373.878	0.79
374.242	0.79
374.606	0.8
374.97	0.8
375.334	0.81
375.697	0.81
376.061	0.81
376.425	0.81
376.788	0.82
377.152	0.82
377.515	0.82
377.879	0.84
378.242	0.85
378.606	0.86
378.969	0.86
379.333	0.88
379.696	0.87
380.059	0.89
380.422	0.91
380.786	0.92
381.149	0.95
381.512	0.97
381.875	0.98
382.238	1.01
382.601	1.03
382.964	1.06
383.327	1.07
383.69	1.11
384.053	1.13
384.416	1.15
384.779	1.2
385.142	1.21
385.504	1.23
385.867	1.25
386.23	1.26
386.593	1.26
386.955	1.27
387.318	1.27
387.68	1.25
388.043	1.25
388.405	1.24
388.768	1.24
389.13	1.22
389.493	1.22
389.855	1.21
390.217	1.2
390.58	1.21
390.942	1.22
391.304	1.22
391.666	1.24
392.028	1.26
392.391	1.29
392.753	1.31
393.115	1.34
393.477	1.39
393.839	1.42
394.201	1.48
394.563	1.54
394.924	1.6
395.286	1.64
395.648	1.7
396.01	1.7
396.371	1.74
396.733	1.78
397.095	1.8
397.456	1.76
397.818	1.77
398.18	1.76
398.541	1.73
398.903	1.74
399.264	1.68
399.625	1.65
399.987	1.61
400.348	1.56
400.709	1.48
401.071	1.41
401.432	1.35
401.793	1.26
402.154	1.17
402.515	1.11
402.876	1.03
403.238	0.96
403.599	0.9
403.96	0.83
404.32	0.78
404.681	0.72
405.042	0.68
405.403	0.63
405.764	0.58
406.125	0.55
406.485	0.51
406.846	0.48
407.207	0.45
407.567	0.43
407.928	0.4
408.288	0.38
408.649	0.37
409.009	0.34
409.37	0.33
409.73	0.31
410.091	0.3
410.451	0.28
410.811	0.26
411.171	0.26
411.532	0.25
411.892	0.24
412.252	0.24
412.612	0.22
412.972	0.21
413.332	0.21
413.692	0.21
414.052	0.2
414.412	0.19
414.772	0.17
415.132	0.18
415.492	0.17
415.851	0.16
416.211	0.16
416.571	0.16
416.931	0.15
417.29	0.15
417.65	0.14
418.009	0.14
418.369	0.14
418.728	0.14
419.088	0.13
419.447	0.13
419.807	0.14
420.166	0.13
420.525	0.13
420.884	0.12
421.244	0.12
421.603	0.11
421.962	0.11
422.321	0.12
422.68	0.12
423.039	0.11
423.398	0.11
423.757	0.11
424.116	0.11
424.475	0.11
424.834	0.11
425.193	0.11
425.551	0.1
425.91	0.1
426.269	0.1
426.628	0.1
426.986	0.11
427.345	0.1
427.703	0.1
428.062	0.1
428.42	0.09
428.779	0.09
429.137	0.1
429.496	0.09
429.854	0.09
430.212	0.09
430.57	0.08
430.929	0.08
431.287	0.08
431.645	0.09
432.003	0.09
432.361	0.08
432.719	0.08
433.077	0.09
433.435	0.08
433.793	0.09
434.151	0.08
434.509	0.09
434.866	0.08
435.224	0.08
435.582	0.08
435.94	0.08
436.297	0.08
436.655	0.07
437.012	0.08
437.37	0.08
437.727	0.07
438.085	0.07
438.442	0.07
438.8	0.07
439.157	0.08
439.514	0.07
439.872	0.07
440.229	0.07
440.586	0.07
440.943	0.06
441.3	0.06
441.657	0.07
442.014	0.06
442.371	0.06
442.728	0.06
443.085	0.06
443.442	0.05
443.799	0.06
444.156	0.06
444.513	0.06
444.869	0.06
445.226	0.05
445.583	0.06
445.939	0.05
446.296	0.05
446.652	0.05
447.009	0.05
447.365	0.05
447.722	0.05
448.078	0.04
448.434	0.05
448.791	0.04
449.147	0.04
449.503	0.05
449.859	0.04
450.215	0.04
450.571	0.04
450.928	0.03
451.284	0.03
451.64	0.03
451.995	0.03
452.351	0.03
452.707	0.03
453.063	0.03
453.419	0.02
453.775	0.03
454.13	0.01
454.486	0.02
454.842	0.01
455.197	0.01
455.553	0.01
455.908	0
456.264	0.01
456.619	-0.02
456.975	-0.01
457.33	-0
457.685	-0
458.04	-0.02
458.396	-0.03
458.751	-0.03
459.106	-0.03
459.461	-0.04
459.816	-0.04
460.171	-0.04
460.526	-0.05
460.881	-0.06
461.236	-0.06
461.591	-0.06
461.946	-0.07
462.301	-0.07
462.655	-0.08
463.01	-0.07
463.365	-0.08
463.719	-0.08
464.074	-0.09
464.428	-0.1
464.783	-0.11
465.137	-0.11
465.492	-0.11
465.846	-0.11
466.201	-0.11
466.555	-0.11
466.909	-0.11
467.263	-0.11
467.618	-0.1
467.972	-0.11
468.326	-0.11
468.68	-0.12
469.034	-0.12
469.388	-0.12
469.742	-0.12
470.096	-0.12
470.45	-0.11
470.804	-0.11
471.157	-0.12
471.511	-0.12
471.865	-0.12
472.218	-0.12
472.572	-0.12
472.926	-0.11
473.279	-0.11
473.633	-0.1
473.986	-0.09
474.34	-0.09
474.693	-0.08
475.046	-0.07
475.4	-0.07
475.753	-0.06
476.106	-0.06
476.459	-0.05
476.812	-0.05
477.165	-0.03
477.519	-0.03
477.872	-0.02
478.224	-0.02
478.577	-0.01
478.93	-0.01
479.283	-0
479.636	-0
479.989	-0
480.341	0.01
480.694	0.01
481.047	0
481.399	0.01
481.752	0.02
482.104	0.03
482.457	0.03
482.809	0.03
483.162	0.03
483.514	0.04
483.866	0.04
484.219	0.04
484.571	0.04
484.923	0.05
485.275	0.05
485.627	0.05
485.979	0.05
486.331	0.05
486.683	0.06
487.035	0.06
487.387	0.06
487.739	0.07
488.091	0.08
488.443	0.08
488.794	0.08
489.146	0.08
489.498	0.08
489.849	0.08
490.201	0.08
490.552	0.08
490.904	0.09
491.255	0.09
491.607	0.08
491.958	0.09
492.309	0.09
492.661	0.1
493.012	0.1
493.363	0.09
493.714	0.1
494.065	0.1
494.416	0.1
494.767	0.1
495.118	0.1
495.469	0.11
495.82	0.11
496.171	0.11
496.522	0.11
496.872	0.11
497.223	0.12
497.574	0.12
497.924	0.12
498.275	0.12
498.626	0.13
498.976	0.13
499.327	0.14
499.677	0.13
500.027	0.14
500.378	0.14
500.728	0.14
501.078	0.14
501.428	0.14
501.779	0.14
502.129	0.15
502.479	0.15
502.829	0.15
503.179	0.15
503.529	0.15
503.879	0.16
504.229	0.16
504.578	0.16
504.928	0.16
505.278	0.16
505.628	0.16
505.977	0.17
506.327	0.17
506.676	0.17
507.026	0.17
507.375	0.17
507.725	0.18
508.074	0.18
508.424	0.18
508.773	0.18
509.122	0.18
509.471	0.18
509.82	0.18
510.17	0.18
510.519	0.19
510.868	0.2
511.217	0.19
511.566	0.19
511.915	0.19
512.263	0.2
512.612	0.2
512.961	0.2
513.31	0.2
513.659	0.2
514.007	0.2
514.356	0.21
514.704	0.21
515.053	0.21
515.401	0.21
515.75	0.22
516.098	0.22
516.447	0.22
516.795	0.22
517.143	0.22
517.491	0.23
517.839	0.22
518.188	0.22
518.536	0.23
518.884	0.23
519.232	0.23
519.58	0.24
519.928	0.23
520.275	0.23
520.623	0.23
520.971	0.23
521.319	0.24
521.666	0.25
522.014	0.25
522.362	0.25
522.709	0.25
523.057	0.25
523.404	0.26
523.752	0.26
524.099	0.26
524.446	0.26
524.794	0.26
525.141	0.26
525.488	0.27
525.835	0.27
526.182	0.27
526.529	0.27
526.876	0.27
527.223	0.27
527.57	0.27
527.917	0.28
528.264	0.28
528.611	0.28
528.958	0.28
529.304	0.29
529.651	0.29
529.998	0.29
530.344	0.29
530.691	0.29
531.037	0.29
531.384	0.29
531.73	0.3
532.076	0.3
532.423	0.3
532.769	0.31
533.115	0.31
533.461	0.31
533.807	0.31
534.154	0.31
534.5	0.32
534.846	0.32
535.192	0.31
535.537	0.33
535.883	0.32
536.229	0.33
536.575	0.33
536.921	0.34
537.266	0.34
537.612	0.34
537.957	0.34
538.303	0.34
538.649	0.34
538.994	0.34
539.339	0.35
539.685	0.35
540.03	0.35
540.375	0.36
540.721	0.35
541.066	0.36
541.411	0.36
541.756	0.37
542.101	0.37
542.446	0.37
542.791	0.37
543.136	0.38
543.481	0.38
543.825	0.38
544.17	0.38
544.515	0.39
544.86	0.39
545.204	0.39
545.549	0.39
545.893	0.39
546.238	0.4
546.582	0.4
546.927	0.4
547.271	0.41
547.615	0.41
547.96	0.42
548.304	0.41
548.648	0.42
548.992	0.42
549.336	0.42
549.68	0.42
550.024	0.42
550.368	0.43
550.712	0.43
551.056	0.43
551.4	0.43
551.743	0.43
552.087	0.44
552.431	0.44
552.774	0.44
553.118	0.45
553.462	0.44
553.805	0.45
554.148	0.45
554.492	0.45
554.835	0.45
555.178	0.45
555.522	0.45
555.865	0.46
556.208	0.46
556.551	0.45
556.894	0.46
557.237	0.46
557.58	0.47
557.923	0.47
558.266	0.47
558.609	0.47
558.952	0.47
559.294	0.47
559.637	0.47
559.98	0.48
560.322	0.48
560.665	0.48
561.007	0.48
561.35	0.47
561.692	0.48
562.034	0.47
562.377	0.48
562.719	0.48
563.061	0.49
563.403	0.49
563.745	0.49
564.088	0.49
564.43	0.49
564.772	0.49
565.113	0.49
565.455	0.49
565.797	0.5
566.139	0.49
566.481	0.5
566.822	0.5
567.164	0.49
567.506	0.5
567.847	0.5
568.189	0.5
568.53	0.5
568.872	0.5
569.213	0.5
569.554	0.5
569.895	0.5
570.237	0.5
570.578	0.51
570.919	0.5
571.26	0.5
571.601	0.5
571.942	0.5
572.283	0.5
572.624	0.5
572.965	0.5
573.306	0.5
573.646	0.5
573.987	0.5
574.328	0.51
574.668	0.51
575.009	0.51
575.349	0.51
575.69	0.5
576.03	0.51
576.37	0.51
576.711	0.5
577.051	0.51
577.391	0.51
577.731	0.51
578.072	0.51
578.412	0.51
578.752	0.51
579.092	0.51
579.431	0.5
579.771	0.5
580.111	0.5
580.451	0.5
580.791	0.51
581.13	0.51
581.47	0.51
581.81	0.51
582.149	0.52
582.489	0.52
582.828	0.51
583.167	0.51
583.507	0.48
583.846	0.47
584.185	0.49
584.525	0.51
584.864	0.52
585.203	0.53
585.542	0.53
585.881	0.53
586.22	0.53
586.559	0.53
586.898	0.53
587.236	0.53
587.575	0.53
587.914	0.53
588.252	0.54
588.591	0.54
588.93	0.55
589.268	0.54
589.607	0.54
589.945	0.55
590.283	0.55
590.622	0.55
590.96	0.56
591.298	0.56
591.636	0.56
591.974	0.57
592.313	0.57
592.651	0.58
592.989	0.57
593.326	0.58
593.664	0.58
594.002	0.58
594.34	0.58
594.678	0.58
595.015	0.57
595.353	0.58
595.691	0.59
596.028	0.59
596.366	0.6
596.703	0.6
597.04	0.6
597.378	0.6
597.715	0.61
598.052	0.61
598.389	0.61
598.726	0.61
599.064	0.61
599.401	0.61
599.738	0.61
600.074	0.61
600.411	0.62
600.748	0.61
601.085	0.61
601.422	0.62
601.758	0.61
602.095	0.61
602.432	0.62
602.768	0.63
603.105	0.62
603.441	0.63
603.777	0.63
604.114	0.63
604.45	0.63
604.786	0.62
605.122	0.63
605.459	0.62
605.795	0.62
606.131	0.62
606.467	0.63
606.803	0.62
607.139	0.62
607.474	0.62
607.81	0.61
608.146	0.62
608.482	0.62
608.817	0.61
609.153	0.61
609.488	0.61
609.824	0.61
610.159	0.61
610.495	0.61
610.83	0.61
611.165	0.61
611.5	0.61
611.836	0.6
612.171	0.6
612.506	0.6
612.841	0.6
613.176	0.6
613.511	0.6
613.845	0.6
614.18	0.6
614.515	0.6
614.85	0.6
615.184	0.6
615.519	0.59
615.854	0.58
616.188	0.59
616.523	0.58
616.857	0.58
617.191	0.58
617.526	0.58
617.86	0.58
618.194	0.58
618.528	0.58
618.862	0.58
619.196	0.57
619.53	0.57
619.864	0.57
620.198	0.57
620.532	0.57
620.866	0.56
621.2	0.56
621.533	0.56
621.867	0.56
622.201	0.55
622.534	0.55
622.868	0.55
623.201	0.55
623.534	0.55
623.868	0.55
624.201	0.55
624.534	0.54
624.868	0.54
625.201	0.54
625.534	0.54
625.867	0.54
626.2	0.54
626.533	0.53
626.865	0.53
627.198	0.53
627.531	0.53
627.864	0.52
628.196	0.52
628.529	0.52
628.862	0.51
629.194	0.51
629.527	0.51
629.859	0.51
630.191	0.5
630.524	0.5
630.856	0.5
631.188	0.49
631.52	0.49
631.852	0.49
632.184	0.48
632.516	0.48
632.848	0.48
633.18	0.47
633.512	0.48
633.844	0.47
634.175	0.47
634.507	0.46
634.839	0.46
635.17	0.45
635.502	0.45
635.833	0.45
636.165	0.45
636.496	0.44
636.827	0.44
637.159	0.44
637.49	0.43
637.821	0.43
638.152	0.43
638.483	0.42
638.814	0.42
639.145	0.42
639.476	0.41
639.807	0.41
640.137	0.41
640.468	0.4
640.799	0.4
641.129	0.39
641.46	0.39
641.791	0.39
642.121	0.39
642.451	0.39
642.782	0.39
643.112	0.38
643.442	0.38
643.773	0.38
644.103	0.37
644.433	0.37
644.763	0.37
645.093	0.37
645.423	0.36
645.753	0.36
646.082	0.36
646.412	0.36
646.742	0.36
647.072	0.35
647.401	0.36
647.731	0.35
648.06	0.35
648.39	0.35
648.719	0.35
649.048	0.35
649.378	0.35
649.707	0.34
650.036	0.34
650.365	0.34
650.694	0.34
651.023	0.34
651.352	0.34
651.681	0.34
652.01	0.35
652.339	0.35
652.668	0.34
652.996	0.34
653.325	0.34
653.654	0.34
653.982	0.34
654.311	0.34
654.639	0.34
654.967	0.34
655.296	0.34
655.624	0.34
655.952	0.34
656.28	0.34
656.609	0.33
656.937	0.34
657.265	0.32
657.593	0.28
657.92	0.16
658.248	0.11
658.576	0.12
658.904	0.22
659.231	0.31
659.559	0.33
659.887	0.34
660.214	0.34
660.542	0.33
660.869	0.33
661.196	0.33
661.524	0.33
661.851	0.33
662.178	0.33
662.505	0.33
662.832	0.33
663.159	0.33
663.486	0.33
663.813	0.33
664.14	0.33
664.467	0.33
664.794	0.33
665.12	0.33
665.447	0.33
665.774	0.32
666.1	0.32
666.427	0.32
666.753	0.32
667.079	0.32
667.406	0.32
667.732	0.31
668.058	0.31
668.384	0.31
668.71	0.32
669.036	0.31
669.362	0.31
669.688	0.31
670.014	0.31
670.34	0.31
670.666	0.31
670.991	0.31
671.317	0.31
671.643	0.3
671.968	0.3
672.294	0.3
672.619	0.3
672.945	0.3
673.27	0.3
673.595	0.3
673.92	0.29
674.246	0.29
674.571	0.29
674.896	0.29
675.221	0.29
675.546	0.29
675.87	0.28
676.195	0.28
676.52	0.28
676.845	0.28
677.169	0.28
677.494	0.27
677.819	0.27
678.143	0.27
678.468	0.27
678.792	0.27
679.116	0.26
679.44	0.26
679.765	0.25
680.089	0.25
680.413	0.25
680.737	0.25
681.061	0.25
681.385	0.25
681.709	0.24
682.033	0.24
682.356	0.24
682.68	0.24
683.004	0.24
683.327	0.24
683.651	0.23
683.974	0.23
684.298	0.23
684.621	0.23
684.944	0.22
685.268	0.22
685.591	0.22
685.914	0.22
686.237	0.21
686.56	0.21
686.883	0.21
687.206	0.21
687.529	0.2
687.852	0.2
688.175	0.2
688.497	0.2
688.82	0.2
689.142	0.2
689.465	0.2
689.787	0.19
690.11	0.19
690.432	0.19
690.755	0.19
691.077	0.19
691.399	0.18
691.721	0.18
692.043	0.18
692.365	0.18
692.687	0.18
693.009	0.17
693.331	0.17
693.653	0.17
693.974	0.17
694.296	0.17
694.618	0.16
694.939	0.16
695.261	0.16
695.582	0.16
695.904	0.16
696.225	0.16
696.546	0.16
696.868	0.15
697.189	0.15
697.51	0.15
697.831	0.15
698.152	0.15
698.473	0.15
698.794	0.14
699.114	0.14
699.435	0.14
699.756	0.14
700.077	0.14
700.397	0.14
700.718	0.14
701.038	0.14
701.359	0.14
701.679	0.14
701.999	0.14
702.32	0.14
702.64	0.14
702.96	0.14
703.28	0.13
703.6	0.14
703.92	0.13
704.24	0.13
704.56	0.13
704.879	0.13
705.199	0.13
705.519	0.13
705.838	0.13
706.158	0.13
706.478	0.12
706.797	0.12
707.116	0.12
707.436	0.12
707.755	0.12
708.074	0.12
708.393	0.12
708.712	0.12
709.031	0.11
709.35	0.12
709.669	0.12
709.988	0.12
710.307	0.12
710.626	0.12
710.944	0.12
711.263	0.12
711.582	0.12
711.9	0.12
712.219	0.12
712.537	0.12
712.855	0.12
713.174	0.12
713.492	0.12
713.81	0.12
714.128	0.12
714.446	0.12
714.764	0.11
715.082	0.11
715.4	0.12
715.718	0.12
716.035	0.11
716.353	0.11
716.671	0.11
716.988	0.12
717.306	0.11
717.623	0.12
717.941	0.12
718.258	0.12
718.575	0.12
718.893	0.12
719.21	0.12
719.527	0.12
719.844	0.12
720.161	0.12
720.478	0.12
720.795	0.12
721.112	0.12
721.428	0.12
721.745	0.12
722.062	0.12
722.378	0.12
722.695	0.12
723.011	0.12
723.328	0.12
723.644	0.12
723.96	0.13
724.276	0.13
724.593	0.13
724.909	0.13
725.225	0.13
725.541	0.13
725.857	0.14
726.173	0.13
726.488	0.13
726.804	0.13
727.12	0.13
727.435	0.13
727.751	0.13
728.067	0.13
728.382	0.13
728.697	0.13
729.013	0.13
729.328	0.13
729.643	0.13
729.958	0.13
730.273	0.14
730.588	0.13
730.903	0.13
731.218	0.14
731.533	0.14
731.848	0.14
732.163	0.13
732.477	0.13
732.792	0.13
733.107	0.13
733.421	0.14
733.736	0.13
734.05	0.13
734.364	0.13
734.678	0.13
734.993	0.13
735.307	0.13
735.621	0.13
735.935	0.13
736.249	0.13
736.563	0.13
736.877	0.13
737.19	0.13
737.504	0.13
737.818	0.13
738.131	0.13
738.445	0.13
738.758	0.13
739.072	0.13
739.385	0.13
739.698	0.13
740.012	0.13
740.325	0.12
740.638	0.12
740.951	0.12
741.264	0.12
741.577	0.12
741.89	0.12
742.203	0.12
742.515	0.12
742.828	0.12
743.141	0.12
743.453	0.12
743.766	0.12
744.078	0.11
744.391	0.11
744.703	0.11
745.015	0.12
745.327	0.12
745.639	0.12
745.952	0.11
746.264	0.11
746.575	0.12
746.887	0.11
747.199	0.11
747.511	0.11
747.823	0.11
748.134	0.11
748.446	0.11
748.757	0.11
749.069	0.11
749.38	0.1
749.692	0.1
750.003	0.1
750.314	0.1
750.625	0.1
750.936	0.1
751.248	0.1
751.559	0.1
751.869	0.1
752.18	0.09
752.491	0.09
752.802	0.09
753.112	0.09
753.423	0.09
753.734	0.09
754.044	0.09
754.355	0.09
754.665	0.09
754.975	0.08
755.285	0.08
755.596	0.08
755.906	0.08
756.216	0.08
756.526	0.08
756.836	0.08
757.146	0.08
757.455	0.08
757.765	0.08
758.075	0.07
758.385	0.07
758.694	0.07
759.004	0.07
759.313	0.07
759.622	0.07
759.932	0.07
760.241	0.07
760.55	0.06
760.859	0.06
761.168	0.06
761.477	0.06
761.786	0.06
762.095	0.06
762.404	0.06
762.713	0.06
763.021	0.06
763.33	0.06
763.639	0.06
763.947	0.05
764.256	0.05
764.564	0.06
764.872	0.05
765.181	0.05
765.489	0.05
765.797	0.05
766.105	0.05
766.413	0.05
766.721	0.05
767.029	0.05
767.337	0.05
767.644	0.05
767.952	0.05
768.26	0.05
768.567	0.05
768.875	0.05
769.182	0.05
769.49	0.05
769.797	0.05
770.104	0.05
770.411	0.05
770.718	0.05
771.026	0.05
771.333	0.05
771.639	0.05
771.946	0.05
772.253	0.05
772.56	0.05
772.867	0.05
773.173	0.05
773.48	0.04
773.786	0.04
774.093	0.05
774.399	0.04
774.705	0.04
775.012	0.04
775.318	0.04
775.624	0.04
775.93	0.04
776.236	0.05
776.542	0.04
776.848	0.04
777.154	0.05
777.459	0.05
777.765	0.05
778.071	0.05
778.376	0.05
778.682	0.05
778.987	0.05
779.292	0.05
779.598	0.05
779.903	0.05
780.208	0.04
780.513	0.04
780.818	0.04
781.123	0.05
781.428	0.04
781.733	0.04
782.038	0.04
782.343	0.04
782.647	0.04
782.952	0.04
783.256	0.04
783.561	0.04
783.865	0.04
784.17	0.04
784.474	0.04
784.778	0.04
785.082	0.04
785.386	0.05
785.69	0.05
785.994	0.05
786.298	0.04
786.602	0.05
786.906	0.05
787.209	0.05
787.513	0.05
787.817	0.05
788.12	0.05
788.424	0.05
788.727	0.04
789.03	0.04
789.333	0.04
789.637	0.04
789.94	0.04
790.243	0.04
790.546	0.04
790.849	0.03
791.152	0.03
791.454	0.03
791.757	0.03
792.06	0.03
792.362	0.03
792.665	0.03
792.967	0.03
793.27	0.03
793.572	0.03
793.874	0.03
794.177	0.03
794.479	0.03
794.781	0.03
795.083	0.03
795.385	0.03
795.687	0.04
795.989	0.03
796.29	0.04
796.592	0.04
796.894	0.04
797.195	0.04
797.497	0.04
797.798	0.04
798.1	0.04
798.401	0.03
798.702	0.04
799.003	0.03
799.304	0.03
799.605	0.03
799.906	0.03
800.207	0.03
800.508	0.03
800.809	0.03
801.11	0.03
801.41	0.03
801.711	0.03
802.011	0.03
802.312	0.04
802.612	0.03
802.913	0.03
803.213	0.04
803.513	0.03
803.813	0.03
804.113	0.03
804.413	0.03
804.713	0.03
805.013	0.03
805.313	0.03
805.613	0.03
805.912	0.03
806.212	0.03
806.511	0.02
806.811	0.03
807.11	0.03
807.41	0.03
807.709	0.03
808.008	0.03
808.307	0.03
808.606	0.03
808.905	0.03
809.204	0.03
809.503	0.03
809.802	0.03
810.101	0.03
810.399	0.03
810.698	0.03
810.997	0.03
811.295	0.04
811.593	0.04
811.892	0.04
812.19	0.04
812.488	0.04
812.786	0.04
813.084	0.03
813.383	0.03
813.68	0.03
813.978	0.03
814.276	0.03
814.574	0.03
814.872	0.03
815.169	0.02
815.467	0.03
815.764	0.03
816.062	0.02
816.359	0.02
816.656	0.02
816.954	0.03
817.251	0.03
817.548	0.03
817.845	0.03
818.142	0.03
818.439	0.03
818.735	0.03
819.032	0.03
819.329	0.03
819.626	0.03
819.922	0.03
820.219	0.03
820.515	0.03
820.811	0.03
821.108	0.02
821.404	0.03
821.7	0.02
821.996	0.03
822.292	0.02
822.588	0.03
822.884	0.03
823.18	0.03
823.475	0.03
823.771	0.03
824.067	0.03
824.362	0.02
824.658	0.03
824.953	0.03
825.249	0.03
825.544	0.02
825.839	0.02
826.134	0.02
826.429	0.03
826.724	0.02
827.019	0.02
827.314	0.03
827.609	0.02
827.904	0.02
828.198	0.02
828.493	0.02
828.787	0.02
829.082	0.03
829.376	0.02
829.671	0.02
829.965	0.02
830.259	0.02
830.553	0.02
830.847	0.01
831.141	0.02
831.435	0.02
831.729	0.02
832.023	0.02
832.317	0.02
832.61	0.02
832.904	0.03
833.197	0.02
833.491	0.02
833.784	0.03
834.077	0.02
834.371	0.03
834.664	0.03
834.957	0.03
835.25	0.03
835.543	0.03
835.836	0.03
836.129	0.02
836.421	0.02
836.714	0.02
837.007	0.02
837.299	0.02
837.592	0.03
837.884	0.02
838.177	0.02
838.469	0.02
838.761	0.02
839.053	0.01
839.345	0.02
839.637	0.02
839.929	0.01
840.221	0.02
840.513	0.02
840.805	0.02
841.096	0.02
841.388	0.02
841.68	0.02
841.971	0.03
842.262	0.02
842.554	0.02
842.845	0.03
843.136	0.02
843.427	0.02
843.718	0.02
844.009	0.01
844.3	0.02
844.591	0.02
844.882	0.02
845.173	0.02
845.463	0.02
845.754	0.02
846.044	0.02
846.335	0.02
846.625	0.02
846.915	0.01
847.206	0.02
847.496	0.02
847.786	0.03
848.076	0.02
848.366	0.02
848.656	0.01
848.945	0.02
849.235	0.03
849.525	0.01
849.814	0.02
850.104	0.02
850.393	0.02
850.683	0.02
850.972	0.02
851.261	0.02
851.551	0.03
851.84	0.03
852.129	0.02
852.418	0.02
852.707	0.03
852.995	0.02
853.284	0.02
853.573	0.02
853.862	0.01
854.15	0.02
854.439	0.01
854.727	0.01
855.015	0.01
855.304	0.01
855.592	0.01
855.88	0.01
856.168	0.01
856.456	0
856.744	0.01
857.032	-0.01
857.32	0
857.607	0.01
857.895	0.01
858.183	0.01
858.47	0.02
858.757	-0
859.045	0
859.332	0.02
859.619	0.05
859.907	0.01
860.194	0.02
860.481	0.02
860.768	0.01
861.054	0.01
861.341	0.01
861.628	-0.01
861.915	-0.01
862.201	-0
862.488	-0.02
862.774	0.01
863.061	0.02
863.347	0.01
863.633	-0
863.919	0.01
864.205	0
864.491	-0.02
864.777	0.02
865.063	0.04
865.349	0.01
865.635	0
865.92	0.03
866.206	0.01
866.492	-0
866.777	-0.02
867.062	-0.02
867.348	-0.03
867.633	0.04
867.918	0.02
868.203	0.01
868.488	-0.02
868.773	-0.02
869.058	-0.04
869.343	-0.02
869.628	-0
869.912	0
870.197	0.03
870.482	-0
870.766	-0.01
871.05	0.01
871.335	0.01
871.619	-0
871.903	0.01
872.187	0.03
872.471	-0.04
872.755	-0.03
873.039	-0.01
873.323	0.01
873.607	0.03
873.89	-0.07
874.174	0.04
874.458	-0.02
874.741	0.03
875.024	-0
875.308	0.05
875.591	-0.03
875.874	0.06
876.157	-0.1
876.44	-0.08
876.723	0.02
877.006	0.04
877.289	-0.05
877.572	0.03
877.854	0.03
878.137	-0.01
878.42	0.06
878.702	-0.04
878.984	0.02
879.267	-0.08
879.549	-0
879.831	-0.06
880.113	-0.12
880.395	-0
880.677	-0.1
880.959	0.08
