Data from Rubpy_EV_900_EDTA_Buffered_Absorbance_13-56-10-691.txt Node
Date: Tue Jun 30 13:56:10 BST 2026
User: fpm-admin
Spectrometer: OFX00224
Trigger mode: 0
Integration Time (sec): 7.000000E-2
Scans to average: 3
Nonlinearity correction enabled: false
Boxcar width: 0
Storing dark spectrum: false
XAxis mode: Wavelengths
Number of Pixels in Spectrum: 2136
>>>>>Begin Spectral Data<<<<<
154.91	0.23
155.289	-1.4
155.669	0.3
156.048	-0
156.428	0.45
156.807	0.36
157.186	0.18
157.566	-0
157.945	0.39
158.325	-0
158.704	-0
159.083	-0
159.462	0.06
159.842	-0
160.221	-0.45
160.6	1.51
160.979	-0
161.359	-0
161.738	-0.24
162.117	-0.3
162.496	-0
162.875	-0
163.254	-0.38
163.633	0.8
164.012	-1.08
164.391	0.03
164.77	0.11
165.149	-0.16
165.528	0.6
165.907	-0.15
166.286	-0
166.665	-0.85
167.044	-0
167.423	0.16
167.802	-0.6
168.181	-0
168.559	-0
168.938	-0
169.317	0.22
169.696	-0
170.074	-0.85
170.453	-0
170.832	-0
171.21	0.17
171.589	-0
171.968	0.48
172.346	0.18
172.725	-0.08
173.103	-0
173.482	0.39
173.861	-0.11
174.239	0.31
174.617	-0
174.996	-0
175.374	-0
175.753	0.83
176.131	-0
176.51	-0.36
176.888	-0
177.266	-0
177.645	0.05
178.023	0.41
178.401	-0.05
178.779	0.11
179.158	-0
179.536	-0.16
179.914	0.18
180.292	-0
180.67	-0.14
181.048	0.31
181.427	-0
181.805	-0.36
182.183	-1.1
182.561	-0
182.939	-0.13
183.317	-0
183.695	0.46
184.073	-0
184.451	-0
184.829	0.23
185.206	-0.03
185.584	-0
185.962	1.65
186.34	-0.23
186.718	-0.09
187.096	-0.2
187.473	0.49
187.851	-0.44
188.229	-0.22
188.607	0.15
188.984	0.16
189.362	0.02
189.74	0.11
190.117	0.05
190.495	0.19
190.872	0.15
191.25	0.19
191.627	0.11
192.005	0.08
192.382	0.1
192.76	0.24
193.137	0.18
193.515	0.15
193.892	0.06
194.269	0.1
194.647	0.21
195.024	0.22
195.401	0.21
195.779	0.14
196.156	0.16
196.533	0.07
196.91	0.19
197.288	0.17
197.665	0.02
198.042	0.12
198.419	0.07
198.796	0.2
199.173	0.13
199.55	0.18
199.927	0.17
200.304	0.09
200.681	0.22
201.058	0.09
201.435	0.16
201.812	0.16
202.189	0.21
202.566	0.07
202.943	-0.02
203.32	0.14
203.697	0.14
204.073	0.13
204.45	0.23
204.827	0.19
205.204	0.25
205.58	0.19
205.957	0.21
206.334	0.18
206.71	0.27
207.087	0.1
207.464	0.18
207.84	0.21
208.217	0.2
208.593	0.22
208.97	0.16
209.346	0.12
209.723	0.21
210.099	0.11
210.476	0.09
210.852	0.09
211.228	0.19
211.605	0.14
211.981	0.2
212.357	0.15
212.733	0.19
213.11	0.12
213.486	0.06
213.862	0.2
214.238	0.18
214.614	0.21
214.991	0.06
215.367	0.22
215.743	0.08
216.119	0.2
216.495	0.15
216.871	0.09
217.247	0.32
217.623	0.18
217.999	0.04
218.375	0.15
218.751	0.17
219.127	0.18
219.502	0.2
219.878	0.12
220.254	0.24
220.63	0.22
221.006	0.24
221.381	0.18
221.757	0.2
222.133	0.22
222.508	0.16
222.884	0.28
223.26	0.27
223.635	0.12
224.011	0.16
224.386	0.1
224.762	0.19
225.137	0.24
225.513	0.12
225.888	0.27
226.264	0.17
226.639	0.08
227.014	0.28
227.39	0.06
227.765	0.12
228.14	0.32
228.516	0.15
228.891	0.31
229.266	0.15
229.641	0.1
230.017	0.19
230.392	0.2
230.767	0.14
231.142	0.17
231.517	0.19
231.892	0.14
232.267	0.23
232.642	0.2
233.017	0.12
233.392	0.22
233.767	0.14
234.142	0.13
234.517	0.19
234.892	0.18
235.267	0.17
235.641	0.21
236.016	0.32
236.391	0.25
236.766	0.18
237.14	0.07
237.515	0.17
237.89	0.22
238.264	0.14
238.639	0.36
239.014	0.18
239.388	0.22
239.763	0.27
240.137	0.14
240.512	0.15
240.886	0.15
241.261	0.15
241.635	0.28
242.009	0.16
242.384	0.19
242.758	0.26
243.132	0.12
243.507	0.27
243.881	0.24
244.255	0.14
244.629	0.26
245.004	0.2
245.378	0.13
245.752	0.11
246.126	0.13
246.5	0.26
246.874	0.2
247.248	0.21
247.622	0.26
247.996	0.16
248.37	0.26
248.744	0.22
249.118	0.25
249.492	0.18
249.866	0.16
250.24	0.11
250.613	0.16
250.987	0.2
251.361	0.29
251.735	0.19
252.108	0.13
252.482	0.23
252.856	0.27
253.229	0.24
253.603	0.17
253.977	0.22
254.35	0.21
254.724	0.12
255.097	0.16
255.471	0.29
255.844	0.22
256.218	0.19
256.591	0.17
256.964	0.15
257.338	0.23
257.711	0.15
258.084	0.16
258.458	0.16
258.831	0.27
259.204	0.11
259.577	0.15
259.95	0.19
260.323	0.12
260.697	0.25
261.07	0.17
261.443	0.12
261.816	0.19
262.189	0.14
262.562	0.22
262.935	0.17
263.308	0.26
263.68	0.13
264.053	0.17
264.426	0.1
264.799	0.24
265.172	0.15
265.545	0.23
265.917	0.19
266.29	0.25
266.663	0.18
267.035	0.21
267.408	0.17
267.781	0.19
268.153	0.11
268.526	0.2
268.898	0.23
269.271	0.17
269.643	0.17
270.016	0.18
270.388	0.18
270.76	0.25
271.133	0.19
271.505	0.22
271.877	0.13
272.25	0.24
272.622	0.19
272.994	0.22
273.366	0.19
273.739	0.13
274.111	0.1
274.483	0.23
274.855	0.15
275.227	0.16
275.599	0.11
275.971	0.25
276.343	0.13
276.715	0.16
277.087	0.15
277.459	0.22
277.831	0.22
278.203	0.27
278.574	0.15
278.946	0.18
279.318	0.19
279.69	0.28
280.061	0.16
280.433	0.18
280.805	0.23
281.176	0.16
281.548	0.19
281.92	0.17
282.291	0.21
282.663	0.14
283.034	0.21
283.406	0.19
283.777	0.2
284.148	0.26
284.52	0.18
284.891	0.22
285.262	0.19
285.634	0.24
286.005	0.21
286.376	0.21
286.747	0.27
287.119	0.13
287.49	0.19
287.861	0.2
288.232	0.14
288.603	0.24
288.974	0.19
289.345	0.22
289.716	0.27
290.087	0.19
290.458	0.19
290.829	0.21
291.2	0.18
291.571	0.13
291.941	0.19
292.312	0.22
292.683	0.21
293.054	0.22
293.424	0.19
293.795	0.28
294.166	0.26
294.536	0.25
294.907	0.16
295.277	0.18
295.648	0.18
296.018	0.15
296.389	0.2
296.759	0.17
297.13	0.13
297.5	0.21
297.871	0.19
298.241	0.2
298.611	0.19
298.981	0.24
299.352	0.17
299.722	0.19
300.092	0.2
300.462	0.21
300.832	0.21
301.202	0.14
301.573	0.18
301.943	0.16
302.313	0.14
302.683	0.14
303.053	0.15
303.422	0.14
303.792	0.16
304.162	0.15
304.532	0.18
304.902	0.15
305.272	0.16
305.641	0.16
306.011	0.16
306.381	0.16
306.75	0.17
307.12	0.17
307.49	0.18
307.859	0.18
308.229	0.18
308.598	0.18
308.968	0.19
309.337	0.18
309.707	0.2
310.076	0.2
310.445	0.19
310.815	0.2
311.184	0.2
311.553	0.2
311.923	0.22
312.292	0.21
312.661	0.21
313.03	0.21
313.399	0.21
313.768	0.21
314.137	0.21
314.506	0.21
314.875	0.21
315.244	0.21
315.613	0.21
315.982	0.21
316.351	0.22
316.72	0.2
317.089	0.2
317.458	0.2
317.826	0.21
318.195	0.2
318.564	0.2
318.933	0.2
319.301	0.21
319.67	0.2
320.038	0.19
320.407	0.19
320.775	0.2
321.144	0.19
321.512	0.18
321.881	0.19
322.249	0.18
322.618	0.18
322.986	0.18
323.354	0.18
323.723	0.18
324.091	0.17
324.459	0.18
324.827	0.18
325.195	0.16
325.564	0.17
325.932	0.18
326.3	0.18
326.668	0.17
327.036	0.17
327.404	0.17
327.772	0.18
328.14	0.17
328.508	0.17
328.875	0.17
329.243	0.17
329.611	0.18
329.979	0.18
330.346	0.17
330.714	0.17
331.082	0.18
331.449	0.17
331.817	0.18
332.185	0.18
332.552	0.17
332.92	0.18
333.287	0.19
333.655	0.19
334.022	0.19
334.389	0.19
334.757	0.19
335.124	0.19
335.491	0.19
335.859	0.19
336.226	0.19
336.593	0.2
336.96	0.2
337.327	0.2
337.695	0.2
338.062	0.21
338.429	0.21
338.796	0.21
339.163	0.22
339.53	0.22
339.897	0.22
340.263	0.22
340.63	0.23
340.997	0.23
341.364	0.23
341.731	0.24
342.097	0.24
342.464	0.25
342.831	0.25
343.197	0.26
343.564	0.26
343.931	0.27
344.297	0.27
344.664	0.27
345.03	0.28
345.396	0.28
345.763	0.28
346.129	0.29
346.496	0.29
346.862	0.3
347.228	0.3
347.594	0.3
347.961	0.31
348.327	0.31
348.693	0.32
349.059	0.32
349.425	0.33
349.791	0.33
350.157	0.34
350.523	0.34
350.889	0.35
351.255	0.35
351.621	0.36
351.987	0.37
352.353	0.38
352.719	0.39
353.084	0.39
353.45	0.4
353.816	0.41
354.181	0.41
354.547	0.43
354.913	0.43
355.278	0.44
355.644	0.44
356.009	0.46
356.375	0.47
356.74	0.47
357.106	0.49
357.471	0.5
357.836	0.5
358.202	0.51
358.567	0.52
358.932	0.53
359.297	0.54
359.663	0.55
360.028	0.55
360.393	0.56
360.758	0.57
361.123	0.58
361.488	0.58
361.853	0.6
362.218	0.59
362.583	0.6
362.948	0.61
363.312	0.62
363.677	0.63
364.042	0.63
364.407	0.65
364.772	0.66
365.136	0.67
365.501	0.68
365.865	0.7
366.23	0.71
366.595	0.73
366.959	0.74
367.324	0.75
367.688	0.77
368.052	0.78
368.417	0.79
368.781	0.8
369.145	0.8
369.51	0.81
369.874	0.81
370.238	0.82
370.602	0.81
370.967	0.81
371.331	0.81
371.695	0.81
372.059	0.8
372.423	0.79
372.787	0.81
373.151	0.79
373.515	0.79
373.878	0.78
374.242	0.79
374.606	0.78
374.97	0.8
375.334	0.8
375.697	0.8
376.061	0.79
376.425	0.81
376.788	0.81
377.152	0.81
377.515	0.81
377.879	0.83
378.242	0.83
378.606	0.85
378.969	0.86
379.333	0.86
379.696	0.87
380.059	0.88
380.422	0.9
380.786	0.92
381.149	0.93
381.512	0.96
381.875	0.98
382.238	0.99
382.601	1
382.964	1.05
383.327	1.07
383.69	1.11
384.053	1.11
384.416	1.15
384.779	1.18
385.142	1.2
385.504	1.21
385.867	1.23
386.23	1.24
386.593	1.25
386.955	1.26
387.318	1.26
387.68	1.24
388.043	1.24
388.405	1.22
388.768	1.23
389.13	1.23
389.493	1.2
389.855	1.19
390.217	1.19
390.58	1.19
390.942	1.2
391.304	1.21
391.666	1.22
392.028	1.24
392.391	1.27
392.753	1.3
393.115	1.33
393.477	1.37
393.839	1.41
394.201	1.47
394.563	1.52
394.924	1.57
395.286	1.61
395.648	1.67
396.01	1.68
396.371	1.71
396.733	1.73
397.095	1.75
397.456	1.76
397.818	1.78
398.18	1.73
398.541	1.73
398.903	1.72
399.264	1.65
399.625	1.64
399.987	1.58
400.348	1.54
400.709	1.48
401.071	1.4
401.432	1.33
401.793	1.25
402.154	1.17
402.515	1.08
402.876	1.03
403.238	0.95
403.599	0.89
403.96	0.83
404.32	0.76
404.681	0.72
405.042	0.68
405.403	0.62
405.764	0.58
406.125	0.54
406.485	0.5
406.846	0.47
407.207	0.44
407.567	0.43
407.928	0.4
408.288	0.38
408.649	0.36
409.009	0.34
409.37	0.32
409.73	0.31
410.091	0.29
410.451	0.28
410.811	0.26
411.171	0.25
411.532	0.25
411.892	0.24
412.252	0.23
412.612	0.22
412.972	0.21
413.332	0.21
413.692	0.21
414.052	0.19
414.412	0.18
414.772	0.18
415.132	0.17
415.492	0.17
415.851	0.16
416.211	0.16
416.571	0.16
416.931	0.15
417.29	0.16
417.65	0.14
418.009	0.14
418.369	0.14
418.728	0.13
419.088	0.13
419.447	0.14
419.807	0.13
420.166	0.13
420.525	0.12
420.884	0.13
421.244	0.12
421.603	0.11
421.962	0.11
422.321	0.11
422.68	0.11
423.039	0.11
423.398	0.11
423.757	0.1
424.116	0.11
424.475	0.11
424.834	0.11
425.193	0.1
425.551	0.11
425.91	0.1
426.269	0.1
426.628	0.1
426.986	0.1
427.345	0.09
427.703	0.1
428.062	0.1
428.42	0.1
428.779	0.09
429.137	0.1
429.496	0.09
429.854	0.09
430.212	0.09
430.57	0.08
430.929	0.08
431.287	0.08
431.645	0.09
432.003	0.08
432.361	0.08
432.719	0.08
433.077	0.09
433.435	0.09
433.793	0.08
434.151	0.08
434.509	0.08
434.866	0.08
435.224	0.08
435.582	0.08
435.94	0.07
436.297	0.07
436.655	0.07
437.012	0.08
437.37	0.07
437.727	0.07
438.085	0.07
438.442	0.07
438.8	0.07
439.157	0.07
439.514	0.07
439.872	0.06
440.229	0.07
440.586	0.07
440.943	0.06
441.3	0.07
441.657	0.07
442.014	0.07
442.371	0.06
442.728	0.05
443.085	0.06
443.442	0.05
443.799	0.06
444.156	0.06
444.513	0.05
444.869	0.06
445.226	0.05
445.583	0.06
445.939	0.05
446.296	0.05
446.652	0.05
447.009	0.05
447.365	0.05
447.722	0.04
448.078	0.04
448.434	0.05
448.791	0.04
449.147	0.05
449.503	0.04
449.859	0.04
450.215	0.04
450.571	0.04
450.928	0.03
451.284	0.03
451.64	0.04
451.995	0.03
452.351	0.03
452.707	0.03
453.063	0.02
453.419	0.02
453.775	0.02
454.13	0.02
454.486	0.02
454.842	0.01
455.197	0.01
455.553	0
455.908	0.01
456.264	0
456.619	-0.01
456.975	-0.01
457.33	-0
457.685	-0.01
458.04	-0.02
458.396	-0.02
458.751	-0.03
459.106	-0.03
459.461	-0.03
459.816	-0.04
460.171	-0.04
460.526	-0.05
460.881	-0.05
461.236	-0.06
461.591	-0.06
461.946	-0.06
462.301	-0.07
462.655	-0.07
463.01	-0.08
463.365	-0.08
463.719	-0.08
464.074	-0.09
464.428	-0.1
464.783	-0.1
465.137	-0.11
465.492	-0.11
465.846	-0.11
466.201	-0.11
466.555	-0.11
466.909	-0.11
467.263	-0.11
467.618	-0.1
467.972	-0.11
468.326	-0.11
468.68	-0.11
469.034	-0.11
469.388	-0.13
469.742	-0.12
470.096	-0.12
470.45	-0.11
470.804	-0.11
471.157	-0.13
471.511	-0.13
471.865	-0.12
472.218	-0.12
472.572	-0.12
472.926	-0.11
473.279	-0.11
473.633	-0.1
473.986	-0.09
474.34	-0.09
474.693	-0.08
475.046	-0.07
475.4	-0.06
475.753	-0.06
476.106	-0.06
476.459	-0.05
476.812	-0.04
477.165	-0.03
477.519	-0.02
477.872	-0.02
478.224	-0.02
478.577	-0.01
478.93	-0.01
479.283	-0.01
479.636	-0
479.989	-0
480.341	0
480.694	0.01
481.047	0.01
481.399	0.02
481.752	0.02
482.104	0.03
482.457	0.03
482.809	0.03
483.162	0.03
483.514	0.04
483.866	0.04
484.219	0.04
484.571	0.04
484.923	0.04
485.275	0.05
485.627	0.05
485.979	0.05
486.331	0.05
486.683	0.06
487.035	0.06
487.387	0.06
487.739	0.07
488.091	0.08
488.443	0.08
488.794	0.08
489.146	0.08
489.498	0.08
489.849	0.08
490.201	0.08
490.552	0.08
490.904	0.08
491.255	0.08
491.607	0.08
491.958	0.09
492.309	0.09
492.661	0.09
493.012	0.1
493.363	0.1
493.714	0.1
494.065	0.1
494.416	0.11
494.767	0.1
495.118	0.11
495.469	0.1
495.82	0.11
496.171	0.11
496.522	0.11
496.872	0.12
497.223	0.12
497.574	0.11
497.924	0.11
498.275	0.12
498.626	0.13
498.976	0.13
499.327	0.13
499.677	0.13
500.027	0.14
500.378	0.14
500.728	0.14
501.078	0.13
501.428	0.14
501.779	0.14
502.129	0.14
502.479	0.15
502.829	0.15
503.179	0.15
503.529	0.15
503.879	0.15
504.229	0.15
504.578	0.16
504.928	0.16
505.278	0.16
505.628	0.16
505.977	0.17
506.327	0.17
506.676	0.16
507.026	0.17
507.375	0.17
507.725	0.17
508.074	0.17
508.424	0.17
508.773	0.18
509.122	0.18
509.471	0.18
509.82	0.18
510.17	0.18
510.519	0.19
510.868	0.19
511.217	0.19
511.566	0.19
511.915	0.19
512.263	0.19
512.612	0.2
512.961	0.2
513.31	0.19
513.659	0.2
514.007	0.2
514.356	0.2
514.704	0.21
515.053	0.21
515.401	0.21
515.75	0.21
516.098	0.21
516.447	0.22
516.795	0.22
517.143	0.22
517.491	0.22
517.839	0.22
518.188	0.22
518.536	0.23
518.884	0.23
519.232	0.23
519.58	0.23
519.928	0.23
520.275	0.23
520.623	0.23
520.971	0.23
521.319	0.24
521.666	0.25
522.014	0.24
522.362	0.25
522.709	0.25
523.057	0.24
523.404	0.25
523.752	0.25
524.099	0.26
524.446	0.25
524.794	0.26
525.141	0.26
525.488	0.26
525.835	0.26
526.182	0.26
526.529	0.27
526.876	0.27
527.223	0.27
527.57	0.27
527.917	0.27
528.264	0.28
528.611	0.28
528.958	0.28
529.304	0.28
529.651	0.29
529.998	0.28
530.344	0.28
530.691	0.29
531.037	0.29
531.384	0.29
531.73	0.29
532.076	0.3
532.423	0.3
532.769	0.31
533.115	0.31
533.461	0.31
533.807	0.31
534.154	0.31
534.5	0.32
534.846	0.31
535.192	0.32
535.537	0.32
535.883	0.32
536.229	0.32
536.575	0.32
536.921	0.33
537.266	0.33
537.612	0.33
537.957	0.34
538.303	0.34
538.649	0.34
538.994	0.34
539.339	0.35
539.685	0.34
540.03	0.35
540.375	0.35
540.721	0.35
541.066	0.36
541.411	0.36
541.756	0.36
542.101	0.36
542.446	0.36
542.791	0.37
543.136	0.37
543.481	0.37
543.825	0.38
544.17	0.38
544.515	0.39
544.86	0.39
545.204	0.38
545.549	0.39
545.893	0.39
546.238	0.4
546.582	0.4
546.927	0.4
547.271	0.4
547.615	0.41
547.96	0.4
548.304	0.41
548.648	0.41
548.992	0.41
549.336	0.42
549.68	0.41
550.024	0.42
550.368	0.42
550.712	0.42
551.056	0.42
551.4	0.43
551.743	0.43
552.087	0.43
552.431	0.44
552.774	0.44
553.118	0.44
553.462	0.44
553.805	0.44
554.148	0.44
554.492	0.45
554.835	0.45
555.178	0.45
555.522	0.45
555.865	0.45
556.208	0.46
556.551	0.45
556.894	0.45
557.237	0.46
557.58	0.46
557.923	0.46
558.266	0.46
558.609	0.47
558.952	0.47
559.294	0.47
559.637	0.47
559.98	0.47
560.322	0.47
560.665	0.47
561.007	0.47
561.35	0.47
561.692	0.47
562.034	0.47
562.377	0.48
562.719	0.48
563.061	0.48
563.403	0.48
563.745	0.48
564.088	0.48
564.43	0.48
564.772	0.48
565.113	0.49
565.455	0.49
565.797	0.49
566.139	0.49
566.481	0.49
566.822	0.49
567.164	0.49
567.506	0.49
567.847	0.49
568.189	0.49
568.53	0.5
568.872	0.49
569.213	0.5
569.554	0.5
569.895	0.5
570.237	0.5
570.578	0.5
570.919	0.5
571.26	0.49
571.601	0.5
571.942	0.5
572.283	0.49
572.624	0.49
572.965	0.49
573.306	0.5
573.646	0.5
573.987	0.5
574.328	0.5
574.668	0.5
575.009	0.5
575.349	0.5
575.69	0.5
576.03	0.5
576.37	0.5
576.711	0.5
577.051	0.5
577.391	0.5
577.731	0.5
578.072	0.51
578.412	0.5
578.752	0.51
579.092	0.5
579.431	0.5
579.771	0.49
580.111	0.49
580.451	0.5
580.791	0.51
581.13	0.51
581.47	0.51
581.81	0.51
582.149	0.51
582.489	0.51
582.828	0.51
583.167	0.5
583.507	0.48
583.846	0.46
584.185	0.49
584.525	0.51
584.864	0.51
585.203	0.52
585.542	0.52
585.881	0.53
586.22	0.53
586.559	0.52
586.898	0.52
587.236	0.52
587.575	0.52
587.914	0.53
588.252	0.54
588.591	0.54
588.93	0.54
589.268	0.53
589.607	0.54
589.945	0.54
590.283	0.54
590.622	0.55
590.96	0.55
591.298	0.56
591.636	0.56
591.974	0.56
592.313	0.56
592.651	0.57
592.989	0.57
593.326	0.57
593.664	0.57
594.002	0.58
594.34	0.57
594.678	0.57
595.015	0.57
595.353	0.57
595.691	0.58
596.028	0.59
596.366	0.59
596.703	0.6
597.04	0.59
597.378	0.59
597.715	0.6
598.052	0.6
598.389	0.6
598.726	0.6
599.064	0.6
599.401	0.61
599.738	0.61
600.074	0.61
600.411	0.6
600.748	0.61
601.085	0.61
601.422	0.61
601.758	0.61
602.095	0.61
602.432	0.61
602.768	0.61
603.105	0.61
603.441	0.62
603.777	0.62
604.114	0.62
604.45	0.62
604.786	0.62
605.122	0.62
605.459	0.61
605.795	0.61
606.131	0.62
606.467	0.61
606.803	0.61
607.139	0.61
607.474	0.61
607.81	0.61
608.146	0.61
608.482	0.61
608.817	0.61
609.153	0.6
609.488	0.6
609.824	0.6
610.159	0.61
610.495	0.61
610.83	0.61
611.165	0.61
611.5	0.6
611.836	0.6
612.171	0.59
612.506	0.59
612.841	0.6
613.176	0.59
613.511	0.6
613.845	0.6
614.18	0.59
614.515	0.59
614.85	0.59
615.184	0.59
615.519	0.59
615.854	0.58
616.188	0.58
616.523	0.58
616.857	0.57
617.191	0.57
617.526	0.57
617.86	0.57
618.194	0.56
618.528	0.57
618.862	0.57
619.196	0.57
619.53	0.57
619.864	0.56
620.198	0.56
620.532	0.55
620.866	0.55
621.2	0.55
621.533	0.55
621.867	0.55
622.201	0.54
622.534	0.55
622.868	0.55
623.201	0.55
623.534	0.54
623.868	0.54
624.201	0.54
624.534	0.54
624.868	0.54
625.201	0.54
625.534	0.53
625.867	0.53
626.2	0.53
626.533	0.53
626.865	0.53
627.198	0.52
627.531	0.52
627.864	0.51
628.196	0.52
628.529	0.51
628.862	0.51
629.194	0.51
629.527	0.5
629.859	0.5
630.191	0.5
630.524	0.5
630.856	0.49
631.188	0.49
631.52	0.49
631.852	0.48
632.184	0.48
632.516	0.47
632.848	0.47
633.18	0.47
633.512	0.47
633.844	0.47
634.175	0.46
634.507	0.46
634.839	0.45
635.17	0.45
635.502	0.45
635.833	0.44
636.165	0.44
636.496	0.44
636.827	0.43
637.159	0.43
637.49	0.43
637.821	0.42
638.152	0.42
638.483	0.42
638.814	0.41
639.145	0.42
639.476	0.41
639.807	0.4
640.137	0.4
640.468	0.4
640.799	0.39
641.129	0.39
641.46	0.38
641.791	0.38
642.121	0.38
642.451	0.38
642.782	0.38
643.112	0.38
643.442	0.38
643.773	0.38
644.103	0.37
644.433	0.37
644.763	0.36
645.093	0.37
645.423	0.36
645.753	0.36
646.082	0.36
646.412	0.35
646.742	0.35
647.072	0.35
647.401	0.35
647.731	0.35
648.06	0.35
648.39	0.35
648.719	0.35
649.048	0.35
649.378	0.35
649.707	0.34
650.036	0.34
650.365	0.34
650.694	0.34
651.023	0.34
651.352	0.34
651.681	0.34
652.01	0.34
652.339	0.34
652.668	0.34
652.996	0.34
653.325	0.34
653.654	0.34
653.982	0.34
654.311	0.33
654.639	0.34
654.967	0.33
655.296	0.33
655.624	0.33
655.952	0.33
656.28	0.33
656.609	0.33
656.937	0.33
657.265	0.32
657.593	0.28
657.92	0.16
658.248	0.11
658.576	0.11
658.904	0.21
659.231	0.3
659.559	0.33
659.887	0.33
660.214	0.33
660.542	0.33
660.869	0.33
661.196	0.33
661.524	0.33
661.851	0.33
662.178	0.33
662.505	0.33
662.832	0.33
663.159	0.32
663.486	0.32
663.813	0.33
664.14	0.32
664.467	0.32
664.794	0.32
665.12	0.33
665.447	0.32
665.774	0.32
666.1	0.32
666.427	0.32
666.753	0.32
667.079	0.32
667.406	0.31
667.732	0.31
668.058	0.31
668.384	0.31
668.71	0.31
669.036	0.31
669.362	0.31
669.688	0.31
670.014	0.31
670.34	0.31
670.666	0.31
670.991	0.3
671.317	0.3
671.643	0.3
671.968	0.3
672.294	0.29
672.619	0.3
672.945	0.3
673.27	0.29
673.595	0.29
673.92	0.29
674.246	0.29
674.571	0.28
674.896	0.28
675.221	0.28
675.546	0.28
675.87	0.28
676.195	0.28
676.52	0.27
676.845	0.27
677.169	0.27
677.494	0.27
677.819	0.27
678.143	0.27
678.468	0.27
678.792	0.26
679.116	0.26
679.44	0.26
679.765	0.25
680.089	0.25
680.413	0.24
680.737	0.25
681.061	0.24
681.385	0.24
681.709	0.24
682.033	0.24
682.356	0.24
682.68	0.24
683.004	0.24
683.327	0.23
683.651	0.23
683.974	0.23
684.298	0.23
684.621	0.22
684.944	0.22
685.268	0.22
685.591	0.22
685.914	0.21
686.237	0.21
686.56	0.21
686.883	0.21
687.206	0.2
687.529	0.2
687.852	0.2
688.175	0.2
688.497	0.2
688.82	0.2
689.142	0.2
689.465	0.19
689.787	0.19
690.11	0.19
690.432	0.19
690.755	0.19
691.077	0.19
691.399	0.18
691.721	0.18
692.043	0.18
692.365	0.18
692.687	0.17
693.009	0.17
693.331	0.17
693.653	0.17
693.974	0.16
694.296	0.16
694.618	0.16
694.939	0.16
695.261	0.16
695.582	0.16
695.904	0.15
696.225	0.15
696.546	0.15
696.868	0.15
697.189	0.15
697.51	0.15
697.831	0.15
698.152	0.15
698.473	0.14
698.794	0.14
699.114	0.14
699.435	0.14
699.756	0.14
700.077	0.14
700.397	0.14
700.718	0.14
701.038	0.14
701.359	0.14
701.679	0.14
701.999	0.14
702.32	0.14
702.64	0.14
702.96	0.14
703.28	0.13
703.6	0.13
703.92	0.13
704.24	0.13
704.56	0.13
704.879	0.13
705.199	0.13
705.519	0.13
705.838	0.13
706.158	0.12
706.478	0.12
706.797	0.12
707.116	0.12
707.436	0.12
707.755	0.12
708.074	0.12
708.393	0.12
708.712	0.11
709.031	0.11
709.35	0.11
709.669	0.11
709.988	0.11
710.307	0.11
710.626	0.12
710.944	0.12
711.263	0.12
711.582	0.12
711.9	0.12
712.219	0.12
712.537	0.12
712.855	0.12
713.174	0.12
713.492	0.12
713.81	0.12
714.128	0.12
714.446	0.12
714.764	0.11
715.082	0.11
715.4	0.12
715.718	0.12
716.035	0.11
716.353	0.11
716.671	0.11
716.988	0.11
717.306	0.11
717.623	0.12
717.941	0.12
718.258	0.12
718.575	0.12
718.893	0.12
719.21	0.12
719.527	0.12
719.844	0.12
720.161	0.12
720.478	0.12
720.795	0.12
721.112	0.12
721.428	0.12
721.745	0.12
722.062	0.12
722.378	0.12
722.695	0.12
723.011	0.12
723.328	0.12
723.644	0.13
723.96	0.12
724.276	0.13
724.593	0.13
724.909	0.13
725.225	0.13
725.541	0.13
725.857	0.13
726.173	0.13
726.488	0.13
726.804	0.13
727.12	0.13
727.435	0.13
727.751	0.13
728.067	0.13
728.382	0.13
728.697	0.13
729.013	0.13
729.328	0.13
729.643	0.13
729.958	0.13
730.273	0.13
730.588	0.13
730.903	0.13
731.218	0.14
731.533	0.13
731.848	0.13
732.163	0.13
732.477	0.13
732.792	0.13
733.107	0.13
733.421	0.13
733.736	0.13
734.05	0.13
734.364	0.13
734.678	0.13
734.993	0.13
735.307	0.13
735.621	0.12
735.935	0.12
736.249	0.12
736.563	0.12
736.877	0.13
737.19	0.13
737.504	0.13
737.818	0.13
738.131	0.13
738.445	0.13
738.758	0.13
739.072	0.13
739.385	0.13
739.698	0.13
740.012	0.13
740.325	0.12
740.638	0.12
740.951	0.12
741.264	0.12
741.577	0.12
741.89	0.12
742.203	0.12
742.515	0.12
742.828	0.12
743.141	0.12
743.453	0.12
743.766	0.11
744.078	0.11
744.391	0.11
744.703	0.11
745.015	0.11
745.327	0.11
745.639	0.11
745.952	0.11
746.264	0.11
746.575	0.11
746.887	0.11
747.199	0.11
747.511	0.11
747.823	0.11
748.134	0.11
748.446	0.1
748.757	0.11
749.069	0.1
749.38	0.1
749.692	0.1
750.003	0.1
750.314	0.1
750.625	0.1
750.936	0.1
751.248	0.1
751.559	0.1
751.869	0.09
752.18	0.09
752.491	0.09
752.802	0.09
753.112	0.09
753.423	0.09
753.734	0.09
754.044	0.09
754.355	0.09
754.665	0.08
754.975	0.09
755.285	0.08
755.596	0.08
755.906	0.08
756.216	0.08
756.526	0.08
756.836	0.08
757.146	0.08
757.455	0.08
757.765	0.08
758.075	0.07
758.385	0.07
758.694	0.07
759.004	0.07
759.313	0.07
759.622	0.07
759.932	0.07
760.241	0.07
760.55	0.06
760.859	0.06
761.168	0.06
761.477	0.06
761.786	0.06
762.095	0.06
762.404	0.05
762.713	0.06
763.021	0.06
763.33	0.06
763.639	0.05
763.947	0.05
764.256	0.05
764.564	0.05
764.872	0.05
765.181	0.05
765.489	0.05
765.797	0.05
766.105	0.05
766.413	0.05
766.721	0.05
767.029	0.05
767.337	0.05
767.644	0.05
767.952	0.05
768.26	0.05
768.567	0.05
768.875	0.05
769.182	0.05
769.49	0.05
769.797	0.05
770.104	0.05
770.411	0.05
770.718	0.05
771.026	0.05
771.333	0.05
771.639	0.05
771.946	0.05
772.253	0.05
772.56	0.05
772.867	0.05
773.173	0.05
773.48	0.04
773.786	0.04
774.093	0.04
774.399	0.04
774.705	0.04
775.012	0.04
775.318	0.04
775.624	0.04
775.93	0.04
776.236	0.04
776.542	0.04
776.848	0.04
777.154	0.04
777.459	0.05
777.765	0.05
778.071	0.05
778.376	0.05
778.682	0.04
778.987	0.05
779.292	0.04
779.598	0.05
779.903	0.04
780.208	0.04
780.513	0.04
780.818	0.04
781.123	0.04
781.428	0.04
781.733	0.04
782.038	0.04
782.343	0.04
782.647	0.04
782.952	0.04
783.256	0.04
783.561	0.04
783.865	0.04
784.17	0.04
784.474	0.04
784.778	0.04
785.082	0.04
785.386	0.05
785.69	0.04
785.994	0.04
786.298	0.04
786.602	0.04
786.906	0.04
787.209	0.04
787.513	0.04
787.817	0.05
788.12	0.05
788.424	0.05
788.727	0.05
789.03	0.04
789.333	0.04
789.637	0.04
789.94	0.04
790.243	0.03
790.546	0.04
790.849	0.03
791.152	0.03
791.454	0.03
791.757	0.03
792.06	0.03
792.362	0.03
792.665	0.03
792.967	0.03
793.27	0.03
793.572	0.03
793.874	0.03
794.177	0.03
794.479	0.03
794.781	0.03
795.083	0.03
795.385	0.04
795.687	0.04
795.989	0.03
796.29	0.04
796.592	0.04
796.894	0.04
797.195	0.04
797.497	0.04
797.798	0.04
798.1	0.04
798.401	0.03
798.702	0.03
799.003	0.03
799.304	0.03
799.605	0.03
799.906	0.03
800.207	0.03
800.508	0.03
800.809	0.03
801.11	0.03
801.41	0.03
801.711	0.03
802.011	0.03
802.312	0.03
802.612	0.03
802.913	0.03
803.213	0.03
803.513	0.03
803.813	0.03
804.113	0.03
804.413	0.03
804.713	0.03
805.013	0.03
805.313	0.03
805.613	0.03
805.912	0.03
806.212	0.02
806.511	0.02
806.811	0.03
807.11	0.03
807.41	0.03
807.709	0.03
808.008	0.03
808.307	0.03
808.606	0.03
808.905	0.04
809.204	0.03
809.503	0.03
809.802	0.03
810.101	0.03
810.399	0.03
810.698	0.03
810.997	0.03
811.295	0.04
811.593	0.03
811.892	0.04
812.19	0.04
812.488	0.04
812.786	0.04
813.084	0.03
813.383	0.04
813.68	0.03
813.978	0.03
814.276	0.03
814.574	0.02
814.872	0.03
815.169	0.02
815.467	0.03
815.764	0.03
816.062	0.02
816.359	0.03
816.656	0.02
816.954	0.03
817.251	0.03
817.548	0.02
817.845	0.03
818.142	0.03
818.439	0.03
818.735	0.03
819.032	0.03
819.329	0.03
819.626	0.03
819.922	0.02
820.219	0.03
820.515	0.03
820.811	0.02
821.108	0.02
821.404	0.03
821.7	0.02
821.996	0.03
822.292	0.02
822.588	0.03
822.884	0.03
823.18	0.02
823.475	0.03
823.771	0.03
824.067	0.02
824.362	0.02
824.658	0.03
824.953	0.03
825.249	0.02
825.544	0.02
825.839	0.03
826.134	0.03
826.429	0.03
826.724	0.02
827.019	0.03
827.314	0.02
827.609	0.02
827.904	0.02
828.198	0.02
828.493	0.03
828.787	0.03
829.082	0.02
829.376	0.02
829.671	0.02
829.965	0.01
830.259	0.02
830.553	0.02
830.847	0.02
831.141	0.02
831.435	0.02
831.729	0.02
832.023	0.01
832.317	0.02
832.61	0.02
832.904	0.02
833.197	0.02
833.491	0.02
833.784	0.02
834.077	0.02
834.371	0.03
834.664	0.02
834.957	0.03
835.25	0.03
835.543	0.03
835.836	0.03
836.129	0.03
836.421	0.02
836.714	0.02
837.007	0.03
837.299	0.02
837.592	0.02
837.884	0.02
838.177	0.01
838.469	0.02
838.761	0.02
839.053	0.01
839.345	0.01
839.637	0.02
839.929	0.02
840.221	0.03
840.513	0.03
840.805	0.03
841.096	0.02
841.388	0.02
841.68	0.02
841.971	0.02
842.262	0.02
842.554	0.02
842.845	0.02
843.136	0.03
843.427	0.02
843.718	0.02
844.009	0.02
844.3	0.02
844.591	0.02
844.882	0.02
845.173	0.02
845.463	0.02
845.754	0.02
846.044	0.02
846.335	0.02
846.625	0.02
846.915	0.02
847.206	0.01
847.496	0.01
847.786	0.02
848.076	0.01
848.366	0.01
848.656	0.01
848.945	0.01
849.235	0.01
849.525	0.01
849.814	0.02
850.104	0.01
850.393	0.02
850.683	0.02
850.972	0.02
851.261	0.01
851.551	0.02
851.84	0.03
852.129	0.01
852.418	0.01
852.707	0.01
852.995	0.01
853.284	0.02
853.573	0.02
853.862	0.02
854.15	0.02
854.439	0.02
854.727	0.02
855.015	0.02
855.304	0
855.592	-0
855.88	0.01
856.168	-0.01
856.456	0.01
856.744	0.01
857.032	-0.01
857.32	0
857.607	0
857.895	-0
858.183	0
858.47	0.02
858.757	-0
859.045	0.02
859.332	0
859.619	0.02
859.907	0.02
860.194	-0
860.481	0
860.768	0
861.054	-0.01
861.341	0.01
861.628	-0.01
861.915	0
862.201	0.03
862.488	-0.02
862.774	0
863.061	0.01
863.347	0.01
863.633	-0
863.919	0
864.205	-0
864.491	-0
864.777	0
865.063	0.02
865.349	0.02
865.635	-0.01
865.92	0.03
866.206	-0.01
866.492	-0
866.777	-0.02
867.062	-0.01
867.348	-0.05
867.633	0.02
867.918	-0.01
868.203	-0.02
868.488	-0.04
868.773	-0
869.058	-0.06
869.343	-0.05
869.628	-0.02
869.912	-0.01
870.197	-0.01
870.482	-0.01
870.766	-0
871.05	0.04
871.335	-0.03
871.619	-0.01
871.903	-0.01
872.187	-0.01
872.471	-0.06
872.755	-0.08
873.039	-0.08
873.323	-0.05
873.607	0.03
873.89	-0.04
874.174	-0.04
874.458	-0.06
874.741	-0.01
875.024	-0.07
875.308	-0
875.591	-0.06
875.874	-0
876.157	-0.02
876.44	-0.06
876.723	-0.02
877.006	-0
877.289	-0.07
877.572	-0.06
877.854	0.03
878.137	-0.09
878.42	0.06
878.702	-0.09
878.984	-0
879.267	-0.1
879.549	0
879.831	-0.07
880.113	0.03
880.395	-0.01
880.677	-0.15
880.959	-0.03
