Data from Rubpy_EV_900_EDTA_Buffered_Absorbance_13-42-25-666.txt Node
Date: Tue Jun 30 13:42:25 BST 2026
User: fpm-admin
Spectrometer: OFX00224
Trigger mode: 0
Integration Time (sec): 7.000000E-2
Scans to average: 3
Nonlinearity correction enabled: false
Boxcar width: 0
Storing dark spectrum: false
XAxis mode: Wavelengths
Number of Pixels in Spectrum: 2136
>>>>>Begin Spectral Data<<<<<
154.91	-0.37
155.289	-0.6
155.669	-0
156.048	-0
156.428	-0.54
156.807	-0
157.186	-0
157.566	-0
157.945	-0.27
158.325	0.07
158.704	-0.4
159.083	0.39
159.462	0.32
159.842	0.29
160.221	0.9
160.6	0.18
160.979	-0.24
161.359	-0
161.738	-0.3
162.117	-0.11
162.496	-0.36
162.875	-1.4
163.254	-0.5
163.633	-0.04
164.012	-0
164.391	-0.28
164.77	-0.41
165.149	-0.21
165.528	-0
165.907	1.32
166.286	-0
166.665	-1.11
167.044	-0
167.423	-0.18
167.802	-0
168.181	-0.15
168.559	-0
168.938	-0
169.317	-0
169.696	-0
170.074	-0
170.453	-0.23
170.832	-0
171.21	0.27
171.589	-0
171.968	-0
172.346	-1.08
172.725	0.78
173.103	-0
173.482	-0.16
173.861	-0.15
174.239	-0
174.617	0.37
174.996	-0
175.374	-0.07
175.753	0.02
176.131	0.62
176.51	0.1
176.888	-0
177.266	-0
177.645	0.12
178.023	0.36
178.401	-0.24
178.779	0.15
179.158	-0
179.536	-0.07
179.914	-0.3
180.292	-0.73
180.67	-0
181.048	-0
181.427	0.05
181.805	-0
182.183	-0
182.561	-0
182.939	-0
183.317	-0
183.695	-0.03
184.073	-0.99
184.451	-0.44
184.829	-0
185.206	-0
185.584	-0.83
185.962	0.09
186.34	-0.58
186.718	0.08
187.096	0.32
187.473	0.31
187.851	-0.31
188.229	-0
188.607	0.05
188.984	0.15
189.362	0.03
189.74	0.05
190.117	-0.01
190.495	0.11
190.872	0.03
191.25	0.05
191.627	0.14
192.005	0
192.382	0.08
192.76	0.15
193.137	0.11
193.515	0.14
193.892	0.04
194.269	0.12
194.647	0.15
195.024	0.05
195.401	0.13
195.779	0.11
196.156	0.13
196.533	0.13
196.91	0.19
197.288	0.15
197.665	0.06
198.042	0.04
198.419	0.13
198.796	0.11
199.173	0.09
199.55	0.11
199.927	0.12
200.304	0.1
200.681	0.09
201.058	0.07
201.435	0.09
201.812	0.1
202.189	0.12
202.566	0.08
202.943	0.07
203.32	0.1
203.697	0.13
204.073	0.09
204.45	0.08
204.827	0.08
205.204	0.06
205.58	0.13
205.957	0.16
206.334	0.12
206.71	0.1
207.087	0.03
207.464	0.08
207.84	0.09
208.217	0.12
208.593	0.07
208.97	0.21
209.346	0.12
209.723	0.12
210.099	0.12
210.476	0.09
210.852	0.1
211.228	0.07
211.605	0.03
211.981	0.14
212.357	0.05
212.733	0.14
213.11	0.1
213.486	-0
213.862	0.15
214.238	0.14
214.614	0.15
214.991	0.19
215.367	0.14
215.743	0.13
216.119	0.03
216.495	0.05
216.871	0.1
217.247	0.14
217.623	0.19
217.999	-0.06
218.375	0.08
218.751	-0.01
219.127	0.1
219.502	0.12
219.878	0.13
220.254	0.19
220.63	0.08
221.006	0.12
221.381	0.14
221.757	0.12
222.133	0.11
222.508	0.13
222.884	0.2
223.26	0.19
223.635	0.12
224.011	0.01
224.386	0.06
224.762	0.2
225.137	0.15
225.513	0.02
225.888	0.1
226.264	0.17
226.639	0.08
227.014	0.16
227.39	0.03
227.765	0.07
228.14	0.07
228.516	0.05
228.891	0.21
229.266	0.18
229.641	0.04
230.017	0.13
230.392	0.11
230.767	0.13
231.142	0.15
231.517	0.12
231.892	0.03
232.267	0.11
232.642	0.08
233.017	0.01
233.392	0.15
233.767	0.14
234.142	0.13
234.517	0.07
234.892	0.05
235.267	0.06
235.641	0.11
236.016	0.16
236.391	0.1
236.766	0.12
237.14	0.06
237.515	0.14
237.89	0.13
238.264	0.09
238.639	0.15
239.014	0.1
239.388	0.2
239.763	0.14
240.137	0.14
240.512	0.02
240.886	0.03
241.261	0.06
241.635	0.15
242.009	0.1
242.384	0.14
242.758	0.09
243.132	0.11
243.507	0.14
243.881	0.2
244.255	0.08
244.629	0.15
245.004	0.11
245.378	0.07
245.752	0.1
246.126	0.08
246.5	0.08
246.874	0.12
247.248	0.12
247.622	0.08
247.996	0.07
248.37	0.25
248.744	0.13
249.118	0.18
249.492	0.13
249.866	0.06
250.24	0.02
250.613	0.09
250.987	0.04
251.361	0.12
251.735	0.12
252.108	0.04
252.482	0.15
252.856	0.06
253.229	0.09
253.603	0.14
253.977	0.12
254.35	0.28
254.724	0.17
255.097	0.05
255.471	0.09
255.844	0.16
256.218	0.17
256.591	0.14
256.964	0.11
257.338	0.18
257.711	0.1
258.084	0.08
258.458	0.15
258.831	0.14
259.204	0.11
259.577	0.07
259.95	0.16
260.323	0.17
260.697	0.21
261.07	0.16
261.443	0.1
261.816	0.13
262.189	0.07
262.562	0.19
262.935	0.08
263.308	0.14
263.68	0.12
264.053	0.15
264.426	0.17
264.799	0.09
265.172	0.17
265.545	0.15
265.917	0.11
266.29	0.15
266.663	0.15
267.035	0.11
267.408	0.07
267.781	0.11
268.153	0.1
268.526	0.15
268.898	0.17
269.271	0.12
269.643	0.07
270.016	0.17
270.388	0.1
270.76	0.16
271.133	0.16
271.505	0.17
271.877	0.14
272.25	0.17
272.622	0.14
272.994	0.1
273.366	0.09
273.739	0.09
274.111	0.04
274.483	0.18
274.855	0.16
275.227	0.11
275.599	0.1
275.971	0.14
276.343	0.14
276.715	0.17
277.087	0.18
277.459	0.16
277.831	0.1
278.203	0.2
278.574	0.1
278.946	0.17
279.318	0.14
279.69	0.1
280.061	0.04
280.433	0.1
280.805	0.15
281.176	0.12
281.548	0.11
281.92	0.13
282.291	0.17
282.663	0.13
283.034	0.14
283.406	0.16
283.777	0.13
284.148	0.19
284.52	0.14
284.891	0.17
285.262	0.1
285.634	0.21
286.005	0.12
286.376	0.16
286.747	0.16
287.119	0.12
287.49	0.12
287.861	0.08
288.232	0.11
288.603	0.15
288.974	0.15
289.345	0.14
289.716	0.13
290.087	0.17
290.458	0.1
290.829	0.15
291.2	0.15
291.571	0.13
291.941	0.12
292.312	0.18
292.683	0.17
293.054	0.17
293.424	0.09
293.795	0.13
294.166	0.14
294.536	0.24
294.907	0.16
295.277	0.12
295.648	0.09
296.018	0.13
296.389	0.16
296.759	0.11
297.13	0.11
297.5	0.2
297.871	0.09
298.241	0.11
298.611	0.17
298.981	0.14
299.352	0.14
299.722	0.13
300.092	0.09
300.462	0.14
300.832	0.14
301.202	0.13
301.573	0.11
301.943	0.12
302.313	0.09
302.683	0.09
303.053	0.09
303.422	0.11
303.792	0.1
304.162	0.11
304.532	0.11
304.902	0.09
305.272	0.1
305.641	0.11
306.011	0.1
306.381	0.11
306.75	0.1
307.12	0.11
307.49	0.12
307.859	0.11
308.229	0.12
308.598	0.12
308.968	0.13
309.337	0.12
309.707	0.13
310.076	0.12
310.445	0.12
310.815	0.13
311.184	0.13
311.553	0.14
311.923	0.14
312.292	0.13
312.661	0.14
313.03	0.13
313.399	0.13
313.768	0.13
314.137	0.13
314.506	0.14
314.875	0.13
315.244	0.13
315.613	0.13
315.982	0.14
316.351	0.14
316.72	0.14
317.089	0.13
317.458	0.13
317.826	0.13
318.195	0.13
318.564	0.13
318.933	0.13
319.301	0.13
319.67	0.12
320.038	0.13
320.407	0.13
320.775	0.13
321.144	0.12
321.512	0.12
321.881	0.12
322.249	0.12
322.618	0.11
322.986	0.12
323.354	0.11
323.723	0.11
324.091	0.11
324.459	0.11
324.827	0.11
325.195	0.11
325.564	0.1
325.932	0.11
326.3	0.11
326.668	0.11
327.036	0.11
327.404	0.1
327.772	0.11
328.14	0.11
328.508	0.11
328.875	0.11
329.243	0.11
329.611	0.11
329.979	0.11
330.346	0.11
330.714	0.11
331.082	0.11
331.449	0.1
331.817	0.11
332.185	0.11
332.552	0.11
332.92	0.11
333.287	0.12
333.655	0.12
334.022	0.12
334.389	0.11
334.757	0.11
335.124	0.12
335.491	0.11
335.859	0.12
336.226	0.12
336.593	0.13
336.96	0.12
337.327	0.13
337.695	0.13
338.062	0.13
338.429	0.13
338.796	0.13
339.163	0.13
339.53	0.13
339.897	0.14
340.263	0.14
340.63	0.14
340.997	0.14
341.364	0.15
341.731	0.15
342.097	0.15
342.464	0.15
342.831	0.15
343.197	0.16
343.564	0.16
343.931	0.17
344.297	0.16
344.664	0.17
345.03	0.17
345.396	0.17
345.763	0.17
346.129	0.17
346.496	0.18
346.862	0.18
347.228	0.19
347.594	0.19
347.961	0.19
348.327	0.19
348.693	0.2
349.059	0.2
349.425	0.2
349.791	0.2
350.157	0.21
350.523	0.21
350.889	0.22
351.255	0.22
351.621	0.22
351.987	0.23
352.353	0.23
352.719	0.23
353.084	0.24
353.45	0.25
353.816	0.25
354.181	0.25
354.547	0.26
354.913	0.27
355.278	0.27
355.644	0.27
356.009	0.28
356.375	0.3
356.74	0.29
357.106	0.3
357.471	0.3
357.836	0.31
358.202	0.32
358.567	0.32
358.932	0.33
359.297	0.33
359.663	0.34
360.028	0.35
360.393	0.35
360.758	0.35
361.123	0.36
361.488	0.37
361.853	0.37
362.218	0.37
362.583	0.37
362.948	0.38
363.312	0.39
363.677	0.39
364.042	0.4
364.407	0.41
364.772	0.41
365.136	0.42
365.501	0.43
365.865	0.43
366.23	0.44
366.595	0.45
366.959	0.46
367.324	0.47
367.688	0.49
368.052	0.49
368.417	0.5
368.781	0.5
369.145	0.51
369.51	0.51
369.874	0.51
370.238	0.51
370.602	0.52
370.967	0.52
371.331	0.51
371.695	0.51
372.059	0.5
372.423	0.51
372.787	0.51
373.151	0.5
373.515	0.5
373.878	0.5
374.242	0.49
374.606	0.5
374.97	0.5
375.334	0.5
375.697	0.51
376.061	0.5
376.425	0.52
376.788	0.51
377.152	0.52
377.515	0.51
377.879	0.53
378.242	0.53
378.606	0.54
378.969	0.55
379.333	0.55
379.696	0.56
380.059	0.56
380.422	0.57
380.786	0.59
381.149	0.6
381.512	0.61
381.875	0.62
382.238	0.64
382.601	0.65
382.964	0.68
383.327	0.69
383.69	0.71
384.053	0.73
384.416	0.75
384.779	0.76
385.142	0.78
385.504	0.78
385.867	0.79
386.23	0.82
386.593	0.81
386.955	0.82
387.318	0.81
387.68	0.82
388.043	0.81
388.405	0.81
388.768	0.79
389.13	0.79
389.493	0.78
389.855	0.78
390.217	0.78
390.58	0.78
390.942	0.79
391.304	0.79
391.666	0.79
392.028	0.8
392.391	0.82
392.753	0.85
393.115	0.88
393.477	0.89
393.839	0.94
394.201	0.98
394.563	1.02
394.924	1.05
395.286	1.09
395.648	1.12
396.01	1.16
396.371	1.19
396.733	1.2
397.095	1.23
397.456	1.23
397.818	1.24
398.18	1.23
398.541	1.22
398.903	1.19
399.264	1.16
399.625	1.12
399.987	1.09
400.348	1.04
400.709	0.99
401.071	0.94
401.432	0.88
401.793	0.83
402.154	0.77
402.515	0.72
402.876	0.67
403.238	0.62
403.599	0.58
403.96	0.54
404.32	0.51
404.681	0.47
405.042	0.44
405.403	0.4
405.764	0.38
406.125	0.35
406.485	0.33
406.846	0.31
407.207	0.29
407.567	0.27
407.928	0.26
408.288	0.24
408.649	0.23
409.009	0.22
409.37	0.21
409.73	0.2
410.091	0.19
410.451	0.18
410.811	0.17
411.171	0.16
411.532	0.16
411.892	0.15
412.252	0.15
412.612	0.14
412.972	0.14
413.332	0.13
413.692	0.14
414.052	0.13
414.412	0.12
414.772	0.11
415.132	0.11
415.492	0.11
415.851	0.11
416.211	0.11
416.571	0.1
416.931	0.1
417.29	0.1
417.65	0.09
418.009	0.09
418.369	0.09
418.728	0.09
419.088	0.09
419.447	0.09
419.807	0.09
420.166	0.09
420.525	0.09
420.884	0.08
421.244	0.08
421.603	0.08
421.962	0.08
422.321	0.07
422.68	0.07
423.039	0.08
423.398	0.07
423.757	0.07
424.116	0.07
424.475	0.07
424.834	0.07
425.193	0.07
425.551	0.06
425.91	0.07
426.269	0.06
426.628	0.07
426.986	0.07
427.345	0.06
427.703	0.07
428.062	0.06
428.42	0.06
428.779	0.07
429.137	0.07
429.496	0.06
429.854	0.06
430.212	0.06
430.57	0.05
430.929	0.05
431.287	0.05
431.645	0.06
432.003	0.06
432.361	0.06
432.719	0.05
433.077	0.06
433.435	0.05
433.793	0.06
434.151	0.06
434.509	0.06
434.866	0.05
435.224	0.06
435.582	0.06
435.94	0.05
436.297	0.06
436.655	0.05
437.012	0.05
437.37	0.04
437.727	0.04
438.085	0.05
438.442	0.05
438.8	0.05
439.157	0.04
439.514	0.05
439.872	0.04
440.229	0.05
440.586	0.05
440.943	0.04
441.3	0.04
441.657	0.04
442.014	0.04
442.371	0.04
442.728	0.03
443.085	0.04
443.442	0.03
443.799	0.03
444.156	0.03
444.513	0.03
444.869	0.04
445.226	0.03
445.583	0.04
445.939	0.02
446.296	0.03
446.652	0.03
447.009	0.04
447.365	0.03
447.722	0.03
448.078	0.02
448.434	0.03
448.791	0.03
449.147	0.03
449.503	0.02
449.859	0.02
450.215	0.02
450.571	0.02
450.928	0.02
451.284	0.01
451.64	0.02
451.995	0.01
452.351	0.01
452.707	0.01
453.063	0.01
453.419	-0
453.775	0
454.13	0
454.486	-0.01
454.842	-0
455.197	-0.01
455.553	-0.01
455.908	-0.02
456.264	-0.02
456.619	-0.03
456.975	-0.02
457.33	-0.02
457.685	-0.03
458.04	-0.04
458.396	-0.05
458.751	-0.04
459.106	-0.06
459.461	-0.06
459.816	-0.06
460.171	-0.06
460.526	-0.06
460.881	-0.07
461.236	-0.08
461.591	-0.07
461.946	-0.08
462.301	-0.09
462.655	-0.09
463.01	-0.09
463.365	-0.1
463.719	-0.11
464.074	-0.11
464.428	-0.12
464.783	-0.12
465.137	-0.13
465.492	-0.12
465.846	-0.13
466.201	-0.12
466.555	-0.13
466.909	-0.12
467.263	-0.12
467.618	-0.11
467.972	-0.12
468.326	-0.13
468.68	-0.13
469.034	-0.13
469.388	-0.14
469.742	-0.14
470.096	-0.14
470.45	-0.13
470.804	-0.14
471.157	-0.14
471.511	-0.14
471.865	-0.14
472.218	-0.13
472.572	-0.13
472.926	-0.12
473.279	-0.13
473.633	-0.12
473.986	-0.12
474.34	-0.11
474.693	-0.1
475.046	-0.09
475.4	-0.09
475.753	-0.08
476.106	-0.08
476.459	-0.07
476.812	-0.07
477.165	-0.06
477.519	-0.05
477.872	-0.05
478.224	-0.05
478.577	-0.04
478.93	-0.04
479.283	-0.03
479.636	-0.03
479.989	-0.03
480.341	-0.03
480.694	-0.02
481.047	-0.02
481.399	-0.01
481.752	-0.01
482.104	-0
482.457	-0
482.809	0
483.162	-0
483.514	0
483.866	0.01
484.219	0.01
484.571	0.01
484.923	0.01
485.275	0.01
485.627	0.02
485.979	0.02
486.331	0.02
486.683	0.02
487.035	0.02
487.387	0.03
487.739	0.03
488.091	0.04
488.443	0.04
488.794	0.04
489.146	0.04
489.498	0.04
489.849	0.04
490.201	0.04
490.552	0.04
490.904	0.04
491.255	0.04
491.607	0.04
491.958	0.05
492.309	0.05
492.661	0.06
493.012	0.05
493.363	0.05
493.714	0.06
494.065	0.06
494.416	0.06
494.767	0.06
495.118	0.05
495.469	0.06
495.82	0.06
496.171	0.06
496.522	0.07
496.872	0.07
497.223	0.07
497.574	0.07
497.924	0.07
498.275	0.07
498.626	0.07
498.976	0.08
499.327	0.08
499.677	0.08
500.027	0.08
500.378	0.08
500.728	0.08
501.078	0.08
501.428	0.08
501.779	0.09
502.129	0.09
502.479	0.09
502.829	0.09
503.179	0.09
503.529	0.09
503.879	0.1
504.229	0.1
504.578	0.09
504.928	0.1
505.278	0.1
505.628	0.1
505.977	0.1
506.327	0.11
506.676	0.1
507.026	0.1
507.375	0.11
507.725	0.11
508.074	0.11
508.424	0.11
508.773	0.11
509.122	0.11
509.471	0.11
509.82	0.11
510.17	0.11
510.519	0.12
510.868	0.12
511.217	0.11
511.566	0.12
511.915	0.12
512.263	0.12
512.612	0.12
512.961	0.12
513.31	0.12
513.659	0.13
514.007	0.12
514.356	0.13
514.704	0.13
515.053	0.13
515.401	0.13
515.75	0.14
516.098	0.13
516.447	0.14
516.795	0.14
517.143	0.14
517.491	0.14
517.839	0.14
518.188	0.14
518.536	0.14
518.884	0.14
519.232	0.14
519.58	0.14
519.928	0.14
520.275	0.15
520.623	0.15
520.971	0.15
521.319	0.15
521.666	0.15
522.014	0.16
522.362	0.15
522.709	0.15
523.057	0.16
523.404	0.15
523.752	0.16
524.099	0.16
524.446	0.16
524.794	0.17
525.141	0.16
525.488	0.17
525.835	0.17
526.182	0.16
526.529	0.17
526.876	0.17
527.223	0.17
527.57	0.17
527.917	0.17
528.264	0.18
528.611	0.17
528.958	0.17
529.304	0.18
529.651	0.18
529.998	0.18
530.344	0.18
530.691	0.18
531.037	0.18
531.384	0.19
531.73	0.18
532.076	0.19
532.423	0.19
532.769	0.19
533.115	0.2
533.461	0.19
533.807	0.2
534.154	0.2
534.5	0.2
534.846	0.2
535.192	0.2
535.537	0.2
535.883	0.21
536.229	0.21
536.575	0.21
536.921	0.21
537.266	0.21
537.612	0.21
537.957	0.21
538.303	0.21
538.649	0.21
538.994	0.21
539.339	0.22
539.685	0.22
540.03	0.22
540.375	0.22
540.721	0.22
541.066	0.23
541.411	0.23
541.756	0.23
542.101	0.23
542.446	0.23
542.791	0.23
543.136	0.24
543.481	0.24
543.825	0.24
544.17	0.24
544.515	0.24
544.86	0.24
545.204	0.24
545.549	0.24
545.893	0.25
546.238	0.25
546.582	0.25
546.927	0.26
547.271	0.25
547.615	0.26
547.96	0.26
548.304	0.26
548.648	0.27
548.992	0.27
549.336	0.26
549.68	0.26
550.024	0.27
550.368	0.27
550.712	0.27
551.056	0.27
551.4	0.27
551.743	0.27
552.087	0.27
552.431	0.28
552.774	0.28
553.118	0.28
553.462	0.28
553.805	0.28
554.148	0.28
554.492	0.29
554.835	0.29
555.178	0.29
555.522	0.28
555.865	0.29
556.208	0.29
556.551	0.29
556.894	0.29
557.237	0.29
557.58	0.29
557.923	0.29
558.266	0.3
558.609	0.3
558.952	0.3
559.294	0.3
559.637	0.29
559.98	0.3
560.322	0.3
560.665	0.3
561.007	0.3
561.35	0.3
561.692	0.3
562.034	0.3
562.377	0.3
562.719	0.31
563.061	0.31
563.403	0.31
563.745	0.31
564.088	0.3
564.43	0.31
564.772	0.31
565.113	0.31
565.455	0.31
565.797	0.31
566.139	0.32
566.481	0.32
566.822	0.32
567.164	0.31
567.506	0.32
567.847	0.32
568.189	0.32
568.53	0.32
568.872	0.31
569.213	0.32
569.554	0.32
569.895	0.32
570.237	0.32
570.578	0.32
570.919	0.32
571.26	0.31
571.601	0.32
571.942	0.32
572.283	0.32
572.624	0.32
572.965	0.32
573.306	0.32
573.646	0.31
573.987	0.31
574.328	0.32
574.668	0.32
575.009	0.32
575.349	0.32
575.69	0.32
576.03	0.32
576.37	0.32
576.711	0.32
577.051	0.32
577.391	0.32
577.731	0.32
578.072	0.32
578.412	0.32
578.752	0.32
579.092	0.32
579.431	0.31
579.771	0.31
580.111	0.31
580.451	0.31
580.791	0.32
581.13	0.32
581.47	0.32
581.81	0.32
582.149	0.32
582.489	0.32
582.828	0.32
583.167	0.32
583.507	0.3
583.846	0.28
584.185	0.3
584.525	0.31
584.864	0.32
585.203	0.33
585.542	0.33
585.881	0.33
586.22	0.34
586.559	0.33
586.898	0.33
587.236	0.33
587.575	0.33
587.914	0.33
588.252	0.34
588.591	0.34
588.93	0.34
589.268	0.34
589.607	0.34
589.945	0.35
590.283	0.35
590.622	0.35
590.96	0.35
591.298	0.35
591.636	0.35
591.974	0.36
592.313	0.36
592.651	0.37
592.989	0.36
593.326	0.37
593.664	0.37
594.002	0.37
594.34	0.36
594.678	0.36
595.015	0.36
595.353	0.36
595.691	0.37
596.028	0.38
596.366	0.38
596.703	0.38
597.04	0.38
597.378	0.38
597.715	0.38
598.052	0.38
598.389	0.39
598.726	0.39
599.064	0.39
599.401	0.39
599.738	0.39
600.074	0.39
600.411	0.39
600.748	0.39
601.085	0.39
601.422	0.39
601.758	0.39
602.095	0.39
602.432	0.39
602.768	0.39
603.105	0.39
603.441	0.39
603.777	0.4
604.114	0.4
604.45	0.4
604.786	0.4
605.122	0.4
605.459	0.4
605.795	0.39
606.131	0.4
606.467	0.39
606.803	0.39
607.139	0.4
607.474	0.39
607.81	0.39
608.146	0.39
608.482	0.39
608.817	0.39
609.153	0.38
609.488	0.38
609.824	0.38
610.159	0.39
610.495	0.39
610.83	0.39
611.165	0.39
611.5	0.38
611.836	0.38
612.171	0.38
612.506	0.38
612.841	0.38
613.176	0.38
613.511	0.38
613.845	0.38
614.18	0.38
614.515	0.38
614.85	0.38
615.184	0.38
615.519	0.38
615.854	0.38
616.188	0.37
616.523	0.37
616.857	0.37
617.191	0.37
617.526	0.37
617.86	0.37
618.194	0.36
618.528	0.37
618.862	0.37
619.196	0.37
619.53	0.36
619.864	0.37
620.198	0.36
620.532	0.36
620.866	0.36
621.2	0.36
621.533	0.35
621.867	0.36
622.201	0.35
622.534	0.35
622.868	0.35
623.201	0.35
623.534	0.35
623.868	0.35
624.201	0.35
624.534	0.35
624.868	0.35
625.201	0.34
625.534	0.34
625.867	0.34
626.2	0.34
626.533	0.33
626.865	0.34
627.198	0.33
627.531	0.34
627.864	0.33
628.196	0.33
628.529	0.33
628.862	0.33
629.194	0.33
629.527	0.33
629.859	0.32
630.191	0.32
630.524	0.32
630.856	0.31
631.188	0.32
631.52	0.32
631.852	0.31
632.184	0.31
632.516	0.3
632.848	0.3
633.18	0.3
633.512	0.3
633.844	0.3
634.175	0.3
634.507	0.3
634.839	0.29
635.17	0.29
635.502	0.29
635.833	0.29
636.165	0.28
636.496	0.28
636.827	0.28
637.159	0.28
637.49	0.28
637.821	0.28
638.152	0.27
638.483	0.27
638.814	0.26
639.145	0.27
639.476	0.27
639.807	0.26
640.137	0.26
640.468	0.25
640.799	0.26
641.129	0.25
641.46	0.25
641.791	0.25
642.121	0.25
642.451	0.25
642.782	0.25
643.112	0.25
643.442	0.24
643.773	0.24
644.103	0.24
644.433	0.24
644.763	0.24
645.093	0.24
645.423	0.23
645.753	0.23
646.082	0.23
646.412	0.23
646.742	0.23
647.072	0.22
647.401	0.23
647.731	0.23
648.06	0.22
648.39	0.23
648.719	0.23
649.048	0.22
649.378	0.22
649.707	0.22
650.036	0.22
650.365	0.22
650.694	0.22
651.023	0.22
651.352	0.22
651.681	0.22
652.01	0.22
652.339	0.22
652.668	0.22
652.996	0.22
653.325	0.22
653.654	0.22
653.982	0.22
654.311	0.22
654.639	0.22
654.967	0.22
655.296	0.22
655.624	0.22
655.952	0.22
656.28	0.22
656.609	0.21
656.937	0.22
657.265	0.21
657.593	0.19
657.92	0.06
658.248	0.01
658.576	0.01
658.904	0.1
659.231	0.18
659.559	0.21
659.887	0.21
660.214	0.22
660.542	0.21
660.869	0.21
661.196	0.21
661.524	0.21
661.851	0.21
662.178	0.21
662.505	0.21
662.832	0.21
663.159	0.21
663.486	0.21
663.813	0.21
664.14	0.21
664.467	0.21
664.794	0.21
665.12	0.21
665.447	0.21
665.774	0.21
666.1	0.21
666.427	0.21
666.753	0.21
667.079	0.21
667.406	0.2
667.732	0.2
668.058	0.2
668.384	0.2
668.71	0.2
669.036	0.2
669.362	0.2
669.688	0.2
670.014	0.2
670.34	0.2
670.666	0.2
670.991	0.2
671.317	0.2
671.643	0.19
671.968	0.2
672.294	0.19
672.619	0.19
672.945	0.19
673.27	0.19
673.595	0.19
673.92	0.19
674.246	0.19
674.571	0.19
674.896	0.19
675.221	0.18
675.546	0.18
675.87	0.18
676.195	0.18
676.52	0.18
676.845	0.18
677.169	0.18
677.494	0.18
677.819	0.18
678.143	0.18
678.468	0.17
678.792	0.17
679.116	0.17
679.44	0.17
679.765	0.16
680.089	0.16
680.413	0.16
680.737	0.16
681.061	0.16
681.385	0.16
681.709	0.16
682.033	0.16
682.356	0.16
682.68	0.16
683.004	0.16
683.327	0.15
683.651	0.15
683.974	0.15
684.298	0.15
684.621	0.15
684.944	0.14
685.268	0.14
685.591	0.14
685.914	0.14
686.237	0.14
686.56	0.13
686.883	0.13
687.206	0.14
687.529	0.13
687.852	0.13
688.175	0.13
688.497	0.13
688.82	0.13
689.142	0.13
689.465	0.13
689.787	0.13
690.11	0.13
690.432	0.12
690.755	0.12
691.077	0.13
691.399	0.12
691.721	0.12
692.043	0.12
692.365	0.12
692.687	0.12
693.009	0.11
693.331	0.11
693.653	0.11
693.974	0.11
694.296	0.11
694.618	0.11
694.939	0.11
695.261	0.11
695.582	0.11
695.904	0.1
696.225	0.1
696.546	0.1
696.868	0.1
697.189	0.1
697.51	0.1
697.831	0.1
698.152	0.1
698.473	0.1
698.794	0.1
699.114	0.1
699.435	0.1
699.756	0.09
700.077	0.09
700.397	0.09
700.718	0.1
701.038	0.09
701.359	0.09
701.679	0.09
701.999	0.1
702.32	0.09
702.64	0.09
702.96	0.09
703.28	0.09
703.6	0.09
703.92	0.09
704.24	0.09
704.56	0.09
704.879	0.09
705.199	0.09
705.519	0.09
705.838	0.09
706.158	0.08
706.478	0.08
706.797	0.08
707.116	0.08
707.436	0.08
707.755	0.08
708.074	0.08
708.393	0.08
708.712	0.08
709.031	0.08
709.35	0.08
709.669	0.08
709.988	0.08
710.307	0.08
710.626	0.08
710.944	0.08
711.263	0.08
711.582	0.08
711.9	0.08
712.219	0.08
712.537	0.08
712.855	0.08
713.174	0.08
713.492	0.08
713.81	0.08
714.128	0.08
714.446	0.08
714.764	0.08
715.082	0.08
715.4	0.08
715.718	0.08
716.035	0.07
716.353	0.08
716.671	0.07
716.988	0.08
717.306	0.07
717.623	0.08
717.941	0.08
718.258	0.08
718.575	0.08
718.893	0.08
719.21	0.08
719.527	0.08
719.844	0.08
720.161	0.08
720.478	0.08
720.795	0.08
721.112	0.08
721.428	0.08
721.745	0.08
722.062	0.08
722.378	0.08
722.695	0.08
723.011	0.08
723.328	0.08
723.644	0.09
723.96	0.09
724.276	0.09
724.593	0.09
724.909	0.09
725.225	0.09
725.541	0.09
725.857	0.09
726.173	0.09
726.488	0.09
726.804	0.09
727.12	0.09
727.435	0.09
727.751	0.09
728.067	0.09
728.382	0.09
728.697	0.09
729.013	0.09
729.328	0.09
729.643	0.09
729.958	0.09
730.273	0.09
730.588	0.09
730.903	0.09
731.218	0.09
731.533	0.09
731.848	0.09
732.163	0.09
732.477	0.09
732.792	0.09
733.107	0.09
733.421	0.09
733.736	0.09
734.05	0.09
734.364	0.09
734.678	0.09
734.993	0.09
735.307	0.09
735.621	0.09
735.935	0.09
736.249	0.09
736.563	0.09
736.877	0.09
737.19	0.09
737.504	0.09
737.818	0.09
738.131	0.09
738.445	0.09
738.758	0.09
739.072	0.09
739.385	0.08
739.698	0.09
740.012	0.09
740.325	0.09
740.638	0.08
740.951	0.08
741.264	0.08
741.577	0.08
741.89	0.08
742.203	0.08
742.515	0.08
742.828	0.08
743.141	0.08
743.453	0.08
743.766	0.08
744.078	0.08
744.391	0.08
744.703	0.08
745.015	0.08
745.327	0.08
745.639	0.08
745.952	0.08
746.264	0.08
746.575	0.08
746.887	0.08
747.199	0.08
747.511	0.08
747.823	0.08
748.134	0.08
748.446	0.08
748.757	0.08
749.069	0.08
749.38	0.07
749.692	0.07
750.003	0.07
750.314	0.07
750.625	0.07
750.936	0.07
751.248	0.07
751.559	0.07
751.869	0.07
752.18	0.07
752.491	0.07
752.802	0.06
753.112	0.06
753.423	0.06
753.734	0.07
754.044	0.06
754.355	0.06
754.665	0.06
754.975	0.06
755.285	0.06
755.596	0.06
755.906	0.06
756.216	0.06
756.526	0.06
756.836	0.06
757.146	0.06
757.455	0.06
757.765	0.06
758.075	0.05
758.385	0.05
758.694	0.05
759.004	0.05
759.313	0.05
759.622	0.05
759.932	0.05
760.241	0.05
760.55	0.05
760.859	0.04
761.168	0.04
761.477	0.05
761.786	0.04
762.095	0.04
762.404	0.04
762.713	0.04
763.021	0.04
763.33	0.04
763.639	0.04
763.947	0.04
764.256	0.04
764.564	0.04
764.872	0.04
765.181	0.04
765.489	0.04
765.797	0.04
766.105	0.04
766.413	0.04
766.721	0.04
767.029	0.04
767.337	0.04
767.644	0.04
767.952	0.04
768.26	0.04
768.567	0.04
768.875	0.04
769.182	0.04
769.49	0.04
769.797	0.04
770.104	0.04
770.411	0.04
770.718	0.04
771.026	0.04
771.333	0.04
771.639	0.04
771.946	0.03
772.253	0.04
772.56	0.03
772.867	0.03
773.173	0.03
773.48	0.03
773.786	0.03
774.093	0.03
774.399	0.03
774.705	0.03
775.012	0.03
775.318	0.03
775.624	0.03
775.93	0.03
776.236	0.04
776.542	0.03
776.848	0.04
777.154	0.04
777.459	0.04
777.765	0.04
778.071	0.04
778.376	0.04
778.682	0.04
778.987	0.04
779.292	0.03
779.598	0.04
779.903	0.03
780.208	0.03
780.513	0.03
780.818	0.03
781.123	0.03
781.428	0.03
781.733	0.03
782.038	0.03
782.343	0.03
782.647	0.03
782.952	0.03
783.256	0.03
783.561	0.03
783.865	0.03
784.17	0.03
784.474	0.03
784.778	0.03
785.082	0.03
785.386	0.04
785.69	0.04
785.994	0.04
786.298	0.04
786.602	0.04
786.906	0.04
787.209	0.04
787.513	0.04
787.817	0.04
788.12	0.04
788.424	0.04
788.727	0.04
789.03	0.04
789.333	0.03
789.637	0.04
789.94	0.03
790.243	0.03
790.546	0.03
790.849	0.03
791.152	0.02
791.454	0.02
791.757	0.02
792.06	0.02
792.362	0.02
792.665	0.02
792.967	0.02
793.27	0.01
793.572	0.02
793.874	0.02
794.177	0.02
794.479	0.02
794.781	0.02
795.083	0.02
795.385	0.02
795.687	0.02
795.989	0.03
796.29	0.03
796.592	0.03
796.894	0.03
797.195	0.03
797.497	0.03
797.798	0.03
798.1	0.03
798.401	0.03
798.702	0.03
799.003	0.02
799.304	0.03
799.605	0.02
799.906	0.02
800.207	0.02
800.508	0.02
800.809	0.02
801.11	0.02
801.41	0.02
801.711	0.02
802.011	0.02
802.312	0.03
802.612	0.02
802.913	0.03
803.213	0.03
803.513	0.03
803.813	0.02
804.113	0.02
804.413	0.02
804.713	0.02
805.013	0.03
805.313	0.02
805.613	0.02
805.912	0.02
806.212	0.02
806.511	0.02
806.811	0.02
807.11	0.02
807.41	0.03
807.709	0.02
808.008	0.02
808.307	0.02
808.606	0.03
808.905	0.03
809.204	0.02
809.503	0.02
809.802	0.03
810.101	0.02
810.399	0.02
810.698	0.02
810.997	0.02
811.295	0.03
811.593	0.03
811.892	0.03
812.19	0.03
812.488	0.03
812.786	0.02
813.084	0.03
813.383	0.02
813.68	0.02
813.978	0.03
814.276	0.02
814.574	0.02
814.872	0.02
815.169	0.01
815.467	0.02
815.764	0.02
816.062	0.02
816.359	0.02
816.656	0.02
816.954	0.02
817.251	0.02
817.548	0.02
817.845	0.02
818.142	0.02
818.439	0.02
818.735	0.02
819.032	0.02
819.329	0.02
819.626	0.02
819.922	0.02
820.219	0.02
820.515	0.03
820.811	0.02
821.108	0.01
821.404	0.02
821.7	0.01
821.996	0.02
822.292	0.02
822.588	0.02
822.884	0.02
823.18	0.02
823.475	0.01
823.771	0.02
824.067	0.02
824.362	0.01
824.658	0.02
824.953	0.02
825.249	0.01
825.544	0.01
825.839	0.02
826.134	0.02
826.429	0.02
826.724	0.02
827.019	0.02
827.314	0.02
827.609	0.02
827.904	0.02
828.198	0.01
828.493	0.02
828.787	0.01
829.082	0.02
829.376	0.01
829.671	0.02
829.965	0.01
830.259	0.01
830.553	0.01
830.847	0
831.141	0.01
831.435	0.01
831.729	0.01
832.023	0.01
832.317	0.01
832.61	0
832.904	0.01
833.197	0.01
833.491	0.01
833.784	0.01
834.077	0.01
834.371	0.02
834.664	0.02
834.957	0.02
835.25	0.02
835.543	0.02
835.836	0.02
836.129	0.01
836.421	0.02
836.714	0.02
837.007	0.01
837.299	0.01
837.592	0.02
837.884	0.01
838.177	0.01
838.469	0.01
838.761	0.01
839.053	0
839.345	0.01
839.637	0.01
839.929	0.01
840.221	0.02
840.513	0.01
840.805	0.01
841.096	0.02
841.388	0.01
841.68	0.01
841.971	0.02
842.262	0.01
842.554	0.01
842.845	0.02
843.136	0.01
843.427	0.02
843.718	0
844.009	0.01
844.3	0.01
844.591	0
844.882	-0
845.173	0.01
845.463	0.01
845.754	0.01
846.044	0.02
846.335	0.01
846.625	0.02
846.915	0.01
847.206	0.01
847.496	0.02
847.786	0.01
848.076	0.01
848.366	0.01
848.656	0.01
848.945	0.01
849.235	0.01
849.525	0
849.814	0.01
850.104	0.02
850.393	0.01
850.683	0.01
850.972	0.02
851.261	0.02
851.551	0.02
851.84	0.03
852.129	0.02
852.418	0.01
852.707	0.02
852.995	0.02
853.284	0.01
853.573	0.02
853.862	0
854.15	0.01
854.439	-0
854.727	0.01
855.015	0.01
855.304	0.01
855.592	0
855.88	-0.01
856.168	-0
856.456	-0.01
856.744	0
857.032	-0.01
857.32	-0
857.607	0
857.895	-0.02
858.183	-0.01
858.47	0
858.757	0.01
859.045	-0
859.332	0.01
859.619	0.02
859.907	0.01
860.194	-0.01
860.481	0.01
860.768	-0.01
861.054	0
861.341	0
861.628	-0.02
861.915	-0.03
862.201	0.01
862.488	-0.01
862.774	-0
863.061	-0.01
863.347	-0.01
863.633	-0.01
863.919	0.03
864.205	-0.02
864.491	-0.02
864.777	-0.01
865.063	0.01
865.349	0
865.635	-0
865.92	-0
866.206	-0.03
866.492	0.01
866.777	-0.03
867.062	-0.03
867.348	-0.04
867.633	0.02
867.918	0.02
868.203	-0.02
868.488	-0.03
868.773	-0.02
869.058	-0.05
869.343	-0.06
869.628	-0.02
869.912	-0.01
870.197	-0.03
870.482	-0.01
870.766	0.01
871.05	-0.01
871.335	-0.04
871.619	-0.05
871.903	0.03
872.187	-0.02
872.471	-0.02
872.755	-0.07
873.039	-0.07
873.323	-0.05
873.607	-0.01
873.89	-0.01
874.174	-0.05
874.458	-0.05
874.741	0.01
875.024	-0.08
875.308	0.06
875.591	0.01
875.874	0.01
876.157	-0.04
876.44	-0.05
876.723	-0.03
877.006	0.02
877.289	-0.08
877.572	-0.02
877.854	-0.02
878.137	-0.01
878.42	0.03
878.702	-0.01
878.984	-0.04
879.267	-0.03
879.549	-0.02
879.831	-0.13
880.113	-0.17
880.395	-0.08
880.677	-0.2
880.959	-0.02
