Data from Rubpy_EV_900_EDTA_Buffered_Absorbance_13-47-08-643.txt Node
Date: Tue Jun 30 13:47:08 BST 2026
User: fpm-admin
Spectrometer: OFX00224
Trigger mode: 0
Integration Time (sec): 7.000000E-2
Scans to average: 3
Nonlinearity correction enabled: false
Boxcar width: 0
Storing dark spectrum: false
XAxis mode: Wavelengths
Number of Pixels in Spectrum: 2136
>>>>>Begin Spectral Data<<<<<
154.91	0.43
155.289	-1.52
155.669	0.06
156.048	-0.26
156.428	-0
156.807	-0
157.186	-0.02
157.566	-0
157.945	0.14
158.325	-0.36
158.704	-0
159.083	0.56
159.462	0.41
159.842	0.76
160.221	-0.46
160.6	-0.25
160.979	-0
161.359	-0
161.738	-0.43
162.117	-0.13
162.496	-0
162.875	-0
163.254	-0.23
163.633	-0
164.012	-1.23
164.391	0.35
164.77	-0
165.149	0.08
165.528	0.48
165.907	-0
166.286	-0
166.665	-0
167.044	-0
167.423	0.38
167.802	-0.64
168.181	-0
168.559	-0
168.938	-0
169.317	0.27
169.696	-0
170.074	-0.24
170.453	-0
170.832	-0
171.21	0.07
171.589	-0.35
171.968	-0
172.346	-0
172.725	0.58
173.103	-0
173.482	-0
173.861	-0
174.239	-0.17
174.617	-0
174.996	-0.74
175.374	-0
175.753	-0.36
176.131	-0
176.51	-0.47
176.888	-0
177.266	-0
177.645	-0.05
178.023	0.53
178.401	-0.07
178.779	-0.05
179.158	-0
179.536	-0.07
179.914	-0.33
180.292	-0
180.67	0.51
181.048	-0
181.427	-0
181.805	-0.45
182.183	-1.34
182.561	0.48
182.939	-0.42
183.317	-0.46
183.695	0.2
184.073	-0
184.451	-0
184.829	-0.14
185.206	-0.22
185.584	-0.63
185.962	0.45
186.34	-0
186.718	-0
187.096	0.1
187.473	0.09
187.851	-0.07
188.229	-0
188.607	0.13
188.984	0.22
189.362	0.21
189.74	0.14
190.117	0.1
190.495	0.2
190.872	0.25
191.25	0.19
191.627	0.22
192.005	0.01
192.382	0.12
192.76	0.23
193.137	0.1
193.515	0.14
193.892	0.21
194.269	0.23
194.647	0.13
195.024	0.14
195.401	0.28
195.779	0.18
196.156	0.16
196.533	0.1
196.91	0.16
197.288	0.23
197.665	0.11
198.042	0.25
198.419	0.02
198.796	0.4
199.173	0.14
199.55	0.31
199.927	0.26
200.304	0.19
200.681	0.18
201.058	0.11
201.435	0.38
201.812	0.29
202.189	0.15
202.566	0.22
202.943	0.11
203.32	0.17
203.697	0.11
204.073	0.17
204.45	0.19
204.827	0.08
205.204	0.16
205.58	0.14
205.957	0.23
206.334	0.12
206.71	0.24
207.087	0.18
207.464	0.31
207.84	0.08
208.217	0.13
208.593	0.3
208.97	0.21
209.346	0.13
209.723	0.15
210.099	0.12
210.476	0.09
210.852	0.07
211.228	0.11
211.605	0.15
211.981	0.14
212.357	0.12
212.733	0.11
213.11	0.13
213.486	0.08
213.862	0.22
214.238	0.17
214.614	0.19
214.991	0.2
215.367	0.22
215.743	0.16
216.119	0.13
216.495	0.15
216.871	0.2
217.247	0.27
217.623	0.28
217.999	0.09
218.375	0.31
218.751	0.09
219.127	0.04
219.502	0.11
219.878	0.13
220.254	0.16
220.63	0.14
221.006	0.07
221.381	0.16
221.757	0.12
222.133	0.08
222.508	0.25
222.884	0.15
223.26	0.24
223.635	0.2
224.011	0.17
224.386	0.08
224.762	0.15
225.137	0.23
225.513	0.16
225.888	0.18
226.264	0.18
226.639	0.17
227.014	0.23
227.39	0.22
227.765	0.25
228.14	0.25
228.516	0.14
228.891	0.15
229.266	0.19
229.641	0.13
230.017	0.14
230.392	0.16
230.767	0.13
231.142	0.16
231.517	0.18
231.892	0.16
232.267	0.18
232.642	0.15
233.017	0.08
233.392	0.13
233.767	0.18
234.142	0.22
234.517	0.2
234.892	0.12
235.267	0.17
235.641	0.15
236.016	0.21
236.391	0.22
236.766	0.13
237.14	0.15
237.515	0.2
237.89	0.23
238.264	0.2
238.639	0.21
239.014	0.16
239.388	0.18
239.763	0.15
240.137	0.22
240.512	0.15
240.886	0.15
241.261	0.19
241.635	0.22
242.009	0.23
242.384	0.27
242.758	0.26
243.132	0.14
243.507	0.26
243.881	0.21
244.255	0.19
244.629	0.24
245.004	0.18
245.378	0.19
245.752	0.14
246.126	0.18
246.5	0.1
246.874	0.16
247.248	0.22
247.622	0.14
247.996	0.15
248.37	0.27
248.744	0.28
249.118	0.24
249.492	0.2
249.866	0.23
250.24	0.16
250.613	0.15
250.987	0.14
251.361	0.17
251.735	0.2
252.108	0.19
252.482	0.19
252.856	0.07
253.229	0.15
253.603	0.18
253.977	0.3
254.35	0.4
254.724	0.14
255.097	0.12
255.471	0.23
255.844	0.17
256.218	0.14
256.591	0.14
256.964	0.12
257.338	0.21
257.711	0.16
258.084	0.08
258.458	0.18
258.831	0.14
259.204	0.19
259.577	0.24
259.95	0.15
260.323	0.13
260.697	0.15
261.07	0.23
261.443	0.21
261.816	0.28
262.189	0.14
262.562	0.4
262.935	0.2
263.308	0.22
263.68	0.21
264.053	0.22
264.426	0.13
264.799	0.2
265.172	0.25
265.545	0.19
265.917	0.15
266.29	0.21
266.663	0.19
267.035	0.18
267.408	0.14
267.781	0.19
268.153	0.19
268.526	0.33
268.898	0.24
269.271	0.16
269.643	0.22
270.016	0.17
270.388	0.23
270.76	0.19
271.133	0.28
271.505	0.22
271.877	0.14
272.25	0.19
272.622	0.17
272.994	0.25
273.366	0.14
273.739	0.14
274.111	0.09
274.483	0.25
274.855	0.19
275.227	0.21
275.599	0.14
275.971	0.29
276.343	0.16
276.715	0.19
277.087	0.19
277.459	0.17
277.831	0.17
278.203	0.3
278.574	0.11
278.946	0.19
279.318	0.24
279.69	0.14
280.061	0.1
280.433	0.13
280.805	0.21
281.176	0.13
281.548	0.23
281.92	0.23
282.291	0.16
282.663	0.15
283.034	0.23
283.406	0.17
283.777	0.19
284.148	0.23
284.52	0.16
284.891	0.17
285.262	0.19
285.634	0.25
286.005	0.19
286.376	0.21
286.747	0.18
287.119	0.15
287.49	0.22
287.861	0.19
288.232	0.13
288.603	0.29
288.974	0.25
289.345	0.18
289.716	0.23
290.087	0.18
290.458	0.22
290.829	0.24
291.2	0.14
291.571	0.16
291.941	0.14
292.312	0.2
292.683	0.21
293.054	0.22
293.424	0.24
293.795	0.17
294.166	0.2
294.536	0.27
294.907	0.21
295.277	0.17
295.648	0.13
296.018	0.19
296.389	0.18
296.759	0.12
297.13	0.15
297.5	0.19
297.871	0.15
298.241	0.14
298.611	0.22
298.981	0.13
299.352	0.15
299.722	0.21
300.092	0.16
300.462	0.2
300.832	0.18
301.202	0.15
301.573	0.15
301.943	0.16
302.313	0.14
302.683	0.12
303.053	0.14
303.422	0.14
303.792	0.13
304.162	0.13
304.532	0.17
304.902	0.14
305.272	0.13
305.641	0.15
306.011	0.15
306.381	0.14
306.75	0.14
307.12	0.14
307.49	0.15
307.859	0.15
308.229	0.15
308.598	0.16
308.968	0.16
309.337	0.15
309.707	0.16
310.076	0.17
310.445	0.17
310.815	0.17
311.184	0.17
311.553	0.17
311.923	0.18
312.292	0.18
312.661	0.18
313.03	0.18
313.399	0.17
313.768	0.18
314.137	0.18
314.506	0.18
314.875	0.16
315.244	0.18
315.613	0.18
315.982	0.18
316.351	0.17
316.72	0.17
317.089	0.17
317.458	0.17
317.826	0.17
318.195	0.17
318.564	0.17
318.933	0.17
319.301	0.17
319.67	0.17
320.038	0.17
320.407	0.17
320.775	0.17
321.144	0.16
321.512	0.16
321.881	0.16
322.249	0.15
322.618	0.15
322.986	0.16
323.354	0.15
323.723	0.15
324.091	0.15
324.459	0.15
324.827	0.15
325.195	0.14
325.564	0.14
325.932	0.15
326.3	0.14
326.668	0.15
327.036	0.15
327.404	0.13
327.772	0.15
328.14	0.14
328.508	0.14
328.875	0.15
329.243	0.14
329.611	0.15
329.979	0.14
330.346	0.15
330.714	0.14
331.082	0.15
331.449	0.14
331.817	0.15
332.185	0.15
332.552	0.15
332.92	0.15
333.287	0.15
333.655	0.16
334.022	0.16
334.389	0.16
334.757	0.16
335.124	0.16
335.491	0.15
335.859	0.16
336.226	0.16
336.593	0.17
336.96	0.17
337.327	0.17
337.695	0.17
338.062	0.17
338.429	0.18
338.796	0.18
339.163	0.18
339.53	0.18
339.897	0.18
340.263	0.19
340.63	0.19
340.997	0.19
341.364	0.2
341.731	0.2
342.097	0.2
342.464	0.2
342.831	0.21
343.197	0.21
343.564	0.22
343.931	0.22
344.297	0.22
344.664	0.22
345.03	0.23
345.396	0.24
345.763	0.23
346.129	0.23
346.496	0.24
346.862	0.25
347.228	0.25
347.594	0.25
347.961	0.25
348.327	0.26
348.693	0.26
349.059	0.27
349.425	0.27
349.791	0.27
350.157	0.28
350.523	0.29
350.889	0.29
351.255	0.3
351.621	0.3
351.987	0.31
352.353	0.31
352.719	0.32
353.084	0.33
353.45	0.32
353.816	0.34
354.181	0.34
354.547	0.35
354.913	0.36
355.278	0.36
355.644	0.37
356.009	0.38
356.375	0.4
356.74	0.4
357.106	0.4
357.471	0.41
357.836	0.42
358.202	0.43
358.567	0.44
358.932	0.44
359.297	0.45
359.663	0.46
360.028	0.46
360.393	0.47
360.758	0.48
361.123	0.48
361.488	0.49
361.853	0.49
362.218	0.5
362.583	0.5
362.948	0.51
363.312	0.52
363.677	0.52
364.042	0.53
364.407	0.54
364.772	0.55
365.136	0.56
365.501	0.57
365.865	0.58
366.23	0.59
366.595	0.61
366.959	0.62
367.324	0.63
367.688	0.64
368.052	0.65
368.417	0.65
368.781	0.67
369.145	0.68
369.51	0.69
369.874	0.69
370.238	0.68
370.602	0.69
370.967	0.69
371.331	0.68
371.695	0.68
372.059	0.67
372.423	0.67
372.787	0.67
373.151	0.66
373.515	0.66
373.878	0.66
374.242	0.66
374.606	0.66
374.97	0.67
375.334	0.67
375.697	0.67
376.061	0.67
376.425	0.68
376.788	0.68
377.152	0.68
377.515	0.69
377.879	0.7
378.242	0.71
378.606	0.71
378.969	0.73
379.333	0.73
379.696	0.74
380.059	0.75
380.422	0.76
380.786	0.77
381.149	0.78
381.512	0.8
381.875	0.83
382.238	0.84
382.601	0.86
382.964	0.89
383.327	0.91
383.69	0.93
384.053	0.95
384.416	0.98
384.779	1
385.142	1.01
385.504	1.03
385.867	1.05
386.23	1.07
386.593	1.07
386.955	1.07
387.318	1.07
387.68	1.06
388.043	1.06
388.405	1.05
388.768	1.05
389.13	1.03
389.493	1.03
389.855	1.03
390.217	1.02
390.58	1.03
390.942	1.02
391.304	1.04
391.666	1.05
392.028	1.06
392.391	1.08
392.753	1.11
393.115	1.14
393.477	1.18
393.839	1.23
394.201	1.26
394.563	1.32
394.924	1.37
395.286	1.41
395.648	1.45
396.01	1.48
396.371	1.52
396.733	1.54
397.095	1.58
397.456	1.57
397.818	1.56
398.18	1.54
398.541	1.54
398.903	1.51
399.264	1.46
399.625	1.43
399.987	1.4
400.348	1.35
400.709	1.27
401.071	1.21
401.432	1.15
401.793	1.08
402.154	1.01
402.515	0.95
402.876	0.88
403.238	0.81
403.599	0.76
403.96	0.7
404.32	0.66
404.681	0.61
405.042	0.57
405.403	0.53
405.764	0.49
406.125	0.46
406.485	0.42
406.846	0.4
407.207	0.38
407.567	0.36
407.928	0.34
408.288	0.32
408.649	0.31
409.009	0.29
409.37	0.27
409.73	0.26
410.091	0.24
410.451	0.24
410.811	0.22
411.171	0.21
411.532	0.21
411.892	0.19
412.252	0.2
412.612	0.19
412.972	0.18
413.332	0.17
413.692	0.17
414.052	0.17
414.412	0.16
414.772	0.15
415.132	0.15
415.492	0.15
415.851	0.14
416.211	0.14
416.571	0.13
416.931	0.13
417.29	0.12
417.65	0.12
418.009	0.12
418.369	0.12
418.728	0.11
419.088	0.11
419.447	0.11
419.807	0.11
420.166	0.11
420.525	0.11
420.884	0.11
421.244	0.11
421.603	0.1
421.962	0.1
422.321	0.1
422.68	0.09
423.039	0.1
423.398	0.1
423.757	0.09
424.116	0.09
424.475	0.09
424.834	0.09
425.193	0.09
425.551	0.09
425.91	0.09
426.269	0.08
426.628	0.09
426.986	0.09
427.345	0.08
427.703	0.09
428.062	0.08
428.42	0.08
428.779	0.08
429.137	0.08
429.496	0.07
429.854	0.08
430.212	0.08
430.57	0.07
430.929	0.07
431.287	0.06
431.645	0.07
432.003	0.07
432.361	0.07
432.719	0.07
433.077	0.07
433.435	0.06
433.793	0.07
434.151	0.07
434.509	0.07
434.866	0.07
435.224	0.07
435.582	0.07
435.94	0.06
436.297	0.07
436.655	0.07
437.012	0.06
437.37	0.06
437.727	0.06
438.085	0.07
438.442	0.06
438.8	0.06
439.157	0.06
439.514	0.05
439.872	0.06
440.229	0.07
440.586	0.06
440.943	0.05
441.3	0.06
441.657	0.05
442.014	0.06
442.371	0.06
442.728	0.05
443.085	0.05
443.442	0.05
443.799	0.05
444.156	0.04
444.513	0.05
444.869	0.05
445.226	0.05
445.583	0.05
445.939	0.04
446.296	0.04
446.652	0.04
447.009	0.05
447.365	0.04
447.722	0.04
448.078	0.03
448.434	0.04
448.791	0.04
449.147	0.03
449.503	0.03
449.859	0.03
450.215	0.03
450.571	0.03
450.928	0.02
451.284	0.02
451.64	0.02
451.995	0.02
452.351	0.02
452.707	0.02
453.063	0.01
453.419	0.02
453.775	0.01
454.13	0.01
454.486	0.01
454.842	0
455.197	0
455.553	-0
455.908	0
456.264	-0
456.619	-0.02
456.975	-0.03
457.33	-0.01
457.685	-0.02
458.04	-0.03
458.396	-0.03
458.751	-0.03
459.106	-0.04
459.461	-0.04
459.816	-0.05
460.171	-0.05
460.526	-0.05
460.881	-0.05
461.236	-0.07
461.591	-0.07
461.946	-0.08
462.301	-0.08
462.655	-0.08
463.01	-0.08
463.365	-0.09
463.719	-0.1
464.074	-0.09
464.428	-0.1
464.783	-0.11
465.137	-0.12
465.492	-0.12
465.846	-0.12
466.201	-0.11
466.555	-0.12
466.909	-0.12
467.263	-0.11
467.618	-0.11
467.972	-0.11
468.326	-0.11
468.68	-0.12
469.034	-0.12
469.388	-0.13
469.742	-0.13
470.096	-0.13
470.45	-0.13
470.804	-0.12
471.157	-0.13
471.511	-0.13
471.865	-0.12
472.218	-0.13
472.572	-0.12
472.926	-0.11
473.279	-0.12
473.633	-0.11
473.986	-0.11
474.34	-0.1
474.693	-0.09
475.046	-0.08
475.4	-0.07
475.753	-0.07
476.106	-0.07
476.459	-0.06
476.812	-0.06
477.165	-0.04
477.519	-0.04
477.872	-0.03
478.224	-0.03
478.577	-0.02
478.93	-0.03
479.283	-0.02
479.636	-0.02
479.989	-0.01
480.341	-0.01
480.694	-0.01
481.047	-0.01
481.399	-0
481.752	0
482.104	0.01
482.457	0.01
482.809	0.02
483.162	0.01
483.514	0.02
483.866	0.03
484.219	0.03
484.571	0.03
484.923	0.03
485.275	0.03
485.627	0.03
485.979	0.04
486.331	0.03
486.683	0.04
487.035	0.04
487.387	0.04
487.739	0.05
488.091	0.06
488.443	0.06
488.794	0.06
489.146	0.06
489.498	0.06
489.849	0.06
490.201	0.06
490.552	0.06
490.904	0.06
491.255	0.07
491.607	0.06
491.958	0.07
492.309	0.07
492.661	0.08
493.012	0.08
493.363	0.07
493.714	0.08
494.065	0.08
494.416	0.08
494.767	0.08
495.118	0.08
495.469	0.08
495.82	0.09
496.171	0.09
496.522	0.09
496.872	0.09
497.223	0.09
497.574	0.09
497.924	0.09
498.275	0.1
498.626	0.1
498.976	0.1
499.327	0.11
499.677	0.11
500.027	0.11
500.378	0.11
500.728	0.11
501.078	0.11
501.428	0.12
501.779	0.12
502.129	0.12
502.479	0.12
502.829	0.12
503.179	0.12
503.529	0.12
503.879	0.13
504.229	0.13
504.578	0.13
504.928	0.13
505.278	0.14
505.628	0.14
505.977	0.14
506.327	0.14
506.676	0.14
507.026	0.14
507.375	0.14
507.725	0.15
508.074	0.15
508.424	0.15
508.773	0.15
509.122	0.15
509.471	0.15
509.82	0.15
510.17	0.15
510.519	0.16
510.868	0.16
511.217	0.16
511.566	0.16
511.915	0.16
512.263	0.16
512.612	0.16
512.961	0.16
513.31	0.17
513.659	0.17
514.007	0.17
514.356	0.17
514.704	0.17
515.053	0.18
515.401	0.18
515.75	0.18
516.098	0.18
516.447	0.19
516.795	0.18
517.143	0.19
517.491	0.19
517.839	0.18
518.188	0.19
518.536	0.19
518.884	0.19
519.232	0.19
519.58	0.19
519.928	0.19
520.275	0.2
520.623	0.2
520.971	0.2
521.319	0.2
521.666	0.2
522.014	0.21
522.362	0.21
522.709	0.2
523.057	0.21
523.404	0.21
523.752	0.21
524.099	0.21
524.446	0.22
524.794	0.21
525.141	0.21
525.488	0.22
525.835	0.22
526.182	0.23
526.529	0.23
526.876	0.23
527.223	0.23
527.57	0.23
527.917	0.23
528.264	0.23
528.611	0.23
528.958	0.23
529.304	0.24
529.651	0.24
529.998	0.24
530.344	0.24
530.691	0.24
531.037	0.24
531.384	0.25
531.73	0.25
532.076	0.25
532.423	0.25
532.769	0.25
533.115	0.25
533.461	0.26
533.807	0.26
534.154	0.26
534.5	0.27
534.846	0.27
535.192	0.27
535.537	0.27
535.883	0.27
536.229	0.28
536.575	0.27
536.921	0.28
537.266	0.28
537.612	0.28
537.957	0.28
538.303	0.28
538.649	0.29
538.994	0.29
539.339	0.29
539.685	0.29
540.03	0.29
540.375	0.29
540.721	0.3
541.066	0.3
541.411	0.3
541.756	0.31
542.101	0.3
542.446	0.31
542.791	0.31
543.136	0.32
543.481	0.32
543.825	0.32
544.17	0.32
544.515	0.32
544.86	0.32
545.204	0.32
545.549	0.32
545.893	0.33
546.238	0.33
546.582	0.33
546.927	0.34
547.271	0.34
547.615	0.34
547.96	0.34
548.304	0.35
548.648	0.35
548.992	0.34
549.336	0.35
549.68	0.35
550.024	0.35
550.368	0.35
550.712	0.36
551.056	0.36
551.4	0.36
551.743	0.36
552.087	0.36
552.431	0.37
552.774	0.37
553.118	0.37
553.462	0.37
553.805	0.37
554.148	0.38
554.492	0.37
554.835	0.38
555.178	0.38
555.522	0.38
555.865	0.38
556.208	0.38
556.551	0.38
556.894	0.39
557.237	0.38
557.58	0.39
557.923	0.39
558.266	0.39
558.609	0.39
558.952	0.39
559.294	0.39
559.637	0.39
559.98	0.39
560.322	0.4
560.665	0.39
561.007	0.4
561.35	0.4
561.692	0.4
562.034	0.4
562.377	0.4
562.719	0.4
563.061	0.41
563.403	0.41
563.745	0.41
564.088	0.41
564.43	0.4
564.772	0.41
565.113	0.41
565.455	0.41
565.797	0.41
566.139	0.41
566.481	0.42
566.822	0.42
567.164	0.42
567.506	0.42
567.847	0.42
568.189	0.41
568.53	0.42
568.872	0.42
569.213	0.42
569.554	0.42
569.895	0.42
570.237	0.42
570.578	0.42
570.919	0.42
571.26	0.42
571.601	0.42
571.942	0.42
572.283	0.42
572.624	0.42
572.965	0.42
573.306	0.42
573.646	0.42
573.987	0.42
574.328	0.42
574.668	0.42
575.009	0.42
575.349	0.42
575.69	0.42
576.03	0.42
576.37	0.42
576.711	0.42
577.051	0.42
577.391	0.43
577.731	0.43
578.072	0.42
578.412	0.42
578.752	0.43
579.092	0.42
579.431	0.42
579.771	0.41
580.111	0.41
580.451	0.42
580.791	0.43
581.13	0.43
581.47	0.43
581.81	0.43
582.149	0.43
582.489	0.43
582.828	0.42
583.167	0.42
583.507	0.4
583.846	0.38
584.185	0.41
584.525	0.42
584.864	0.43
585.203	0.44
585.542	0.44
585.881	0.44
586.22	0.45
586.559	0.44
586.898	0.44
587.236	0.44
587.575	0.44
587.914	0.45
588.252	0.45
588.591	0.45
588.93	0.46
589.268	0.45
589.607	0.45
589.945	0.46
590.283	0.46
590.622	0.46
590.96	0.47
591.298	0.47
591.636	0.47
591.974	0.47
592.313	0.48
592.651	0.48
592.989	0.48
593.326	0.49
593.664	0.49
594.002	0.49
594.34	0.48
594.678	0.48
595.015	0.48
595.353	0.48
595.691	0.49
596.028	0.5
596.366	0.5
596.703	0.5
597.04	0.5
597.378	0.51
597.715	0.51
598.052	0.51
598.389	0.51
598.726	0.51
599.064	0.51
599.401	0.51
599.738	0.51
600.074	0.51
600.411	0.51
600.748	0.51
601.085	0.51
601.422	0.51
601.758	0.51
602.095	0.51
602.432	0.51
602.768	0.52
603.105	0.52
603.441	0.53
603.777	0.53
604.114	0.53
604.45	0.53
604.786	0.52
605.122	0.52
605.459	0.52
605.795	0.52
606.131	0.52
606.467	0.52
606.803	0.52
607.139	0.52
607.474	0.52
607.81	0.52
608.146	0.52
608.482	0.51
608.817	0.51
609.153	0.51
609.488	0.51
609.824	0.51
610.159	0.51
610.495	0.51
610.83	0.51
611.165	0.51
611.5	0.51
611.836	0.5
612.171	0.5
612.506	0.5
612.841	0.5
613.176	0.5
613.511	0.5
613.845	0.5
614.18	0.5
614.515	0.5
614.85	0.5
615.184	0.5
615.519	0.5
615.854	0.5
616.188	0.49
616.523	0.49
616.857	0.49
617.191	0.48
617.526	0.49
617.86	0.48
618.194	0.48
618.528	0.48
618.862	0.48
619.196	0.48
619.53	0.48
619.864	0.48
620.198	0.48
620.532	0.47
620.866	0.47
621.2	0.47
621.533	0.47
621.867	0.47
622.201	0.46
622.534	0.47
622.868	0.46
623.201	0.46
623.534	0.46
623.868	0.46
624.201	0.46
624.534	0.46
624.868	0.45
625.201	0.46
625.534	0.45
625.867	0.45
626.2	0.45
626.533	0.44
626.865	0.44
627.198	0.44
627.531	0.44
627.864	0.44
628.196	0.44
628.529	0.43
628.862	0.43
629.194	0.43
629.527	0.43
629.859	0.42
630.191	0.42
630.524	0.42
630.856	0.41
631.188	0.41
631.52	0.41
631.852	0.41
632.184	0.4
632.516	0.4
632.848	0.4
633.18	0.4
633.512	0.4
633.844	0.39
634.175	0.39
634.507	0.39
634.839	0.38
635.17	0.38
635.502	0.38
635.833	0.37
636.165	0.37
636.496	0.37
636.827	0.37
637.159	0.37
637.49	0.36
637.821	0.36
638.152	0.36
638.483	0.35
638.814	0.35
639.145	0.35
639.476	0.35
639.807	0.34
640.137	0.34
640.468	0.34
640.799	0.33
641.129	0.33
641.46	0.33
641.791	0.32
642.121	0.32
642.451	0.32
642.782	0.32
643.112	0.32
643.442	0.32
643.773	0.31
644.103	0.32
644.433	0.31
644.763	0.31
645.093	0.31
645.423	0.3
645.753	0.3
646.082	0.3
646.412	0.3
646.742	0.3
647.072	0.3
647.401	0.3
647.731	0.3
648.06	0.3
648.39	0.29
648.719	0.3
649.048	0.29
649.378	0.29
649.707	0.29
650.036	0.29
650.365	0.29
650.694	0.29
651.023	0.29
651.352	0.29
651.681	0.29
652.01	0.29
652.339	0.29
652.668	0.29
652.996	0.29
653.325	0.29
653.654	0.29
653.982	0.29
654.311	0.29
654.639	0.29
654.967	0.28
655.296	0.29
655.624	0.28
655.952	0.28
656.28	0.28
656.609	0.28
656.937	0.28
657.265	0.27
657.593	0.25
657.92	0.12
658.248	0.07
658.576	0.07
658.904	0.16
659.231	0.25
659.559	0.28
659.887	0.28
660.214	0.28
660.542	0.28
660.869	0.28
661.196	0.28
661.524	0.28
661.851	0.27
662.178	0.28
662.505	0.28
662.832	0.28
663.159	0.28
663.486	0.28
663.813	0.28
664.14	0.28
664.467	0.28
664.794	0.28
665.12	0.28
665.447	0.27
665.774	0.27
666.1	0.27
666.427	0.27
666.753	0.27
667.079	0.27
667.406	0.27
667.732	0.27
668.058	0.27
668.384	0.27
668.71	0.27
669.036	0.26
669.362	0.26
669.688	0.26
670.014	0.26
670.34	0.26
670.666	0.26
670.991	0.26
671.317	0.26
671.643	0.25
671.968	0.25
672.294	0.25
672.619	0.25
672.945	0.25
673.27	0.25
673.595	0.25
673.92	0.25
674.246	0.24
674.571	0.24
674.896	0.24
675.221	0.24
675.546	0.24
675.87	0.24
676.195	0.23
676.52	0.23
676.845	0.23
677.169	0.23
677.494	0.23
677.819	0.23
678.143	0.23
678.468	0.23
678.792	0.23
679.116	0.22
679.44	0.22
679.765	0.21
680.089	0.21
680.413	0.21
680.737	0.21
681.061	0.21
681.385	0.21
681.709	0.2
682.033	0.2
682.356	0.2
682.68	0.2
683.004	0.2
683.327	0.2
683.651	0.2
683.974	0.19
684.298	0.2
684.621	0.19
684.944	0.19
685.268	0.18
685.591	0.18
685.914	0.18
686.237	0.18
686.56	0.18
686.883	0.17
687.206	0.18
687.529	0.17
687.852	0.17
688.175	0.17
688.497	0.17
688.82	0.17
689.142	0.17
689.465	0.16
689.787	0.16
690.11	0.16
690.432	0.16
690.755	0.16
691.077	0.16
691.399	0.15
691.721	0.15
692.043	0.15
692.365	0.15
692.687	0.15
693.009	0.15
693.331	0.14
693.653	0.14
693.974	0.14
694.296	0.14
694.618	0.14
694.939	0.14
695.261	0.14
695.582	0.13
695.904	0.13
696.225	0.13
696.546	0.13
696.868	0.13
697.189	0.13
697.51	0.13
697.831	0.13
698.152	0.13
698.473	0.13
698.794	0.12
699.114	0.12
699.435	0.12
699.756	0.12
700.077	0.12
700.397	0.12
700.718	0.12
701.038	0.12
701.359	0.12
701.679	0.12
701.999	0.12
702.32	0.12
702.64	0.12
702.96	0.12
703.28	0.12
703.6	0.12
703.92	0.11
704.24	0.11
704.56	0.11
704.879	0.11
705.199	0.11
705.519	0.11
705.838	0.11
706.158	0.11
706.478	0.11
706.797	0.1
707.116	0.1
707.436	0.1
707.755	0.1
708.074	0.1
708.393	0.1
708.712	0.1
709.031	0.1
709.35	0.1
709.669	0.1
709.988	0.1
710.307	0.1
710.626	0.1
710.944	0.1
711.263	0.1
711.582	0.1
711.9	0.1
712.219	0.1
712.537	0.1
712.855	0.1
713.174	0.1
713.492	0.1
713.81	0.1
714.128	0.1
714.446	0.1
714.764	0.1
715.082	0.09
715.4	0.1
715.718	0.1
716.035	0.1
716.353	0.1
716.671	0.1
716.988	0.1
717.306	0.1
717.623	0.1
717.941	0.1
718.258	0.1
718.575	0.1
718.893	0.1
719.21	0.1
719.527	0.1
719.844	0.1
720.161	0.1
720.478	0.1
720.795	0.1
721.112	0.1
721.428	0.1
721.745	0.1
722.062	0.1
722.378	0.1
722.695	0.1
723.011	0.1
723.328	0.1
723.644	0.11
723.96	0.11
724.276	0.11
724.593	0.11
724.909	0.11
725.225	0.11
725.541	0.12
725.857	0.12
726.173	0.12
726.488	0.11
726.804	0.11
727.12	0.11
727.435	0.11
727.751	0.11
728.067	0.11
728.382	0.11
728.697	0.11
729.013	0.12
729.328	0.11
729.643	0.11
729.958	0.12
730.273	0.12
730.588	0.12
730.903	0.12
731.218	0.11
731.533	0.12
731.848	0.12
732.163	0.11
732.477	0.11
732.792	0.11
733.107	0.11
733.421	0.12
733.736	0.11
734.05	0.11
734.364	0.11
734.678	0.11
734.993	0.11
735.307	0.11
735.621	0.11
735.935	0.11
736.249	0.11
736.563	0.11
736.877	0.11
737.19	0.11
737.504	0.11
737.818	0.11
738.131	0.11
738.445	0.11
738.758	0.11
739.072	0.11
739.385	0.11
739.698	0.11
740.012	0.11
740.325	0.1
740.638	0.1
740.951	0.1
741.264	0.1
741.577	0.11
741.89	0.1
742.203	0.1
742.515	0.1
742.828	0.1
743.141	0.1
743.453	0.1
743.766	0.1
744.078	0.1
744.391	0.1
744.703	0.1
745.015	0.1
745.327	0.1
745.639	0.1
745.952	0.1
746.264	0.1
746.575	0.1
746.887	0.09
747.199	0.1
747.511	0.1
747.823	0.1
748.134	0.09
748.446	0.09
748.757	0.09
749.069	0.09
749.38	0.09
749.692	0.09
750.003	0.09
750.314	0.09
750.625	0.09
750.936	0.09
751.248	0.09
751.559	0.09
751.869	0.08
752.18	0.08
752.491	0.08
752.802	0.08
753.112	0.08
753.423	0.08
753.734	0.08
754.044	0.08
754.355	0.08
754.665	0.08
754.975	0.07
755.285	0.07
755.596	0.07
755.906	0.07
756.216	0.07
756.526	0.07
756.836	0.07
757.146	0.07
757.455	0.07
757.765	0.07
758.075	0.07
758.385	0.06
758.694	0.06
759.004	0.06
759.313	0.06
759.622	0.06
759.932	0.06
760.241	0.06
760.55	0.06
760.859	0.05
761.168	0.06
761.477	0.05
761.786	0.05
762.095	0.05
762.404	0.05
762.713	0.05
763.021	0.05
763.33	0.05
763.639	0.05
763.947	0.05
764.256	0.05
764.564	0.05
764.872	0.05
765.181	0.05
765.489	0.05
765.797	0.05
766.105	0.05
766.413	0.05
766.721	0.05
767.029	0.05
767.337	0.04
767.644	0.05
767.952	0.04
768.26	0.05
768.567	0.05
768.875	0.05
769.182	0.05
769.49	0.04
769.797	0.04
770.104	0.04
770.411	0.05
770.718	0.04
771.026	0.04
771.333	0.04
771.639	0.05
771.946	0.04
772.253	0.04
772.56	0.04
772.867	0.04
773.173	0.04
773.48	0.04
773.786	0.04
774.093	0.04
774.399	0.04
774.705	0.04
775.012	0.04
775.318	0.04
775.624	0.04
775.93	0.04
776.236	0.04
776.542	0.04
776.848	0.04
777.154	0.04
777.459	0.04
777.765	0.04
778.071	0.04
778.376	0.04
778.682	0.04
778.987	0.04
779.292	0.04
779.598	0.04
779.903	0.04
780.208	0.04
780.513	0.04
780.818	0.03
781.123	0.04
781.428	0.04
781.733	0.04
782.038	0.04
782.343	0.03
782.647	0.04
782.952	0.04
783.256	0.04
783.561	0.04
783.865	0.03
784.17	0.04
784.474	0.04
784.778	0.04
785.082	0.04
785.386	0.04
785.69	0.04
785.994	0.04
786.298	0.04
786.602	0.04
786.906	0.04
787.209	0.04
787.513	0.04
787.817	0.04
788.12	0.05
788.424	0.04
788.727	0.04
789.03	0.04
789.333	0.04
789.637	0.04
789.94	0.03
790.243	0.04
790.546	0.03
790.849	0.03
791.152	0.03
791.454	0.03
791.757	0.03
792.06	0.03
792.362	0.02
792.665	0.02
792.967	0.03
793.27	0.02
793.572	0.02
793.874	0.03
794.177	0.03
794.479	0.02
794.781	0.03
795.083	0.03
795.385	0.03
795.687	0.03
795.989	0.03
796.29	0.03
796.592	0.03
796.894	0.04
797.195	0.04
797.497	0.03
797.798	0.03
798.1	0.03
798.401	0.03
798.702	0.03
799.003	0.03
799.304	0.03
799.605	0.03
799.906	0.03
800.207	0.03
800.508	0.03
800.809	0.03
801.11	0.03
801.41	0.03
801.711	0.03
802.011	0.03
802.312	0.03
802.612	0.03
802.913	0.03
803.213	0.03
803.513	0.03
803.813	0.03
804.113	0.03
804.413	0.03
804.713	0.03
805.013	0.03
805.313	0.03
805.613	0.03
805.912	0.03
806.212	0.03
806.511	0.02
806.811	0.03
807.11	0.03
807.41	0.03
807.709	0.03
808.008	0.03
808.307	0.03
808.606	0.03
808.905	0.03
809.204	0.03
809.503	0.03
809.802	0.03
810.101	0.03
810.399	0.03
810.698	0.03
810.997	0.03
811.295	0.03
811.593	0.03
811.892	0.03
812.19	0.03
812.488	0.03
812.786	0.03
813.084	0.03
813.383	0.03
813.68	0.03
813.978	0.03
814.276	0.03
814.574	0.03
814.872	0.03
815.169	0.02
815.467	0.03
815.764	0.03
816.062	0.02
816.359	0.02
816.656	0.02
816.954	0.02
817.251	0.03
817.548	0.02
817.845	0.03
818.142	0.02
818.439	0.02
818.735	0.03
819.032	0.02
819.329	0.03
819.626	0.03
819.922	0.02
820.219	0.02
820.515	0.02
820.811	0.02
821.108	0.02
821.404	0.02
821.7	0.02
821.996	0.02
822.292	0.02
822.588	0.02
822.884	0.02
823.18	0.02
823.475	0.02
823.771	0.02
824.067	0.02
824.362	0.01
824.658	0.02
824.953	0.02
825.249	0.02
825.544	0.02
825.839	0.02
826.134	0.02
826.429	0.02
826.724	0.02
827.019	0.02
827.314	0.02
827.609	0.02
827.904	0.03
828.198	0.02
828.493	0.02
828.787	0.02
829.082	0.02
829.376	0.02
829.671	0.02
829.965	0.02
830.259	0.02
830.553	0.01
830.847	0.01
831.141	0.02
831.435	0.02
831.729	0.01
832.023	0.01
832.317	0.01
832.61	0.01
832.904	0.02
833.197	0.02
833.491	0.01
833.784	0.01
834.077	0.01
834.371	0.02
834.664	0.02
834.957	0.02
835.25	0.02
835.543	0.03
835.836	0.02
836.129	0.01
836.421	0.02
836.714	0.02
837.007	0.03
837.299	0.02
837.592	0.02
837.884	0.01
838.177	0.01
838.469	0.01
838.761	0.01
839.053	0.01
839.345	0.01
839.637	0.02
839.929	0.01
840.221	0.02
840.513	0.02
840.805	0.02
841.096	0.01
841.388	0.01
841.68	0.01
841.971	0.02
842.262	0.01
842.554	0.01
842.845	0.02
843.136	0.01
843.427	0.01
843.718	0.01
844.009	0.01
844.3	0.02
844.591	0.01
844.882	0.01
845.173	0.02
845.463	0.02
845.754	0.01
846.044	0.02
846.335	0.01
846.625	0.02
846.915	0.02
847.206	0.01
847.496	0.02
847.786	0.02
848.076	0.01
848.366	0.01
848.656	0.01
848.945	0.01
849.235	0.02
849.525	0.01
849.814	0.03
850.104	0.02
850.393	0.01
850.683	0.02
850.972	0.02
851.261	0.02
851.551	0.03
851.84	0.03
852.129	0.02
852.418	0.01
852.707	0.03
852.995	0.01
853.284	0.03
853.573	0.03
853.862	0
854.15	0.02
854.439	0.01
854.727	0.01
855.015	0.01
855.304	0
855.592	0
855.88	0.01
856.168	-0
856.456	0.01
856.744	0.01
857.032	-0
857.32	-0.01
857.607	-0
857.895	0.01
858.183	0.01
858.47	0.01
858.757	0.01
859.045	0.01
859.332	0.01
859.619	0.01
859.907	0.01
860.194	0
860.481	0.02
860.768	0.01
861.054	-0
861.341	-0.01
861.628	0
861.915	-0.02
862.201	0.02
862.488	-0.02
862.774	0.01
863.061	0.01
863.347	0.01
863.633	-0.01
863.919	0.02
864.205	-0.01
864.491	-0.01
864.777	-0.02
865.063	0.01
865.349	0.01
865.635	0.01
865.92	0.02
866.206	0.04
866.492	-0.01
866.777	-0.04
867.062	-0.03
867.348	-0.04
867.633	0.02
867.918	-0.01
868.203	0.01
868.488	-0.03
868.773	-0.01
869.058	-0.04
869.343	-0.04
869.628	-0.03
869.912	-0.02
870.197	0.01
870.482	-0.04
870.766	-0.02
871.05	0.02
871.335	-0.01
871.619	0.01
871.903	0.02
872.187	0
872.471	-0.05
872.755	-0.01
873.039	-0.01
873.323	-0.02
873.607	0.03
873.89	0.02
874.174	-0.04
874.458	-0.02
874.741	0.01
875.024	-0.01
875.308	0.01
875.591	0.03
875.874	0.01
876.157	0.04
876.44	-0.07
876.723	0.01
877.006	0.02
877.289	-0.05
877.572	-0.05
877.854	-0.03
878.137	-0.04
878.42	0.11
878.702	0.02
878.984	-0
879.267	-0.02
879.549	0.02
879.831	-0.04
880.113	-0.15
880.395	-0.04
880.677	-0.08
880.959	0.02
