Data from Rubpy_EV_900_EDTA_Buffered_Absorbance_13-40-05-666.txt Node
Date: Tue Jun 30 13:40:05 BST 2026
User: fpm-admin
Spectrometer: OFX00224
Trigger mode: 0
Integration Time (sec): 7.000000E-2
Scans to average: 3
Nonlinearity correction enabled: false
Boxcar width: 0
Storing dark spectrum: false
XAxis mode: Wavelengths
Number of Pixels in Spectrum: 2136
>>>>>Begin Spectral Data<<<<<
154.91	0.26
155.289	-1.67
155.669	-0
156.048	-0.62
156.428	0.07
156.807	0.63
157.186	-0.16
157.566	-0
157.945	0.51
158.325	-0.8
158.704	-0.05
159.083	0.64
159.462	0.04
159.842	-0
160.221	-0.52
160.6	-0.11
160.979	-0.66
161.359	-0
161.738	0.9
162.117	-0.64
162.496	1
162.875	-1
163.254	-0.26
163.633	0.4
164.012	-0
164.391	-0.04
164.77	0.11
165.149	0.1
165.528	-0.48
165.907	0.42
166.286	-0
166.665	-0.85
167.044	-0
167.423	-0.14
167.802	0.11
168.181	-0
168.559	-0
168.938	-0
169.317	-0
169.696	-0
170.074	-0.81
170.453	-0
170.832	-0.1
171.21	-0.1
171.589	-0
171.968	0.18
172.346	-0
172.725	-0
173.103	-0.18
173.482	-0
173.861	-0.41
174.239	-0
174.617	0.7
174.996	-0
175.374	0.9
175.753	-0
176.131	-0.06
176.51	-0.6
176.888	-0
177.266	-0
177.645	-0.03
178.023	0.36
178.401	-0.11
178.779	0.01
179.158	-0
179.536	0.22
179.914	-0.07
180.292	-0
180.67	0.3
181.048	-0
181.427	-0.22
181.805	-0.26
182.183	-0
182.561	-0
182.939	-0.46
183.317	-0
183.695	-0.04
184.073	-0
184.451	-0
184.829	0.27
185.206	-0.18
185.584	-0
185.962	-0
186.34	0.7
186.718	0.66
187.096	0.32
187.473	-0.09
187.851	-0.27
188.229	-0.54
188.607	0.12
188.984	0.11
189.362	-0.03
189.74	0.06
190.117	-0.08
190.495	0.08
190.872	0.05
191.25	0.08
191.627	0.07
192.005	0.05
192.382	0.13
192.76	0.14
193.137	0.05
193.515	0.04
193.892	0.06
194.269	0.05
194.647	0.09
195.024	0.05
195.401	0.12
195.779	0.18
196.156	0.13
196.533	0.07
196.91	0.14
197.288	0.18
197.665	-0.03
198.042	0.11
198.419	0.01
198.796	0.04
199.173	0.04
199.55	0.27
199.927	0.14
200.304	0.15
200.681	0.07
201.058	0.07
201.435	0.13
201.812	0.1
202.189	0.15
202.566	0.18
202.943	0.06
203.32	0.07
203.697	0.1
204.073	0.06
204.45	0.23
204.827	0.1
205.204	0.09
205.58	0.16
205.957	0.18
206.334	0.12
206.71	0.22
207.087	0.14
207.464	0.14
207.84	0.08
208.217	0.03
208.593	0.16
208.97	0.06
209.346	0.09
209.723	0.15
210.099	0.09
210.476	0.1
210.852	0.1
211.228	0.1
211.605	0.13
211.981	0.12
212.357	0.09
212.733	0.2
213.11	0.08
213.486	0.04
213.862	0.14
214.238	0.12
214.614	0.09
214.991	0.09
215.367	0.08
215.743	0.04
216.119	0.02
216.495	0.03
216.871	0.03
217.247	0.1
217.623	0.2
217.999	0.04
218.375	0.14
218.751	0.01
219.127	0.14
219.502	0.17
219.878	0.11
220.254	0.13
220.63	0.09
221.006	0.1
221.381	0.17
221.757	0.03
222.133	0.14
222.508	0.08
222.884	0.15
223.26	0.2
223.635	0.11
224.011	0.04
224.386	0.12
224.762	0.09
225.137	0.04
225.513	0.05
225.888	0.06
226.264	0.06
226.639	0.02
227.014	0.11
227.39	0.04
227.765	0.09
228.14	0.13
228.516	0.07
228.891	0.12
229.266	0.11
229.641	0.06
230.017	0.18
230.392	0.19
230.767	0.13
231.142	0.19
231.517	0.05
231.892	0.11
232.267	0.11
232.642	0.06
233.017	0.03
233.392	0.11
233.767	0.17
234.142	0.16
234.517	0.15
234.892	0.01
235.267	0.08
235.641	0.12
236.016	0.18
236.391	0.06
236.766	0.07
237.14	0.06
237.515	0.16
237.89	0.09
238.264	0.08
238.639	0.2
239.014	0.13
239.388	0.08
239.763	0.12
240.137	0.09
240.512	0.1
240.886	0.08
241.261	0.08
241.635	0.23
242.009	0.11
242.384	0.08
242.758	0.13
243.132	0.02
243.507	0.18
243.881	0.14
244.255	0.21
244.629	0.16
245.004	0.15
245.378	0.06
245.752	0.13
246.126	0.06
246.5	0.12
246.874	0.16
247.248	0.14
247.622	0.17
247.996	0.12
248.37	0.11
248.744	0.19
249.118	0.2
249.492	0.27
249.866	0.1
250.24	0.03
250.613	0.03
250.987	0.09
251.361	0.13
251.735	0.14
252.108	0.07
252.482	0.24
252.856	0.12
253.229	0.06
253.603	0.08
253.977	0.11
254.35	0.16
254.724	0.13
255.097	0.06
255.471	0.06
255.844	0.15
256.218	0.13
256.591	0.08
256.964	0.07
257.338	0.14
257.711	0.06
258.084	0.11
258.458	0.13
258.831	0.26
259.204	0.09
259.577	0.1
259.95	0.14
260.323	0.07
260.697	0.12
261.07	0.12
261.443	0.08
261.816	0.21
262.189	0.06
262.562	0.21
262.935	0.16
263.308	0.22
263.68	0.07
264.053	0.13
264.426	0.09
264.799	0.16
265.172	0.1
265.545	0.06
265.917	0.07
266.29	0.18
266.663	0.04
267.035	0.15
267.408	0.17
267.781	0.18
268.153	0.2
268.526	0.16
268.898	0.19
269.271	0.06
269.643	0.08
270.016	0.13
270.388	0.17
270.76	0.11
271.133	0.14
271.505	0.14
271.877	0.07
272.25	0.09
272.622	0.15
272.994	0.15
273.366	0.12
273.739	0.03
274.111	0.09
274.483	0.1
274.855	0.09
275.227	0.16
275.599	0.07
275.971	0.14
276.343	0.12
276.715	0.15
277.087	0.08
277.459	0.14
277.831	0.14
278.203	0.13
278.574	0.06
278.946	0.11
279.318	0.13
279.69	0.16
280.061	0.06
280.433	0.08
280.805	0.14
281.176	0.11
281.548	0.13
281.92	0.09
282.291	0.07
282.663	0.1
283.034	0.12
283.406	0.15
283.777	0.15
284.148	0.17
284.52	0.12
284.891	0.12
285.262	0.14
285.634	0.2
286.005	0.11
286.376	0.14
286.747	0.14
287.119	0.11
287.49	0.11
287.861	0.09
288.232	0.07
288.603	0.2
288.974	0.17
289.345	0.14
289.716	0.22
290.087	0.15
290.458	0.11
290.829	0.12
291.2	0.1
291.571	0.06
291.941	0.13
292.312	0.06
292.683	0.17
293.054	0.14
293.424	0.13
293.795	0.09
294.166	0.17
294.536	0.21
294.907	0.11
295.277	0.11
295.648	0.1
296.018	0.09
296.389	0.1
296.759	0.06
297.13	0.09
297.5	0.17
297.871	0.13
298.241	0.09
298.611	0.11
298.981	0.11
299.352	0.09
299.722	0.13
300.092	0.14
300.462	0.12
300.832	0.12
301.202	0.09
301.573	0.1
301.943	0.11
302.313	0.07
302.683	0.08
303.053	0.08
303.422	0.09
303.792	0.09
304.162	0.07
304.532	0.1
304.902	0.08
305.272	0.09
305.641	0.07
306.011	0.09
306.381	0.08
306.75	0.09
307.12	0.08
307.49	0.1
307.859	0.09
308.229	0.08
308.598	0.1
308.968	0.09
309.337	0.09
309.707	0.1
310.076	0.1
310.445	0.09
310.815	0.1
311.184	0.11
311.553	0.1
311.923	0.11
312.292	0.11
312.661	0.11
313.03	0.1
313.399	0.1
313.768	0.11
314.137	0.11
314.506	0.11
314.875	0.1
315.244	0.11
315.613	0.1
315.982	0.1
316.351	0.11
316.72	0.1
317.089	0.1
317.458	0.1
317.826	0.1
318.195	0.1
318.564	0.1
318.933	0.1
319.301	0.1
319.67	0.1
320.038	0.1
320.407	0.1
320.775	0.1
321.144	0.1
321.512	0.09
321.881	0.09
322.249	0.09
322.618	0.09
322.986	0.09
323.354	0.09
323.723	0.09
324.091	0.09
324.459	0.09
324.827	0.08
325.195	0.08
325.564	0.08
325.932	0.09
326.3	0.08
326.668	0.08
327.036	0.08
327.404	0.08
327.772	0.09
328.14	0.09
328.508	0.08
328.875	0.08
329.243	0.08
329.611	0.08
329.979	0.09
330.346	0.09
330.714	0.08
331.082	0.08
331.449	0.08
331.817	0.08
332.185	0.09
332.552	0.09
332.92	0.09
333.287	0.09
333.655	0.1
334.022	0.09
334.389	0.09
334.757	0.09
335.124	0.09
335.491	0.09
335.859	0.09
336.226	0.09
336.593	0.1
336.96	0.1
337.327	0.09
337.695	0.1
338.062	0.1
338.429	0.1
338.796	0.11
339.163	0.1
339.53	0.1
339.897	0.11
340.263	0.1
340.63	0.11
340.997	0.11
341.364	0.11
341.731	0.11
342.097	0.11
342.464	0.12
342.831	0.12
343.197	0.12
343.564	0.12
343.931	0.13
344.297	0.13
344.664	0.13
345.03	0.13
345.396	0.13
345.763	0.13
346.129	0.14
346.496	0.14
346.862	0.14
347.228	0.14
347.594	0.14
347.961	0.15
348.327	0.15
348.693	0.15
349.059	0.16
349.425	0.16
349.791	0.16
350.157	0.16
350.523	0.16
350.889	0.17
351.255	0.17
351.621	0.17
351.987	0.18
352.353	0.18
352.719	0.18
353.084	0.19
353.45	0.19
353.816	0.19
354.181	0.2
354.547	0.2
354.913	0.2
355.278	0.21
355.644	0.21
356.009	0.22
356.375	0.23
356.74	0.23
357.106	0.23
357.471	0.23
357.836	0.24
358.202	0.25
358.567	0.26
358.932	0.25
359.297	0.26
359.663	0.27
360.028	0.27
360.393	0.27
360.758	0.28
361.123	0.28
361.488	0.28
361.853	0.29
362.218	0.29
362.583	0.29
362.948	0.29
363.312	0.3
363.677	0.31
364.042	0.31
364.407	0.31
364.772	0.32
365.136	0.33
365.501	0.33
365.865	0.34
366.23	0.35
366.595	0.36
366.959	0.36
367.324	0.37
367.688	0.38
368.052	0.38
368.417	0.38
368.781	0.4
369.145	0.39
369.51	0.4
369.874	0.4
370.238	0.4
370.602	0.4
370.967	0.4
371.331	0.4
371.695	0.4
372.059	0.4
372.423	0.39
372.787	0.39
373.151	0.39
373.515	0.4
373.878	0.39
374.242	0.4
374.606	0.39
374.97	0.4
375.334	0.4
375.697	0.4
376.061	0.4
376.425	0.4
376.788	0.41
377.152	0.41
377.515	0.41
377.879	0.42
378.242	0.42
378.606	0.43
378.969	0.43
379.333	0.44
379.696	0.44
380.059	0.44
380.422	0.45
380.786	0.46
381.149	0.47
381.512	0.48
381.875	0.49
382.238	0.5
382.601	0.52
382.964	0.54
383.327	0.55
383.69	0.56
384.053	0.58
384.416	0.59
384.779	0.61
385.142	0.61
385.504	0.63
385.867	0.63
386.23	0.65
386.593	0.64
386.955	0.65
387.318	0.65
387.68	0.64
388.043	0.64
388.405	0.64
388.768	0.64
389.13	0.64
389.493	0.63
389.855	0.62
390.217	0.62
390.58	0.62
390.942	0.62
391.304	0.63
391.666	0.64
392.028	0.64
392.391	0.66
392.753	0.68
393.115	0.7
393.477	0.71
393.839	0.75
394.201	0.79
394.563	0.81
394.924	0.85
395.286	0.88
395.648	0.91
396.01	0.93
396.371	0.95
396.733	0.98
397.095	0.98
397.456	1
397.818	1
398.18	1
398.541	0.98
398.903	0.96
399.264	0.93
399.625	0.91
399.987	0.87
400.348	0.83
400.709	0.79
401.071	0.75
401.432	0.7
401.793	0.66
402.154	0.62
402.515	0.58
402.876	0.54
403.238	0.5
403.599	0.46
403.96	0.43
404.32	0.4
404.681	0.37
405.042	0.35
405.403	0.32
405.764	0.3
406.125	0.28
406.485	0.26
406.846	0.24
407.207	0.23
407.567	0.22
407.928	0.2
408.288	0.19
408.649	0.19
409.009	0.18
409.37	0.17
409.73	0.16
410.091	0.15
410.451	0.15
410.811	0.13
411.171	0.13
411.532	0.13
411.892	0.12
412.252	0.12
412.612	0.12
412.972	0.11
413.332	0.11
413.692	0.11
414.052	0.11
414.412	0.1
414.772	0.09
415.132	0.09
415.492	0.09
415.851	0.08
416.211	0.09
416.571	0.08
416.931	0.08
417.29	0.08
417.65	0.08
418.009	0.08
418.369	0.07
418.728	0.07
419.088	0.07
419.447	0.07
419.807	0.07
420.166	0.06
420.525	0.07
420.884	0.07
421.244	0.07
421.603	0.06
421.962	0.06
422.321	0.06
422.68	0.06
423.039	0.06
423.398	0.05
423.757	0.06
424.116	0.06
424.475	0.06
424.834	0.05
425.193	0.05
425.551	0.05
425.91	0.05
426.269	0.05
426.628	0.05
426.986	0.06
427.345	0.05
427.703	0.06
428.062	0.05
428.42	0.05
428.779	0.05
429.137	0.05
429.496	0.04
429.854	0.04
430.212	0.05
430.57	0.04
430.929	0.03
431.287	0.03
431.645	0.05
432.003	0.04
432.361	0.04
432.719	0.04
433.077	0.04
433.435	0.04
433.793	0.04
434.151	0.04
434.509	0.04
434.866	0.04
435.224	0.05
435.582	0.04
435.94	0.04
436.297	0.04
436.655	0.04
437.012	0.04
437.37	0.04
437.727	0.04
438.085	0.05
438.442	0.04
438.8	0.04
439.157	0.04
439.514	0.04
439.872	0.04
440.229	0.03
440.586	0.03
440.943	0.03
441.3	0.03
441.657	0.04
442.014	0.03
442.371	0.03
442.728	0.03
443.085	0.03
443.442	0.02
443.799	0.03
444.156	0.03
444.513	0.03
444.869	0.03
445.226	0.02
445.583	0.02
445.939	0.02
446.296	0.02
446.652	0.01
447.009	0.02
447.365	0.02
447.722	0.02
448.078	0.01
448.434	0.02
448.791	0.01
449.147	0.01
449.503	0.01
449.859	0.02
450.215	0.02
450.571	0.01
450.928	0.01
451.284	0.01
451.64	0.01
451.995	0
452.351	0
452.707	-0.01
453.063	-0
453.419	-0.01
453.775	-0.01
454.13	-0.01
454.486	-0.01
454.842	-0.01
455.197	-0.02
455.553	-0.02
455.908	-0.02
456.264	-0.02
456.619	-0.04
456.975	-0.04
457.33	-0.03
457.685	-0.03
458.04	-0.05
458.396	-0.05
458.751	-0.05
459.106	-0.06
459.461	-0.05
459.816	-0.06
460.171	-0.07
460.526	-0.07
460.881	-0.08
461.236	-0.08
461.591	-0.09
461.946	-0.09
462.301	-0.1
462.655	-0.1
463.01	-0.09
463.365	-0.1
463.719	-0.11
464.074	-0.11
464.428	-0.12
464.783	-0.12
465.137	-0.13
465.492	-0.13
465.846	-0.13
466.201	-0.13
466.555	-0.13
466.909	-0.13
467.263	-0.13
467.618	-0.12
467.972	-0.13
468.326	-0.13
468.68	-0.14
469.034	-0.14
469.388	-0.14
469.742	-0.14
470.096	-0.14
470.45	-0.14
470.804	-0.14
471.157	-0.14
471.511	-0.15
471.865	-0.15
472.218	-0.14
472.572	-0.14
472.926	-0.13
473.279	-0.13
473.633	-0.12
473.986	-0.12
474.34	-0.12
474.693	-0.11
475.046	-0.1
475.4	-0.1
475.753	-0.09
476.106	-0.09
476.459	-0.08
476.812	-0.08
477.165	-0.06
477.519	-0.06
477.872	-0.05
478.224	-0.06
478.577	-0.04
478.93	-0.05
479.283	-0.04
479.636	-0.04
479.989	-0.04
480.341	-0.04
480.694	-0.03
481.047	-0.03
481.399	-0.03
481.752	-0.02
482.104	-0.01
482.457	-0.01
482.809	-0.01
483.162	-0.01
483.514	-0
483.866	-0
484.219	-0.01
484.571	0
484.923	0
485.275	0.01
485.627	0.01
485.979	0.01
486.331	0.01
486.683	0.01
487.035	0.01
487.387	0.02
487.739	0.02
488.091	0.02
488.443	0.03
488.794	0.02
489.146	0.03
489.498	0.03
489.849	0.03
490.201	0.03
490.552	0.03
490.904	0.03
491.255	0.03
491.607	0.03
491.958	0.04
492.309	0.03
492.661	0.04
493.012	0.04
493.363	0.04
493.714	0.04
494.065	0.04
494.416	0.04
494.767	0.04
495.118	0.04
495.469	0.04
495.82	0.05
496.171	0.04
496.522	0.04
496.872	0.05
497.223	0.05
497.574	0.05
497.924	0.05
498.275	0.05
498.626	0.06
498.976	0.05
499.327	0.06
499.677	0.06
500.027	0.06
500.378	0.06
500.728	0.06
501.078	0.06
501.428	0.06
501.779	0.07
502.129	0.06
502.479	0.06
502.829	0.07
503.179	0.07
503.529	0.07
503.879	0.07
504.229	0.08
504.578	0.07
504.928	0.07
505.278	0.07
505.628	0.08
505.977	0.08
506.327	0.08
506.676	0.08
507.026	0.08
507.375	0.08
507.725	0.08
508.074	0.08
508.424	0.09
508.773	0.08
509.122	0.09
509.471	0.09
509.82	0.09
510.17	0.09
510.519	0.09
510.868	0.1
511.217	0.09
511.566	0.09
511.915	0.1
512.263	0.1
512.612	0.09
512.961	0.1
513.31	0.1
513.659	0.1
514.007	0.1
514.356	0.1
514.704	0.1
515.053	0.1
515.401	0.1
515.75	0.1
516.098	0.1
516.447	0.11
516.795	0.11
517.143	0.11
517.491	0.11
517.839	0.11
518.188	0.11
518.536	0.11
518.884	0.11
519.232	0.11
519.58	0.11
519.928	0.11
520.275	0.11
520.623	0.11
520.971	0.11
521.319	0.12
521.666	0.12
522.014	0.12
522.362	0.12
522.709	0.12
523.057	0.12
523.404	0.12
523.752	0.13
524.099	0.13
524.446	0.12
524.794	0.13
525.141	0.13
525.488	0.13
525.835	0.13
526.182	0.13
526.529	0.13
526.876	0.14
527.223	0.14
527.57	0.14
527.917	0.13
528.264	0.14
528.611	0.14
528.958	0.14
529.304	0.14
529.651	0.14
529.998	0.14
530.344	0.14
530.691	0.14
531.037	0.14
531.384	0.14
531.73	0.15
532.076	0.14
532.423	0.15
532.769	0.15
533.115	0.16
533.461	0.15
533.807	0.15
534.154	0.15
534.5	0.16
534.846	0.16
535.192	0.15
535.537	0.16
535.883	0.16
536.229	0.16
536.575	0.16
536.921	0.17
537.266	0.17
537.612	0.17
537.957	0.16
538.303	0.16
538.649	0.17
538.994	0.17
539.339	0.17
539.685	0.17
540.03	0.17
540.375	0.17
540.721	0.18
541.066	0.18
541.411	0.18
541.756	0.18
542.101	0.18
542.446	0.18
542.791	0.18
543.136	0.19
543.481	0.19
543.825	0.19
544.17	0.2
544.515	0.19
544.86	0.19
545.204	0.19
545.549	0.19
545.893	0.2
546.238	0.2
546.582	0.2
546.927	0.2
547.271	0.2
547.615	0.21
547.96	0.2
548.304	0.2
548.648	0.2
548.992	0.21
549.336	0.21
549.68	0.21
550.024	0.21
550.368	0.21
550.712	0.21
551.056	0.21
551.4	0.21
551.743	0.22
552.087	0.22
552.431	0.22
552.774	0.22
553.118	0.22
553.462	0.22
553.805	0.22
554.148	0.23
554.492	0.23
554.835	0.22
555.178	0.23
555.522	0.22
555.865	0.23
556.208	0.23
556.551	0.22
556.894	0.23
557.237	0.23
557.58	0.23
557.923	0.23
558.266	0.23
558.609	0.23
558.952	0.23
559.294	0.23
559.637	0.23
559.98	0.23
560.322	0.23
560.665	0.24
561.007	0.24
561.35	0.23
561.692	0.24
562.034	0.24
562.377	0.24
562.719	0.24
563.061	0.24
563.403	0.25
563.745	0.24
564.088	0.24
564.43	0.24
564.772	0.24
565.113	0.24
565.455	0.25
565.797	0.25
566.139	0.25
566.481	0.25
566.822	0.25
567.164	0.25
567.506	0.25
567.847	0.25
568.189	0.25
568.53	0.25
568.872	0.25
569.213	0.25
569.554	0.25
569.895	0.25
570.237	0.25
570.578	0.25
570.919	0.25
571.26	0.25
571.601	0.25
571.942	0.25
572.283	0.25
572.624	0.25
572.965	0.25
573.306	0.25
573.646	0.25
573.987	0.25
574.328	0.25
574.668	0.25
575.009	0.25
575.349	0.25
575.69	0.25
576.03	0.25
576.37	0.25
576.711	0.25
577.051	0.25
577.391	0.25
577.731	0.25
578.072	0.25
578.412	0.25
578.752	0.25
579.092	0.25
579.431	0.25
579.771	0.24
580.111	0.24
580.451	0.24
580.791	0.25
581.13	0.25
581.47	0.25
581.81	0.25
582.149	0.25
582.489	0.25
582.828	0.25
583.167	0.25
583.507	0.23
583.846	0.21
584.185	0.22
584.525	0.24
584.864	0.25
585.203	0.26
585.542	0.26
585.881	0.26
586.22	0.26
586.559	0.26
586.898	0.26
587.236	0.26
587.575	0.26
587.914	0.26
588.252	0.27
588.591	0.27
588.93	0.27
589.268	0.27
589.607	0.27
589.945	0.27
590.283	0.27
590.622	0.27
590.96	0.28
591.298	0.28
591.636	0.28
591.974	0.28
592.313	0.28
592.651	0.29
592.989	0.29
593.326	0.29
593.664	0.29
594.002	0.29
594.34	0.29
594.678	0.29
595.015	0.29
595.353	0.29
595.691	0.29
596.028	0.29
596.366	0.29
596.703	0.3
597.04	0.3
597.378	0.3
597.715	0.3
598.052	0.3
598.389	0.3
598.726	0.31
599.064	0.31
599.401	0.31
599.738	0.31
600.074	0.31
600.411	0.3
600.748	0.31
601.085	0.3
601.422	0.3
601.758	0.3
602.095	0.3
602.432	0.31
602.768	0.31
603.105	0.31
603.441	0.31
603.777	0.32
604.114	0.32
604.45	0.31
604.786	0.31
605.122	0.32
605.459	0.32
605.795	0.31
606.131	0.31
606.467	0.31
606.803	0.31
607.139	0.31
607.474	0.31
607.81	0.31
608.146	0.31
608.482	0.31
608.817	0.31
609.153	0.3
609.488	0.3
609.824	0.3
610.159	0.3
610.495	0.31
610.83	0.3
611.165	0.31
611.5	0.31
611.836	0.31
612.171	0.3
612.506	0.3
612.841	0.3
613.176	0.3
613.511	0.3
613.845	0.3
614.18	0.3
614.515	0.3
614.85	0.3
615.184	0.3
615.519	0.3
615.854	0.29
616.188	0.29
616.523	0.29
616.857	0.29
617.191	0.29
617.526	0.29
617.86	0.29
618.194	0.29
618.528	0.29
618.862	0.29
619.196	0.29
619.53	0.29
619.864	0.29
620.198	0.28
620.532	0.29
620.866	0.28
621.2	0.28
621.533	0.28
621.867	0.28
622.201	0.28
622.534	0.28
622.868	0.28
623.201	0.28
623.534	0.27
623.868	0.28
624.201	0.28
624.534	0.28
624.868	0.27
625.201	0.27
625.534	0.27
625.867	0.27
626.2	0.27
626.533	0.27
626.865	0.27
627.198	0.27
627.531	0.26
627.864	0.26
628.196	0.26
628.529	0.26
628.862	0.26
629.194	0.26
629.527	0.26
629.859	0.26
630.191	0.25
630.524	0.25
630.856	0.25
631.188	0.25
631.52	0.25
631.852	0.25
632.184	0.24
632.516	0.24
632.848	0.24
633.18	0.24
633.512	0.24
633.844	0.24
634.175	0.24
634.507	0.23
634.839	0.23
635.17	0.23
635.502	0.23
635.833	0.23
636.165	0.22
636.496	0.22
636.827	0.22
637.159	0.22
637.49	0.22
637.821	0.22
638.152	0.22
638.483	0.22
638.814	0.21
639.145	0.21
639.476	0.21
639.807	0.2
640.137	0.21
640.468	0.2
640.799	0.2
641.129	0.2
641.46	0.2
641.791	0.19
642.121	0.2
642.451	0.19
642.782	0.2
643.112	0.19
643.442	0.19
643.773	0.19
644.103	0.19
644.433	0.19
644.763	0.18
645.093	0.19
645.423	0.18
645.753	0.18
646.082	0.18
646.412	0.18
646.742	0.18
647.072	0.18
647.401	0.18
647.731	0.18
648.06	0.18
648.39	0.18
648.719	0.18
649.048	0.18
649.378	0.18
649.707	0.18
650.036	0.18
650.365	0.18
650.694	0.17
651.023	0.17
651.352	0.17
651.681	0.18
652.01	0.18
652.339	0.18
652.668	0.18
652.996	0.18
653.325	0.18
653.654	0.18
653.982	0.17
654.311	0.17
654.639	0.17
654.967	0.17
655.296	0.17
655.624	0.17
655.952	0.17
656.28	0.17
656.609	0.17
656.937	0.17
657.265	0.17
657.593	0.15
657.92	0.03
658.248	0
658.576	0
658.904	0.05
659.231	0.14
659.559	0.16
659.887	0.17
660.214	0.17
660.542	0.17
660.869	0.17
661.196	0.17
661.524	0.17
661.851	0.17
662.178	0.17
662.505	0.17
662.832	0.17
663.159	0.16
663.486	0.17
663.813	0.17
664.14	0.17
664.467	0.17
664.794	0.17
665.12	0.17
665.447	0.17
665.774	0.17
666.1	0.16
666.427	0.16
666.753	0.17
667.079	0.17
667.406	0.16
667.732	0.16
668.058	0.16
668.384	0.16
668.71	0.16
669.036	0.16
669.362	0.16
669.688	0.16
670.014	0.16
670.34	0.16
670.666	0.16
670.991	0.16
671.317	0.16
671.643	0.16
671.968	0.15
672.294	0.15
672.619	0.15
672.945	0.16
673.27	0.16
673.595	0.15
673.92	0.15
674.246	0.15
674.571	0.15
674.896	0.15
675.221	0.15
675.546	0.15
675.87	0.15
676.195	0.14
676.52	0.14
676.845	0.14
677.169	0.14
677.494	0.14
677.819	0.14
678.143	0.14
678.468	0.14
678.792	0.14
679.116	0.14
679.44	0.14
679.765	0.13
680.089	0.13
680.413	0.12
680.737	0.13
681.061	0.13
681.385	0.13
681.709	0.12
682.033	0.12
682.356	0.12
682.68	0.12
683.004	0.13
683.327	0.12
683.651	0.12
683.974	0.12
684.298	0.12
684.621	0.12
684.944	0.11
685.268	0.11
685.591	0.11
685.914	0.11
686.237	0.11
686.56	0.11
686.883	0.11
687.206	0.11
687.529	0.11
687.852	0.1
688.175	0.11
688.497	0.1
688.82	0.1
689.142	0.1
689.465	0.1
689.787	0.1
690.11	0.1
690.432	0.1
690.755	0.1
691.077	0.1
691.399	0.09
691.721	0.1
692.043	0.09
692.365	0.09
692.687	0.09
693.009	0.09
693.331	0.09
693.653	0.09
693.974	0.09
694.296	0.09
694.618	0.09
694.939	0.08
695.261	0.09
695.582	0.08
695.904	0.08
696.225	0.08
696.546	0.08
696.868	0.08
697.189	0.08
697.51	0.08
697.831	0.08
698.152	0.08
698.473	0.08
698.794	0.08
699.114	0.08
699.435	0.07
699.756	0.07
700.077	0.07
700.397	0.07
700.718	0.08
701.038	0.08
701.359	0.08
701.679	0.07
701.999	0.08
702.32	0.08
702.64	0.08
702.96	0.08
703.28	0.08
703.6	0.07
703.92	0.07
704.24	0.07
704.56	0.07
704.879	0.07
705.199	0.07
705.519	0.07
705.838	0.07
706.158	0.07
706.478	0.07
706.797	0.07
707.116	0.06
707.436	0.06
707.755	0.06
708.074	0.06
708.393	0.06
708.712	0.06
709.031	0.06
709.35	0.06
709.669	0.06
709.988	0.06
710.307	0.06
710.626	0.06
710.944	0.06
711.263	0.06
711.582	0.06
711.9	0.06
712.219	0.06
712.537	0.07
712.855	0.06
713.174	0.06
713.492	0.06
713.81	0.07
714.128	0.06
714.446	0.07
714.764	0.06
715.082	0.06
715.4	0.06
715.718	0.06
716.035	0.06
716.353	0.06
716.671	0.06
716.988	0.06
717.306	0.06
717.623	0.06
717.941	0.07
718.258	0.07
718.575	0.07
718.893	0.07
719.21	0.06
719.527	0.06
719.844	0.06
720.161	0.06
720.478	0.06
720.795	0.06
721.112	0.06
721.428	0.06
721.745	0.06
722.062	0.06
722.378	0.06
722.695	0.06
723.011	0.07
723.328	0.06
723.644	0.07
723.96	0.07
724.276	0.07
724.593	0.07
724.909	0.08
725.225	0.08
725.541	0.07
725.857	0.08
726.173	0.08
726.488	0.08
726.804	0.07
727.12	0.07
727.435	0.07
727.751	0.07
728.067	0.07
728.382	0.08
728.697	0.07
729.013	0.07
729.328	0.07
729.643	0.07
729.958	0.07
730.273	0.08
730.588	0.08
730.903	0.07
731.218	0.08
731.533	0.07
731.848	0.07
732.163	0.07
732.477	0.07
732.792	0.07
733.107	0.07
733.421	0.08
733.736	0.07
734.05	0.08
734.364	0.07
734.678	0.07
734.993	0.07
735.307	0.07
735.621	0.07
735.935	0.07
736.249	0.07
736.563	0.07
736.877	0.07
737.19	0.07
737.504	0.07
737.818	0.07
738.131	0.07
738.445	0.07
738.758	0.07
739.072	0.07
739.385	0.07
739.698	0.07
740.012	0.07
740.325	0.07
740.638	0.07
740.951	0.07
741.264	0.07
741.577	0.07
741.89	0.07
742.203	0.06
742.515	0.07
742.828	0.07
743.141	0.07
743.453	0.06
743.766	0.07
744.078	0.06
744.391	0.06
744.703	0.07
745.015	0.07
745.327	0.06
745.639	0.07
745.952	0.06
746.264	0.06
746.575	0.06
746.887	0.06
747.199	0.07
747.511	0.07
747.823	0.07
748.134	0.06
748.446	0.06
748.757	0.06
749.069	0.06
749.38	0.06
749.692	0.06
750.003	0.06
750.314	0.06
750.625	0.06
750.936	0.06
751.248	0.06
751.559	0.06
751.869	0.06
752.18	0.06
752.491	0.06
752.802	0.05
753.112	0.05
753.423	0.05
753.734	0.05
754.044	0.05
754.355	0.05
754.665	0.05
754.975	0.05
755.285	0.05
755.596	0.05
755.906	0.05
756.216	0.05
756.526	0.05
756.836	0.05
757.146	0.05
757.455	0.05
757.765	0.05
758.075	0.05
758.385	0.04
758.694	0.04
759.004	0.04
759.313	0.04
759.622	0.04
759.932	0.04
760.241	0.04
760.55	0.04
760.859	0.04
761.168	0.04
761.477	0.04
761.786	0.04
762.095	0.03
762.404	0.03
762.713	0.04
763.021	0.03
763.33	0.03
763.639	0.03
763.947	0.03
764.256	0.03
764.564	0.03
764.872	0.03
765.181	0.03
765.489	0.03
765.797	0.03
766.105	0.04
766.413	0.03
766.721	0.03
767.029	0.03
767.337	0.03
767.644	0.03
767.952	0.03
768.26	0.03
768.567	0.03
768.875	0.03
769.182	0.03
769.49	0.03
769.797	0.03
770.104	0.03
770.411	0.03
770.718	0.04
771.026	0.03
771.333	0.03
771.639	0.03
771.946	0.03
772.253	0.03
772.56	0.03
772.867	0.03
773.173	0.03
773.48	0.03
773.786	0.03
774.093	0.03
774.399	0.03
774.705	0.03
775.012	0.03
775.318	0.03
775.624	0.03
775.93	0.03
776.236	0.03
776.542	0.02
776.848	0.03
777.154	0.03
777.459	0.03
777.765	0.03
778.071	0.03
778.376	0.03
778.682	0.03
778.987	0.03
779.292	0.03
779.598	0.03
779.903	0.03
780.208	0.03
780.513	0.02
780.818	0.02
781.123	0.03
781.428	0.02
781.733	0.02
782.038	0.03
782.343	0.02
782.647	0.03
782.952	0.03
783.256	0.03
783.561	0.03
783.865	0.03
784.17	0.03
784.474	0.03
784.778	0.03
785.082	0.03
785.386	0.03
785.69	0.03
785.994	0.03
786.298	0.03
786.602	0.03
786.906	0.03
787.209	0.03
787.513	0.03
787.817	0.04
788.12	0.04
788.424	0.04
788.727	0.04
789.03	0.03
789.333	0.03
789.637	0.03
789.94	0.03
790.243	0.02
790.546	0.02
790.849	0.02
791.152	0.02
791.454	0.02
791.757	0.02
792.06	0.02
792.362	0.01
792.665	0.02
792.967	0.01
793.27	0.01
793.572	0.02
793.874	0.02
794.177	0.02
794.479	0.02
794.781	0.01
795.083	0.02
795.385	0.02
795.687	0.02
795.989	0.02
796.29	0.02
796.592	0.02
796.894	0.02
797.195	0.03
797.497	0.03
797.798	0.02
798.1	0.02
798.401	0.02
798.702	0.02
799.003	0.01
799.304	0.02
799.605	0.02
799.906	0.02
800.207	0.02
800.508	0.02
800.809	0.02
801.11	0.02
801.41	0.02
801.711	0.02
802.011	0.02
802.312	0.02
802.612	0.02
802.913	0.02
803.213	0.02
803.513	0.02
803.813	0.02
804.113	0.01
804.413	0.01
804.713	0.02
805.013	0.02
805.313	0.02
805.613	0.02
805.912	0.02
806.212	0.01
806.511	0.01
806.811	0.02
807.11	0.02
807.41	0.02
807.709	0.02
808.008	0.02
808.307	0.02
808.606	0.02
808.905	0.02
809.204	0.02
809.503	0.02
809.802	0.02
810.101	0.02
810.399	0.02
810.698	0.02
810.997	0.02
811.295	0.02
811.593	0.02
811.892	0.02
812.19	0.02
812.488	0.02
812.786	0.02
813.084	0.02
813.383	0.02
813.68	0.02
813.978	0.02
814.276	0.02
814.574	0.02
814.872	0.02
815.169	0.01
815.467	0.02
815.764	0.02
816.062	0.01
816.359	0.01
816.656	0.01
816.954	0.01
817.251	0.02
817.548	0.01
817.845	0.01
818.142	0.01
818.439	0.02
818.735	0.02
819.032	0.01
819.329	0.01
819.626	0.01
819.922	0.02
820.219	0.02
820.515	0.02
820.811	0.02
821.108	0.01
821.404	0.01
821.7	0.01
821.996	0.01
822.292	0.01
822.588	0.02
822.884	0.01
823.18	0.01
823.475	0.01
823.771	0.01
824.067	0.01
824.362	0.01
824.658	0.02
824.953	0.01
825.249	0.01
825.544	0.01
825.839	0.02
826.134	0.01
826.429	0.01
826.724	0.01
827.019	0.01
827.314	0.01
827.609	0.01
827.904	0.01
828.198	0.01
828.493	0.01
828.787	0.01
829.082	0.01
829.376	0.01
829.671	0.01
829.965	0.01
830.259	0.01
830.553	0.01
830.847	0
831.141	0.01
831.435	0.01
831.729	0
832.023	-0
832.317	0.01
832.61	0
832.904	0.01
833.197	0.01
833.491	0.01
833.784	0.01
834.077	0.01
834.371	0.01
834.664	0.02
834.957	0.01
835.25	0.01
835.543	0.02
835.836	0.02
836.129	0.01
836.421	0.01
836.714	0.01
837.007	0.01
837.299	0.01
837.592	0.01
837.884	0
838.177	-0
838.469	0.01
838.761	0.01
839.053	0
839.345	0.01
839.637	-0
839.929	0.01
840.221	0.01
840.513	0.01
840.805	0.02
841.096	0
841.388	0.01
841.68	0.01
841.971	0.01
842.262	0.01
842.554	0.01
842.845	0.01
843.136	0.01
843.427	0.01
843.718	0.01
844.009	0
844.3	0.01
844.591	0.01
844.882	0
845.173	0.01
845.463	-0
845.754	-0
846.044	0.01
846.335	0.01
846.625	0.01
846.915	0.01
847.206	0.01
847.496	0
847.786	0.01
848.076	-0
848.366	0.01
848.656	-0
848.945	0
849.235	0
849.525	0
849.814	0.02
850.104	0.02
850.393	0.01
850.683	0.02
850.972	0.01
851.261	0.01
851.551	0.01
851.84	0.02
852.129	0.01
852.418	0
852.707	0.02
852.995	-0
853.284	0.01
853.573	0.02
853.862	0.01
854.15	0.02
854.439	0
854.727	0
855.015	-0.01
855.304	-0
855.592	0
855.88	0
856.168	-0.01
856.456	-0.01
856.744	-0
857.032	-0.03
857.32	-0.01
857.607	0
857.895	-0.02
858.183	-0.01
858.47	0.01
858.757	-0.01
859.045	0.01
859.332	-0
859.619	0.01
859.907	-0
860.194	0
860.481	-0.01
860.768	-0
861.054	-0.01
861.341	0
861.628	-0.01
861.915	-0.01
862.201	-0.01
862.488	-0.02
862.774	-0.02
863.061	0
863.347	-0.01
863.633	-0.01
863.919	-0.01
864.205	-0.01
864.491	-0.01
864.777	-0.01
865.063	0
865.349	-0.01
865.635	-0
865.92	-0.01
866.206	-0
866.492	-0.03
866.777	-0.04
867.062	-0.01
867.348	-0.05
867.633	0.03
867.918	-0
868.203	-0
868.488	-0.01
868.773	-0.01
869.058	-0.08
869.343	-0.06
869.628	-0.02
869.912	-0.02
870.197	0
870.482	-0.04
870.766	-0.04
871.05	0.03
871.335	-0.06
871.619	-0.02
871.903	0.01
872.187	0.01
872.471	-0.04
872.755	-0.04
873.039	-0.02
873.323	-0.04
873.607	0
873.89	-0.04
874.174	-0.03
874.458	-0.04
874.741	0.06
875.024	-0.02
875.308	-0.01
875.591	-0.04
875.874	0.02
876.157	-0.04
876.44	-0
876.723	0.06
877.006	-0.01
877.289	-0.05
877.572	-0
877.854	0.02
878.137	-0.07
878.42	0.09
878.702	-0.04
878.984	0.01
879.267	-0.02
879.549	-0.02
879.831	-0.03
880.113	-0.07
880.395	0.01
880.677	-0.15
880.959	-0.04
