Data from Rubpy_EV_900_EDTA_Buffered_Absorbance_13-50-19-660.txt Node
Date: Tue Jun 30 13:50:19 BST 2026
User: fpm-admin
Spectrometer: OFX00224
Trigger mode: 0
Integration Time (sec): 7.000000E-2
Scans to average: 3
Nonlinearity correction enabled: false
Boxcar width: 0
Storing dark spectrum: false
XAxis mode: Wavelengths
Number of Pixels in Spectrum: 2136
>>>>>Begin Spectral Data<<<<<
154.91	-0.32
155.289	-1.3
155.669	-0
156.048	0.22
156.428	-0.53
156.807	-0
157.186	1.43
157.566	-0
157.945	0.2
158.325	-0.54
158.704	-0.1
159.083	-0.15
159.462	-0
159.842	0.03
160.221	-0.16
160.6	0.07
160.979	0.09
161.359	-0
161.738	0.25
162.117	0.24
162.496	-0.36
162.875	-1.08
163.254	-0.41
163.633	0.18
164.012	-0
164.391	0.12
164.77	-0.37
165.149	-0.08
165.528	-0.28
165.907	0.24
166.286	-0
166.665	-0
167.044	-0
167.423	0.17
167.802	-0.48
168.181	0.92
168.559	-0
168.938	-0
169.317	-0.33
169.696	-0
170.074	-0
170.453	0.28
170.832	-0
171.21	-0.19
171.589	-0
171.968	-0
172.346	0.18
172.725	0.78
173.103	-0
173.482	-0.1
173.861	0.82
174.239	0.08
174.617	-0
174.996	-0.07
175.374	-0
175.753	0.26
176.131	0.48
176.51	-0.24
176.888	-0
177.266	-0
177.645	0.01
178.023	0.71
178.401	-0.16
178.779	-0.05
179.158	-0
179.536	-0.19
179.914	0.18
180.292	-0
180.67	-0.05
181.048	0.31
181.427	0.26
181.805	-0
182.183	-1.04
182.561	-0
182.939	-0.63
183.317	0.51
183.695	0.35
184.073	-0
184.451	-0.24
184.829	0.29
185.206	-0.42
185.584	-0
185.962	-0
186.34	-0
186.718	0.25
187.096	0.12
187.473	0.97
187.851	-0.41
188.229	-0.03
188.607	0.1
188.984	0.13
189.362	0.15
189.74	0.08
190.117	0.08
190.495	0.09
190.872	0.12
191.25	0.19
191.627	0.09
192.005	0.09
192.382	0.15
192.76	0.08
193.137	0.09
193.515	0.08
193.892	0.24
194.269	0.14
194.647	0.21
195.024	0.22
195.401	0.35
195.779	0.17
196.156	0.21
196.533	0.08
196.91	0.19
197.288	0.18
197.665	0.08
198.042	0.12
198.419	0.05
198.796	0.18
199.173	0.17
199.55	0.3
199.927	0.23
200.304	0.16
200.681	0.08
201.058	0.05
201.435	0.24
201.812	0.16
202.189	0.14
202.566	0.23
202.943	0.19
203.32	0.17
203.697	0.2
204.073	0.31
204.45	0.1
204.827	0.12
205.204	0.22
205.58	0.18
205.957	0.23
206.334	0.15
206.71	0.24
207.087	0.07
207.464	0.12
207.84	0.17
208.217	0.1
208.593	0.11
208.97	0.14
209.346	0.11
209.723	0.19
210.099	0.11
210.476	0.17
210.852	0.11
211.228	0.15
211.605	0.22
211.981	0.26
212.357	0.19
212.733	0.3
213.11	0.12
213.486	0.07
213.862	0.27
214.238	0.23
214.614	0.22
214.991	0.24
215.367	0.13
215.743	0.2
216.119	0.19
216.495	0.16
216.871	0.12
217.247	0.16
217.623	0.13
217.999	0.11
218.375	0.14
218.751	0.01
219.127	0.12
219.502	0.17
219.878	0.17
220.254	0.19
220.63	0.05
221.006	0.2
221.381	0.18
221.757	0.17
222.133	0.14
222.508	0.25
222.884	0.2
223.26	0.16
223.635	0.06
224.011	0.18
224.386	0.13
224.762	0.18
225.137	0.24
225.513	0.22
225.888	0.16
226.264	0.19
226.639	0.11
227.014	0.11
227.39	0.16
227.765	0.09
228.14	0.22
228.516	0.08
228.891	0.11
229.266	0.32
229.641	0.27
230.017	0.21
230.392	0.29
230.767	0.19
231.142	0.24
231.517	0.17
231.892	0.11
232.267	0.19
232.642	0.11
233.017	0.15
233.392	0.19
233.767	0.2
234.142	0.16
234.517	0.06
234.892	0.13
235.267	0.2
235.641	0.17
236.016	0.34
236.391	0.11
236.766	0.16
237.14	0.16
237.515	0.16
237.89	0.22
238.264	0.16
238.639	0.14
239.014	0.16
239.388	0.1
239.763	0.27
240.137	0.16
240.512	0.1
240.886	0.14
241.261	0.18
241.635	0.21
242.009	0.16
242.384	0.24
242.758	0.31
243.132	0.15
243.507	0.26
243.881	0.24
244.255	0.19
244.629	0.17
245.004	0.18
245.378	0.17
245.752	0.17
246.126	0.12
246.5	0.2
246.874	0.2
247.248	0.2
247.622	0.14
247.996	0.19
248.37	0.21
248.744	0.23
249.118	0.07
249.492	0.17
249.866	0.19
250.24	0.15
250.613	0.16
250.987	0.16
251.361	0.21
251.735	0.18
252.108	0.2
252.482	0.26
252.856	0.14
253.229	0.23
253.603	0.23
253.977	0.19
254.35	0.22
254.724	0.14
255.097	0.15
255.471	0.14
255.844	0.23
256.218	0.2
256.591	0.17
256.964	0.13
257.338	0.19
257.711	0.12
258.084	0.13
258.458	0.19
258.831	0.19
259.204	0.14
259.577	0.15
259.95	0.2
260.323	0.19
260.697	0.22
261.07	0.13
261.443	0.11
261.816	0.19
262.189	0.13
262.562	0.26
262.935	0.19
263.308	0.21
263.68	0.21
264.053	0.27
264.426	0.16
264.799	0.14
265.172	0.2
265.545	0.24
265.917	0.15
266.29	0.15
266.663	0.23
267.035	0.18
267.408	0.18
267.781	0.18
268.153	0.18
268.526	0.29
268.898	0.23
269.271	0.14
269.643	0.19
270.016	0.21
270.388	0.26
270.76	0.21
271.133	0.21
271.505	0.21
271.877	0.22
272.25	0.17
272.622	0.18
272.994	0.18
273.366	0.14
273.739	0.14
274.111	0.11
274.483	0.19
274.855	0.15
275.227	0.22
275.599	0.15
275.971	0.2
276.343	0.2
276.715	0.13
277.087	0.14
277.459	0.27
277.831	0.23
278.203	0.28
278.574	0.23
278.946	0.25
279.318	0.23
279.69	0.15
280.061	0.17
280.433	0.24
280.805	0.25
281.176	0.23
281.548	0.22
281.92	0.18
282.291	0.18
282.663	0.22
283.034	0.27
283.406	0.2
283.777	0.27
284.148	0.22
284.52	0.18
284.891	0.19
285.262	0.24
285.634	0.27
286.005	0.18
286.376	0.23
286.747	0.24
287.119	0.2
287.49	0.18
287.861	0.16
288.232	0.19
288.603	0.29
288.974	0.21
289.345	0.22
289.716	0.23
290.087	0.16
290.458	0.24
290.829	0.18
291.2	0.15
291.571	0.17
291.941	0.17
292.312	0.2
292.683	0.25
293.054	0.26
293.424	0.21
293.795	0.18
294.166	0.28
294.536	0.3
294.907	0.25
295.277	0.16
295.648	0.19
296.018	0.18
296.389	0.28
296.759	0.16
297.13	0.14
297.5	0.21
297.871	0.18
298.241	0.12
298.611	0.18
298.981	0.2
299.352	0.16
299.722	0.22
300.092	0.19
300.462	0.19
300.832	0.21
301.202	0.17
301.573	0.15
301.943	0.17
302.313	0.11
302.683	0.14
303.053	0.14
303.422	0.14
303.792	0.15
304.162	0.16
304.532	0.16
304.902	0.15
305.272	0.15
305.641	0.14
306.011	0.15
306.381	0.15
306.75	0.15
307.12	0.16
307.49	0.17
307.859	0.17
308.229	0.18
308.598	0.18
308.968	0.17
309.337	0.17
309.707	0.18
310.076	0.18
310.445	0.18
310.815	0.18
311.184	0.19
311.553	0.18
311.923	0.19
312.292	0.19
312.661	0.19
313.03	0.19
313.399	0.19
313.768	0.2
314.137	0.2
314.506	0.2
314.875	0.19
315.244	0.2
315.613	0.2
315.982	0.2
316.351	0.2
316.72	0.19
317.089	0.19
317.458	0.19
317.826	0.19
318.195	0.19
318.564	0.19
318.933	0.18
319.301	0.19
319.67	0.18
320.038	0.18
320.407	0.18
320.775	0.18
321.144	0.18
321.512	0.17
321.881	0.17
322.249	0.17
322.618	0.17
322.986	0.16
323.354	0.17
323.723	0.17
324.091	0.16
324.459	0.16
324.827	0.16
325.195	0.15
325.564	0.16
325.932	0.16
326.3	0.15
326.668	0.16
327.036	0.16
327.404	0.15
327.772	0.16
328.14	0.16
328.508	0.16
328.875	0.16
329.243	0.16
329.611	0.16
329.979	0.16
330.346	0.16
330.714	0.16
331.082	0.16
331.449	0.16
331.817	0.16
332.185	0.17
332.552	0.17
332.92	0.17
333.287	0.16
333.655	0.17
334.022	0.17
334.389	0.17
334.757	0.17
335.124	0.18
335.491	0.17
335.859	0.18
336.226	0.18
336.593	0.19
336.96	0.18
337.327	0.19
337.695	0.19
338.062	0.19
338.429	0.19
338.796	0.2
339.163	0.2
339.53	0.2
339.897	0.2
340.263	0.21
340.63	0.22
340.997	0.21
341.364	0.22
341.731	0.22
342.097	0.22
342.464	0.23
342.831	0.23
343.197	0.24
343.564	0.24
343.931	0.24
344.297	0.24
344.664	0.25
345.03	0.25
345.396	0.26
345.763	0.26
346.129	0.26
346.496	0.27
346.862	0.27
347.228	0.27
347.594	0.28
347.961	0.28
348.327	0.29
348.693	0.29
349.059	0.3
349.425	0.3
349.791	0.31
350.157	0.31
350.523	0.32
350.889	0.33
351.255	0.33
351.621	0.33
351.987	0.34
352.353	0.35
352.719	0.35
353.084	0.36
353.45	0.37
353.816	0.38
354.181	0.38
354.547	0.39
354.913	0.4
355.278	0.4
355.644	0.41
356.009	0.42
356.375	0.43
356.74	0.44
357.106	0.45
357.471	0.45
357.836	0.46
358.202	0.48
358.567	0.48
358.932	0.49
359.297	0.5
359.663	0.5
360.028	0.52
360.393	0.52
360.758	0.53
361.123	0.53
361.488	0.54
361.853	0.55
362.218	0.55
362.583	0.56
362.948	0.56
363.312	0.57
363.677	0.58
364.042	0.59
364.407	0.6
364.772	0.61
365.136	0.62
365.501	0.64
365.865	0.65
366.23	0.65
366.595	0.66
366.959	0.68
367.324	0.7
367.688	0.72
368.052	0.72
368.417	0.73
368.781	0.74
369.145	0.74
369.51	0.75
369.874	0.75
370.238	0.75
370.602	0.76
370.967	0.75
371.331	0.75
371.695	0.75
372.059	0.74
372.423	0.74
372.787	0.74
373.151	0.73
373.515	0.74
373.878	0.73
374.242	0.74
374.606	0.73
374.97	0.73
375.334	0.74
375.697	0.74
376.061	0.74
376.425	0.75
376.788	0.75
377.152	0.75
377.515	0.75
377.879	0.77
378.242	0.77
378.606	0.79
378.969	0.78
379.333	0.8
379.696	0.81
380.059	0.82
380.422	0.84
380.786	0.85
381.149	0.87
381.512	0.88
381.875	0.91
382.238	0.92
382.601	0.94
382.964	0.97
383.327	0.98
383.69	1.02
384.053	1.04
384.416	1.06
384.779	1.1
385.142	1.11
385.504	1.12
385.867	1.13
386.23	1.16
386.593	1.16
386.955	1.16
387.318	1.16
387.68	1.16
388.043	1.15
388.405	1.15
388.768	1.14
389.13	1.13
389.493	1.12
389.855	1.13
390.217	1.11
390.58	1.12
390.942	1.11
391.304	1.12
391.666	1.14
392.028	1.16
392.391	1.18
392.753	1.21
393.115	1.24
393.477	1.29
393.839	1.32
394.201	1.37
394.563	1.43
394.924	1.48
395.286	1.53
395.648	1.57
396.01	1.59
396.371	1.65
396.733	1.64
397.095	1.67
397.456	1.67
397.818	1.67
398.18	1.68
398.541	1.65
398.903	1.61
399.264	1.58
399.625	1.55
399.987	1.5
400.348	1.44
400.709	1.38
401.071	1.32
401.432	1.25
401.793	1.18
402.154	1.1
402.515	1.03
402.876	0.96
403.238	0.89
403.599	0.84
403.96	0.78
404.32	0.72
404.681	0.66
405.042	0.62
405.403	0.58
405.764	0.54
406.125	0.5
406.485	0.47
406.846	0.44
407.207	0.41
407.567	0.39
407.928	0.38
408.288	0.35
408.649	0.34
409.009	0.31
409.37	0.3
409.73	0.28
410.091	0.26
410.451	0.27
410.811	0.25
411.171	0.24
411.532	0.22
411.892	0.22
412.252	0.21
412.612	0.21
412.972	0.19
413.332	0.19
413.692	0.19
414.052	0.18
414.412	0.17
414.772	0.16
415.132	0.17
415.492	0.16
415.851	0.16
416.211	0.15
416.571	0.15
416.931	0.14
417.29	0.14
417.65	0.14
418.009	0.13
418.369	0.13
418.728	0.13
419.088	0.12
419.447	0.12
419.807	0.13
420.166	0.12
420.525	0.11
420.884	0.12
421.244	0.12
421.603	0.11
421.962	0.1
422.321	0.11
422.68	0.11
423.039	0.1
423.398	0.1
423.757	0.1
424.116	0.1
424.475	0.1
424.834	0.1
425.193	0.1
425.551	0.09
425.91	0.09
426.269	0.09
426.628	0.09
426.986	0.1
427.345	0.1
427.703	0.09
428.062	0.08
428.42	0.09
428.779	0.09
429.137	0.09
429.496	0.08
429.854	0.08
430.212	0.09
430.57	0.08
430.929	0.07
431.287	0.07
431.645	0.08
432.003	0.08
432.361	0.08
432.719	0.08
433.077	0.08
433.435	0.08
433.793	0.07
434.151	0.07
434.509	0.08
434.866	0.07
435.224	0.08
435.582	0.08
435.94	0.07
436.297	0.07
436.655	0.08
437.012	0.07
437.37	0.07
437.727	0.07
438.085	0.07
438.442	0.07
438.8	0.07
439.157	0.07
439.514	0.07
439.872	0.06
440.229	0.07
440.586	0.07
440.943	0.06
441.3	0.06
441.657	0.06
442.014	0.06
442.371	0.06
442.728	0.06
443.085	0.05
443.442	0.05
443.799	0.06
444.156	0.05
444.513	0.05
444.869	0.05
445.226	0.05
445.583	0.06
445.939	0.05
446.296	0.05
446.652	0.03
447.009	0.05
447.365	0.04
447.722	0.05
448.078	0.04
448.434	0.05
448.791	0.04
449.147	0.04
449.503	0.04
449.859	0.04
450.215	0.04
450.571	0.04
450.928	0.04
451.284	0.03
451.64	0.02
451.995	0.02
452.351	0.02
452.707	0.03
453.063	0.02
453.419	0.01
453.775	0.02
454.13	0.02
454.486	0.01
454.842	0.02
455.197	0.01
455.553	0
455.908	-0
456.264	-0
456.619	-0.01
456.975	-0.02
457.33	-0
457.685	-0.02
458.04	-0.03
458.396	-0.02
458.751	-0.03
459.106	-0.04
459.461	-0.04
459.816	-0.04
460.171	-0.05
460.526	-0.05
460.881	-0.06
461.236	-0.06
461.591	-0.06
461.946	-0.07
462.301	-0.07
462.655	-0.08
463.01	-0.08
463.365	-0.08
463.719	-0.09
464.074	-0.1
464.428	-0.11
464.783	-0.11
465.137	-0.11
465.492	-0.12
465.846	-0.12
466.201	-0.12
466.555	-0.12
466.909	-0.12
467.263	-0.11
467.618	-0.11
467.972	-0.11
468.326	-0.11
468.68	-0.12
469.034	-0.13
469.388	-0.12
469.742	-0.13
470.096	-0.13
470.45	-0.13
470.804	-0.12
471.157	-0.13
471.511	-0.13
471.865	-0.12
472.218	-0.12
472.572	-0.12
472.926	-0.11
473.279	-0.11
473.633	-0.11
473.986	-0.1
474.34	-0.1
474.693	-0.09
475.046	-0.08
475.4	-0.07
475.753	-0.07
476.106	-0.06
476.459	-0.06
476.812	-0.05
477.165	-0.04
477.519	-0.03
477.872	-0.03
478.224	-0.03
478.577	-0.02
478.93	-0.02
479.283	-0.01
479.636	-0.01
479.989	-0.01
480.341	-0
480.694	0
481.047	-0
481.399	0.01
481.752	0.01
482.104	0.02
482.457	0.02
482.809	0.03
483.162	0.02
483.514	0.03
483.866	0.03
484.219	0.04
484.571	0.04
484.923	0.04
485.275	0.04
485.627	0.04
485.979	0.04
486.331	0.05
486.683	0.05
487.035	0.05
487.387	0.06
487.739	0.06
488.091	0.07
488.443	0.08
488.794	0.07
489.146	0.07
489.498	0.07
489.849	0.07
490.201	0.07
490.552	0.07
490.904	0.07
491.255	0.07
491.607	0.08
491.958	0.08
492.309	0.08
492.661	0.08
493.012	0.08
493.363	0.08
493.714	0.09
494.065	0.09
494.416	0.09
494.767	0.09
495.118	0.1
495.469	0.09
495.82	0.1
496.171	0.1
496.522	0.1
496.872	0.11
497.223	0.1
497.574	0.1
497.924	0.1
498.275	0.11
498.626	0.11
498.976	0.12
499.327	0.12
499.677	0.12
500.027	0.12
500.378	0.12
500.728	0.12
501.078	0.13
501.428	0.13
501.779	0.13
502.129	0.13
502.479	0.13
502.829	0.14
503.179	0.14
503.529	0.13
503.879	0.15
504.229	0.14
504.578	0.14
504.928	0.14
505.278	0.14
505.628	0.15
505.977	0.16
506.327	0.15
506.676	0.15
507.026	0.16
507.375	0.16
507.725	0.16
508.074	0.16
508.424	0.16
508.773	0.16
509.122	0.17
509.471	0.17
509.82	0.17
510.17	0.16
510.519	0.17
510.868	0.18
511.217	0.17
511.566	0.18
511.915	0.18
512.263	0.18
512.612	0.18
512.961	0.18
513.31	0.18
513.659	0.18
514.007	0.19
514.356	0.19
514.704	0.19
515.053	0.19
515.401	0.19
515.75	0.2
516.098	0.2
516.447	0.2
516.795	0.2
517.143	0.2
517.491	0.2
517.839	0.2
518.188	0.21
518.536	0.21
518.884	0.21
519.232	0.21
519.58	0.21
519.928	0.21
520.275	0.21
520.623	0.21
520.971	0.22
521.319	0.22
521.666	0.23
522.014	0.23
522.362	0.23
522.709	0.22
523.057	0.23
523.404	0.23
523.752	0.23
524.099	0.23
524.446	0.24
524.794	0.24
525.141	0.24
525.488	0.24
525.835	0.25
526.182	0.24
526.529	0.25
526.876	0.25
527.223	0.25
527.57	0.25
527.917	0.25
528.264	0.26
528.611	0.25
528.958	0.26
529.304	0.27
529.651	0.26
529.998	0.26
530.344	0.26
530.691	0.26
531.037	0.27
531.384	0.27
531.73	0.27
532.076	0.27
532.423	0.27
532.769	0.28
533.115	0.28
533.461	0.28
533.807	0.29
534.154	0.29
534.5	0.29
534.846	0.29
535.192	0.29
535.537	0.3
535.883	0.3
536.229	0.3
536.575	0.3
536.921	0.31
537.266	0.31
537.612	0.31
537.957	0.31
538.303	0.31
538.649	0.31
538.994	0.31
539.339	0.32
539.685	0.32
540.03	0.32
540.375	0.33
540.721	0.33
541.066	0.33
541.411	0.33
541.756	0.33
542.101	0.33
542.446	0.34
542.791	0.34
543.136	0.35
543.481	0.35
543.825	0.34
544.17	0.35
544.515	0.36
544.86	0.35
545.204	0.36
545.549	0.36
545.893	0.36
546.238	0.36
546.582	0.37
546.927	0.37
547.271	0.37
547.615	0.38
547.96	0.38
548.304	0.38
548.648	0.38
548.992	0.38
549.336	0.39
549.68	0.38
550.024	0.39
550.368	0.39
550.712	0.39
551.056	0.4
551.4	0.4
551.743	0.4
552.087	0.4
552.431	0.4
552.774	0.41
553.118	0.41
553.462	0.41
553.805	0.41
554.148	0.41
554.492	0.41
554.835	0.41
555.178	0.41
555.522	0.42
555.865	0.42
556.208	0.42
556.551	0.42
556.894	0.42
557.237	0.42
557.58	0.43
557.923	0.43
558.266	0.43
558.609	0.43
558.952	0.43
559.294	0.43
559.637	0.43
559.98	0.43
560.322	0.44
560.665	0.43
561.007	0.43
561.35	0.43
561.692	0.44
562.034	0.44
562.377	0.44
562.719	0.45
563.061	0.44
563.403	0.45
563.745	0.45
564.088	0.45
564.43	0.44
564.772	0.45
565.113	0.45
565.455	0.45
565.797	0.45
566.139	0.45
566.481	0.46
566.822	0.46
567.164	0.45
567.506	0.46
567.847	0.46
568.189	0.46
568.53	0.46
568.872	0.46
569.213	0.46
569.554	0.46
569.895	0.46
570.237	0.46
570.578	0.46
570.919	0.46
571.26	0.46
571.601	0.46
571.942	0.46
572.283	0.46
572.624	0.46
572.965	0.46
573.306	0.46
573.646	0.46
573.987	0.46
574.328	0.46
574.668	0.47
575.009	0.46
575.349	0.46
575.69	0.46
576.03	0.46
576.37	0.46
576.711	0.46
577.051	0.46
577.391	0.47
577.731	0.47
578.072	0.47
578.412	0.46
578.752	0.47
579.092	0.46
579.431	0.46
579.771	0.46
580.111	0.46
580.451	0.46
580.791	0.47
581.13	0.47
581.47	0.47
581.81	0.46
582.149	0.47
582.489	0.48
582.828	0.47
583.167	0.46
583.507	0.44
583.846	0.42
584.185	0.45
584.525	0.47
584.864	0.48
585.203	0.48
585.542	0.48
585.881	0.49
586.22	0.49
586.559	0.48
586.898	0.48
587.236	0.48
587.575	0.48
587.914	0.49
588.252	0.49
588.591	0.5
588.93	0.5
589.268	0.5
589.607	0.5
589.945	0.5
590.283	0.51
590.622	0.51
590.96	0.51
591.298	0.51
591.636	0.51
591.974	0.52
592.313	0.52
592.651	0.53
592.989	0.53
593.326	0.53
593.664	0.53
594.002	0.53
594.34	0.53
594.678	0.53
595.015	0.53
595.353	0.53
595.691	0.54
596.028	0.54
596.366	0.55
596.703	0.55
597.04	0.55
597.378	0.55
597.715	0.56
598.052	0.55
598.389	0.56
598.726	0.56
599.064	0.56
599.401	0.56
599.738	0.56
600.074	0.56
600.411	0.56
600.748	0.56
601.085	0.57
601.422	0.56
601.758	0.56
602.095	0.56
602.432	0.56
602.768	0.56
603.105	0.57
603.441	0.57
603.777	0.58
604.114	0.58
604.45	0.58
604.786	0.57
605.122	0.57
605.459	0.57
605.795	0.57
606.131	0.57
606.467	0.57
606.803	0.57
607.139	0.57
607.474	0.57
607.81	0.57
608.146	0.57
608.482	0.57
608.817	0.56
609.153	0.56
609.488	0.56
609.824	0.56
610.159	0.56
610.495	0.56
610.83	0.56
611.165	0.56
611.5	0.55
611.836	0.55
612.171	0.55
612.506	0.55
612.841	0.55
613.176	0.55
613.511	0.55
613.845	0.55
614.18	0.55
614.515	0.55
614.85	0.55
615.184	0.54
615.519	0.54
615.854	0.54
616.188	0.54
616.523	0.53
616.857	0.53
617.191	0.53
617.526	0.53
617.86	0.53
618.194	0.52
618.528	0.53
618.862	0.53
619.196	0.53
619.53	0.52
619.864	0.52
620.198	0.52
620.532	0.51
620.866	0.52
621.2	0.51
621.533	0.51
621.867	0.51
622.201	0.51
622.534	0.51
622.868	0.51
623.201	0.51
623.534	0.5
623.868	0.5
624.201	0.51
624.534	0.5
624.868	0.5
625.201	0.5
625.534	0.49
625.867	0.49
626.2	0.49
626.533	0.49
626.865	0.49
627.198	0.48
627.531	0.48
627.864	0.48
628.196	0.48
628.529	0.48
628.862	0.47
629.194	0.47
629.527	0.47
629.859	0.46
630.191	0.46
630.524	0.46
630.856	0.45
631.188	0.45
631.52	0.45
631.852	0.45
632.184	0.45
632.516	0.44
632.848	0.43
633.18	0.44
633.512	0.43
633.844	0.43
634.175	0.43
634.507	0.43
634.839	0.42
635.17	0.42
635.502	0.41
635.833	0.41
636.165	0.41
636.496	0.41
636.827	0.4
637.159	0.4
637.49	0.4
637.821	0.39
638.152	0.39
638.483	0.39
638.814	0.38
639.145	0.38
639.476	0.38
639.807	0.37
640.137	0.38
640.468	0.37
640.799	0.36
641.129	0.36
641.46	0.36
641.791	0.36
642.121	0.36
642.451	0.35
642.782	0.35
643.112	0.35
643.442	0.35
643.773	0.35
644.103	0.34
644.433	0.34
644.763	0.34
645.093	0.34
645.423	0.33
645.753	0.33
646.082	0.33
646.412	0.33
646.742	0.32
647.072	0.32
647.401	0.33
647.731	0.32
648.06	0.32
648.39	0.32
648.719	0.32
649.048	0.32
649.378	0.32
649.707	0.31
650.036	0.32
650.365	0.32
650.694	0.31
651.023	0.31
651.352	0.31
651.681	0.32
652.01	0.32
652.339	0.32
652.668	0.32
652.996	0.32
653.325	0.31
653.654	0.31
653.982	0.31
654.311	0.31
654.639	0.31
654.967	0.31
655.296	0.31
655.624	0.31
655.952	0.31
656.28	0.31
656.609	0.3
656.937	0.31
657.265	0.29
657.593	0.27
657.92	0.14
658.248	0.09
658.576	0.09
658.904	0.19
659.231	0.28
659.559	0.3
659.887	0.31
660.214	0.31
660.542	0.3
660.869	0.3
661.196	0.3
661.524	0.3
661.851	0.3
662.178	0.3
662.505	0.3
662.832	0.31
663.159	0.3
663.486	0.3
663.813	0.3
664.14	0.3
664.467	0.3
664.794	0.3
665.12	0.3
665.447	0.3
665.774	0.3
666.1	0.29
666.427	0.29
666.753	0.3
667.079	0.29
667.406	0.29
667.732	0.29
668.058	0.29
668.384	0.29
668.71	0.29
669.036	0.29
669.362	0.28
669.688	0.29
670.014	0.29
670.34	0.28
670.666	0.28
670.991	0.28
671.317	0.28
671.643	0.28
671.968	0.28
672.294	0.28
672.619	0.28
672.945	0.27
673.27	0.27
673.595	0.27
673.92	0.27
674.246	0.26
674.571	0.27
674.896	0.26
675.221	0.26
675.546	0.26
675.87	0.26
676.195	0.26
676.52	0.26
676.845	0.25
677.169	0.26
677.494	0.25
677.819	0.26
678.143	0.25
678.468	0.25
678.792	0.24
679.116	0.24
679.44	0.24
679.765	0.23
680.089	0.23
680.413	0.23
680.737	0.23
681.061	0.23
681.385	0.22
681.709	0.22
682.033	0.22
682.356	0.22
682.68	0.22
683.004	0.22
683.327	0.22
683.651	0.21
683.974	0.21
684.298	0.21
684.621	0.21
684.944	0.2
685.268	0.2
685.591	0.2
685.914	0.2
686.237	0.19
686.56	0.19
686.883	0.19
687.206	0.19
687.529	0.19
687.852	0.18
688.175	0.18
688.497	0.18
688.82	0.18
689.142	0.18
689.465	0.18
689.787	0.18
690.11	0.18
690.432	0.18
690.755	0.17
691.077	0.17
691.399	0.17
691.721	0.17
692.043	0.17
692.365	0.17
692.687	0.16
693.009	0.16
693.331	0.16
693.653	0.15
693.974	0.16
694.296	0.15
694.618	0.15
694.939	0.15
695.261	0.15
695.582	0.15
695.904	0.14
696.225	0.14
696.546	0.14
696.868	0.14
697.189	0.14
697.51	0.14
697.831	0.14
698.152	0.14
698.473	0.14
698.794	0.13
699.114	0.13
699.435	0.13
699.756	0.13
700.077	0.13
700.397	0.12
700.718	0.13
701.038	0.13
701.359	0.12
701.679	0.13
701.999	0.13
702.32	0.13
702.64	0.13
702.96	0.13
703.28	0.12
703.6	0.12
703.92	0.12
704.24	0.12
704.56	0.12
704.879	0.12
705.199	0.12
705.519	0.12
705.838	0.12
706.158	0.12
706.478	0.11
706.797	0.11
707.116	0.11
707.436	0.11
707.755	0.11
708.074	0.11
708.393	0.11
708.712	0.11
709.031	0.11
709.35	0.11
709.669	0.11
709.988	0.11
710.307	0.1
710.626	0.11
710.944	0.11
711.263	0.11
711.582	0.11
711.9	0.11
712.219	0.11
712.537	0.11
712.855	0.11
713.174	0.11
713.492	0.11
713.81	0.11
714.128	0.11
714.446	0.11
714.764	0.1
715.082	0.1
715.4	0.11
715.718	0.11
716.035	0.1
716.353	0.1
716.671	0.1
716.988	0.1
717.306	0.11
717.623	0.11
717.941	0.11
718.258	0.11
718.575	0.12
718.893	0.11
719.21	0.11
719.527	0.11
719.844	0.11
720.161	0.11
720.478	0.11
720.795	0.11
721.112	0.11
721.428	0.11
721.745	0.11
722.062	0.11
722.378	0.11
722.695	0.11
723.011	0.11
723.328	0.11
723.644	0.12
723.96	0.12
724.276	0.12
724.593	0.12
724.909	0.12
725.225	0.13
725.541	0.12
725.857	0.13
726.173	0.12
726.488	0.12
726.804	0.12
727.12	0.12
727.435	0.12
727.751	0.12
728.067	0.12
728.382	0.13
728.697	0.12
729.013	0.13
729.328	0.12
729.643	0.12
729.958	0.12
730.273	0.12
730.588	0.12
730.903	0.12
731.218	0.13
731.533	0.13
731.848	0.12
732.163	0.12
732.477	0.12
732.792	0.12
733.107	0.12
733.421	0.12
733.736	0.12
734.05	0.12
734.364	0.12
734.678	0.12
734.993	0.12
735.307	0.12
735.621	0.12
735.935	0.12
736.249	0.12
736.563	0.12
736.877	0.12
737.19	0.12
737.504	0.12
737.818	0.12
738.131	0.12
738.445	0.12
738.758	0.12
739.072	0.12
739.385	0.12
739.698	0.12
740.012	0.12
740.325	0.12
740.638	0.11
740.951	0.11
741.264	0.11
741.577	0.11
741.89	0.11
742.203	0.11
742.515	0.11
742.828	0.11
743.141	0.11
743.453	0.11
743.766	0.1
744.078	0.11
744.391	0.1
744.703	0.1
745.015	0.1
745.327	0.11
745.639	0.11
745.952	0.11
746.264	0.11
746.575	0.11
746.887	0.1
747.199	0.1
747.511	0.1
747.823	0.1
748.134	0.1
748.446	0.1
748.757	0.1
749.069	0.1
749.38	0.09
749.692	0.09
750.003	0.09
750.314	0.09
750.625	0.09
750.936	0.09
751.248	0.09
751.559	0.09
751.869	0.09
752.18	0.09
752.491	0.09
752.802	0.08
753.112	0.08
753.423	0.08
753.734	0.09
754.044	0.08
754.355	0.08
754.665	0.08
754.975	0.08
755.285	0.08
755.596	0.08
755.906	0.08
756.216	0.08
756.526	0.08
756.836	0.07
757.146	0.07
757.455	0.07
757.765	0.07
758.075	0.07
758.385	0.07
758.694	0.07
759.004	0.07
759.313	0.07
759.622	0.07
759.932	0.07
760.241	0.07
760.55	0.06
760.859	0.06
761.168	0.06
761.477	0.06
761.786	0.06
762.095	0.06
762.404	0.05
762.713	0.06
763.021	0.05
763.33	0.05
763.639	0.05
763.947	0.05
764.256	0.05
764.564	0.05
764.872	0.05
765.181	0.05
765.489	0.05
765.797	0.05
766.105	0.05
766.413	0.05
766.721	0.05
767.029	0.05
767.337	0.05
767.644	0.05
767.952	0.05
768.26	0.05
768.567	0.05
768.875	0.05
769.182	0.05
769.49	0.04
769.797	0.04
770.104	0.05
770.411	0.05
770.718	0.05
771.026	0.04
771.333	0.04
771.639	0.05
771.946	0.04
772.253	0.04
772.56	0.04
772.867	0.04
773.173	0.04
773.48	0.04
773.786	0.04
774.093	0.04
774.399	0.04
774.705	0.04
775.012	0.04
775.318	0.04
775.624	0.04
775.93	0.04
776.236	0.04
776.542	0.04
776.848	0.04
777.154	0.04
777.459	0.04
777.765	0.04
778.071	0.04
778.376	0.04
778.682	0.04
778.987	0.04
779.292	0.04
779.598	0.04
779.903	0.04
780.208	0.04
780.513	0.04
780.818	0.04
781.123	0.04
781.428	0.04
781.733	0.04
782.038	0.04
782.343	0.04
782.647	0.04
782.952	0.04
783.256	0.04
783.561	0.04
783.865	0.04
784.17	0.04
784.474	0.04
784.778	0.04
785.082	0.04
785.386	0.04
785.69	0.04
785.994	0.04
786.298	0.04
786.602	0.04
786.906	0.04
787.209	0.04
787.513	0.04
787.817	0.04
788.12	0.04
788.424	0.04
788.727	0.04
789.03	0.04
789.333	0.04
789.637	0.03
789.94	0.03
790.243	0.03
790.546	0.03
790.849	0.03
791.152	0.03
791.454	0.03
791.757	0.03
792.06	0.03
792.362	0.03
792.665	0.03
792.967	0.02
793.27	0.02
793.572	0.03
793.874	0.03
794.177	0.03
794.479	0.03
794.781	0.03
795.083	0.03
795.385	0.03
795.687	0.03
795.989	0.03
796.29	0.03
796.592	0.03
796.894	0.04
797.195	0.04
797.497	0.04
797.798	0.04
798.1	0.03
798.401	0.03
798.702	0.03
799.003	0.02
799.304	0.03
799.605	0.03
799.906	0.03
800.207	0.03
800.508	0.03
800.809	0.03
801.11	0.03
801.41	0.02
801.711	0.03
802.011	0.02
802.312	0.03
802.612	0.03
802.913	0.03
803.213	0.03
803.513	0.03
803.813	0.03
804.113	0.02
804.413	0.03
804.713	0.02
805.013	0.03
805.313	0.03
805.613	0.02
805.912	0.02
806.212	0.02
806.511	0.02
806.811	0.03
807.11	0.03
807.41	0.02
807.709	0.03
808.008	0.03
808.307	0.03
808.606	0.03
808.905	0.03
809.204	0.03
809.503	0.03
809.802	0.03
810.101	0.03
810.399	0.03
810.698	0.03
810.997	0.03
811.295	0.04
811.593	0.04
811.892	0.04
812.19	0.04
812.488	0.03
812.786	0.03
813.084	0.03
813.383	0.03
813.68	0.03
813.978	0.03
814.276	0.03
814.574	0.03
814.872	0.03
815.169	0.02
815.467	0.03
815.764	0.03
816.062	0.02
816.359	0.02
816.656	0.02
816.954	0.02
817.251	0.03
817.548	0.02
817.845	0.03
818.142	0.03
818.439	0.03
818.735	0.02
819.032	0.03
819.329	0.03
819.626	0.02
819.922	0.02
820.219	0.03
820.515	0.03
820.811	0.02
821.108	0.02
821.404	0.02
821.7	0.02
821.996	0.02
822.292	0.02
822.588	0.03
822.884	0.02
823.18	0.02
823.475	0.02
823.771	0.02
824.067	0.02
824.362	0.02
824.658	0.03
824.953	0.03
825.249	0.03
825.544	0.02
825.839	0.03
826.134	0.02
826.429	0.02
826.724	0.02
827.019	0.02
827.314	0.02
827.609	0.02
827.904	0.02
828.198	0.02
828.493	0.02
828.787	0.02
829.082	0.02
829.376	0.02
829.671	0.02
829.965	0.02
830.259	0.01
830.553	0.01
830.847	0.02
831.141	0.02
831.435	0.02
831.729	0.01
832.023	0.01
832.317	0.02
832.61	0.01
832.904	0.02
833.197	0.02
833.491	0.01
833.784	0.01
834.077	0.02
834.371	0.02
834.664	0.02
834.957	0.02
835.25	0.03
835.543	0.03
835.836	0.02
836.129	0.02
836.421	0.02
836.714	0.02
837.007	0.02
837.299	0.02
837.592	0.02
837.884	0.02
838.177	0.01
838.469	0.01
838.761	0.01
839.053	0.01
839.345	0.02
839.637	0.01
839.929	0.02
840.221	0.02
840.513	0.02
840.805	0.02
841.096	0.02
841.388	0.02
841.68	0.02
841.971	0.02
842.262	0.02
842.554	0.02
842.845	0.02
843.136	0.02
843.427	0.02
843.718	0.01
844.009	0.01
844.3	0.02
844.591	0.02
844.882	0.01
845.173	0.02
845.463	0.02
845.754	0.02
846.044	0.02
846.335	0.02
846.625	0.02
846.915	0.01
847.206	0.01
847.496	0.02
847.786	0.02
848.076	0.01
848.366	0.01
848.656	0.01
848.945	0
849.235	0.01
849.525	0.01
849.814	0.03
850.104	0.02
850.393	0.02
850.683	0.02
850.972	0.01
851.261	0.02
851.551	0.02
851.84	0.03
852.129	0.01
852.418	0.01
852.707	0.02
852.995	0.02
853.284	0.02
853.573	0.04
853.862	0.01
854.15	0.02
854.439	0.01
854.727	0
855.015	0.01
855.304	0.01
855.592	0.01
855.88	-0.01
856.168	-0
856.456	-0.01
856.744	0
857.032	-0.01
857.32	-0.01
857.607	0
857.895	-0
858.183	0.01
858.47	0
858.757	-0.01
859.045	0.02
859.332	0.02
859.619	0.02
859.907	0.01
860.194	0.02
860.481	0.01
860.768	0
861.054	-0
861.341	0.02
861.628	-0
861.915	-0.01
862.201	0.01
862.488	-0.01
862.774	0
863.061	0.01
863.347	0.01
863.633	-0.02
863.919	0.01
864.205	-0.01
864.491	-0.01
864.777	0.01
865.063	0.01
865.349	0.01
865.635	0.01
865.92	0.01
866.206	-0.01
866.492	0.01
866.777	-0.02
867.062	-0.03
867.348	-0.03
867.633	0.03
867.918	-0.01
868.203	0.01
868.488	-0.03
868.773	-0.02
869.058	-0.05
869.343	-0.05
869.628	0
869.912	-0.03
870.197	-0.01
870.482	-0.04
870.766	-0.03
871.05	0.02
871.335	0.01
871.619	0.01
871.903	-0.03
872.187	0.02
872.471	-0.02
872.755	-0.05
873.039	0.01
873.323	-0.03
873.607	0.01
873.89	-0.05
874.174	-0.05
874.458	-0.03
874.741	0.03
875.024	-0
875.308	0.02
875.591	-0.07
875.874	0.02
876.157	-0.05
876.44	-0.03
876.723	0.04
877.006	0.03
877.289	-0.07
877.572	0.04
877.854	0.04
878.137	0.08
878.42	0.06
878.702	-0.06
878.984	-0.02
879.267	-0
879.549	0.03
879.831	0.01
880.113	-0.03
880.395	-0.03
880.677	-0.12
880.959	0.02
