Data from Rubpy_EV_900_EDTA_Buffered_Absorbance_14-00-09-789.txt Node
Date: Tue Jun 30 14:00:09 BST 2026
User: fpm-admin
Spectrometer: OFX00224
Trigger mode: 0
Integration Time (sec): 7.000000E-2
Scans to average: 3
Nonlinearity correction enabled: false
Boxcar width: 0
Storing dark spectrum: false
XAxis mode: Wavelengths
Number of Pixels in Spectrum: 2136
>>>>>Begin Spectral Data<<<<<
154.91	0.07
155.289	-1.04
155.669	-0
156.048	-0.72
156.428	-0.39
156.807	0.3
157.186	0.48
157.566	1.24
157.945	0.01
158.325	-0.59
158.704	-0
159.083	0.23
159.462	-0.13
159.842	-0.08
160.221	-0
160.6	0.01
160.979	-0.21
161.359	-0
161.738	-0.21
162.117	-0.64
162.496	-0
162.875	-0
163.254	0.6
163.633	0.47
164.012	-1.3
164.391	-0.03
164.77	-0.39
165.149	-0.2
165.528	0.18
165.907	-0
166.286	-0
166.665	-0.48
167.044	-0
167.423	0.46
167.802	-0.37
168.181	-0.15
168.559	-0
168.938	-0
169.317	-0
169.696	-0
170.074	-0
170.453	0.62
170.832	-0
171.21	-0
171.589	-0
171.968	-0.94
172.346	-1.01
172.725	-0
173.103	-0
173.482	-0.04
173.861	0.19
174.239	0.29
174.617	0.65
174.996	-0
175.374	0.3
175.753	0.07
176.131	0.85
176.51	-0
176.888	-0
177.266	-0
177.645	0.06
178.023	0.25
178.401	-0.25
178.779	0.25
179.158	-0
179.536	0.26
179.914	-0.1
180.292	-1.01
180.67	-0
181.048	-0
181.427	-0.16
181.805	-0
182.183	-0
182.561	-0
182.939	-0
183.317	1.2
183.695	0.27
184.073	-0.3
184.451	-0.83
184.829	-0
185.206	-0
185.584	-0.78
185.962	0.26
186.34	-0.04
186.718	-0.32
187.096	-0.18
187.473	0.31
187.851	-0.41
188.229	-0.13
188.607	0.09
188.984	0.14
189.362	0.1
189.74	0.01
190.117	0.09
190.495	0.05
190.872	0.09
191.25	0.08
191.627	0.17
192.005	0.09
192.382	0.1
192.76	0.07
193.137	0.13
193.515	0.1
193.892	0.07
194.269	0.03
194.647	0.14
195.024	0.24
195.401	0.17
195.779	0.15
196.156	0.2
196.533	0.1
196.91	0.04
197.288	0.13
197.665	0.09
198.042	0.14
198.419	0.1
198.796	0.13
199.173	0.1
199.55	0.22
199.927	-0
200.304	0.1
200.681	0.16
201.058	0.14
201.435	0.18
201.812	0.17
202.189	0.09
202.566	0.04
202.943	0.04
203.32	0.06
203.697	0.12
204.073	0.14
204.45	0.24
204.827	0.12
205.204	0.19
205.58	0.19
205.957	0.12
206.334	0.22
206.71	0.14
207.087	0.15
207.464	0.08
207.84	0.22
208.217	0.06
208.593	0.16
208.97	0.15
209.346	0.12
209.723	0.18
210.099	0.16
210.476	0.1
210.852	0.09
211.228	0.2
211.605	0.18
211.981	0.14
212.357	0.07
212.733	0.21
213.11	0.14
213.486	0.12
213.862	0.15
214.238	0.13
214.614	0.14
214.991	0.17
215.367	0.17
215.743	0.18
216.119	0.13
216.495	-0.01
216.871	0.13
217.247	0.11
217.623	0.14
217.999	0.08
218.375	0.04
218.751	0.12
219.127	0.14
219.502	0.22
219.878	0.23
220.254	0.12
220.63	0.2
221.006	0.13
221.381	0.12
221.757	0.12
222.133	0.17
222.508	0.13
222.884	0.27
223.26	0.17
223.635	0.14
224.011	0.18
224.386	0.16
224.762	0.13
225.137	0.13
225.513	0.19
225.888	0.15
226.264	0.12
226.639	0.14
227.014	0.14
227.39	0.22
227.765	0.14
228.14	0.25
228.516	0.13
228.891	0.17
229.266	0.22
229.641	0.2
230.017	0.14
230.392	0.28
230.767	0.15
231.142	0.15
231.517	0.19
231.892	0.14
232.267	0.21
232.642	0.14
233.017	0.2
233.392	0.28
233.767	0.23
234.142	0.13
234.517	0.17
234.892	0.07
235.267	0.15
235.641	0.24
236.016	0.28
236.391	0.14
236.766	0.12
237.14	0.11
237.515	0.14
237.89	0.3
238.264	0.18
238.639	0.14
239.014	0.13
239.388	0.16
239.763	0.2
240.137	0.1
240.512	0.07
240.886	0.12
241.261	0.15
241.635	0.2
242.009	0.24
242.384	0.19
242.758	0.34
243.132	0.02
243.507	0.16
243.881	0.13
244.255	0.18
244.629	0.21
245.004	0.12
245.378	0.19
245.752	0.24
246.126	0.08
246.5	0.12
246.874	0.22
247.248	0.16
247.622	0.09
247.996	0.07
248.37	0.12
248.744	0.23
249.118	0.37
249.492	0.24
249.866	0.19
250.24	0.16
250.613	0.13
250.987	0.22
251.361	0.17
251.735	0.12
252.108	0.14
252.482	0.26
252.856	0.2
253.229	0.17
253.603	0.21
253.977	0.27
254.35	0.3
254.724	0.2
255.097	0.2
255.471	0.25
255.844	0.16
256.218	0.2
256.591	0.15
256.964	0.14
257.338	0.21
257.711	0.06
258.084	0.1
258.458	0.21
258.831	0.18
259.204	0.12
259.577	0.14
259.95	0.21
260.323	0.12
260.697	0.21
261.07	0.23
261.443	0.18
261.816	0.2
262.189	0.15
262.562	0.13
262.935	0.21
263.308	0.21
263.68	0.18
264.053	0.22
264.426	0.14
264.799	0.21
265.172	0.15
265.545	0.2
265.917	0.25
266.29	0.24
266.663	0.33
267.035	0.16
267.408	0.19
267.781	0.16
268.153	0.21
268.526	0.24
268.898	0.25
269.271	0.13
269.643	0.18
270.016	0.17
270.388	0.15
270.76	0.21
271.133	0.21
271.505	0.27
271.877	0.23
272.25	0.23
272.622	0.2
272.994	0.18
273.366	0.2
273.739	0.17
274.111	0.1
274.483	0.26
274.855	0.2
275.227	0.14
275.599	0.12
275.971	0.16
276.343	0.17
276.715	0.16
277.087	0.17
277.459	0.18
277.831	0.25
278.203	0.3
278.574	0.17
278.946	0.18
279.318	0.22
279.69	0.24
280.061	0.12
280.433	0.17
280.805	0.3
281.176	0.22
281.548	0.26
281.92	0.19
282.291	0.26
282.663	0.17
283.034	0.25
283.406	0.17
283.777	0.26
284.148	0.25
284.52	0.12
284.891	0.22
285.262	0.2
285.634	0.28
286.005	0.21
286.376	0.26
286.747	0.2
287.119	0.17
287.49	0.22
287.861	0.22
288.232	0.15
288.603	0.25
288.974	0.2
289.345	0.25
289.716	0.24
290.087	0.24
290.458	0.25
290.829	0.17
291.2	0.17
291.571	0.15
291.941	0.18
292.312	0.18
292.683	0.24
293.054	0.23
293.424	0.21
293.795	0.19
294.166	0.27
294.536	0.27
294.907	0.16
295.277	0.16
295.648	0.22
296.018	0.2
296.389	0.21
296.759	0.14
297.13	0.17
297.5	0.19
297.871	0.2
298.241	0.17
298.611	0.19
298.981	0.18
299.352	0.16
299.722	0.18
300.092	0.17
300.462	0.23
300.832	0.19
301.202	0.14
301.573	0.17
301.943	0.2
302.313	0.16
302.683	0.17
303.053	0.15
303.422	0.17
303.792	0.17
304.162	0.17
304.532	0.18
304.902	0.17
305.272	0.17
305.641	0.18
306.011	0.17
306.381	0.17
306.75	0.17
307.12	0.19
307.49	0.18
307.859	0.18
308.229	0.2
308.598	0.2
308.968	0.21
309.337	0.21
309.707	0.21
310.076	0.21
310.445	0.22
310.815	0.21
311.184	0.21
311.553	0.22
311.923	0.23
312.292	0.22
312.661	0.22
313.03	0.22
313.399	0.22
313.768	0.23
314.137	0.23
314.506	0.23
314.875	0.22
315.244	0.23
315.613	0.22
315.982	0.22
316.351	0.23
316.72	0.22
317.089	0.22
317.458	0.22
317.826	0.22
318.195	0.22
318.564	0.22
318.933	0.22
319.301	0.21
319.67	0.21
320.038	0.22
320.407	0.21
320.775	0.21
321.144	0.2
321.512	0.2
321.881	0.2
322.249	0.2
322.618	0.19
322.986	0.2
323.354	0.19
323.723	0.19
324.091	0.19
324.459	0.19
324.827	0.19
325.195	0.19
325.564	0.18
325.932	0.19
326.3	0.18
326.668	0.18
327.036	0.18
327.404	0.18
327.772	0.19
328.14	0.18
328.508	0.18
328.875	0.19
329.243	0.19
329.611	0.19
329.979	0.19
330.346	0.19
330.714	0.18
331.082	0.19
331.449	0.18
331.817	0.19
332.185	0.19
332.552	0.19
332.92	0.19
333.287	0.2
333.655	0.2
334.022	0.2
334.389	0.2
334.757	0.2
335.124	0.2
335.491	0.2
335.859	0.21
336.226	0.21
336.593	0.22
336.96	0.22
337.327	0.22
337.695	0.22
338.062	0.22
338.429	0.23
338.796	0.23
339.163	0.23
339.53	0.23
339.897	0.24
340.263	0.24
340.63	0.24
340.997	0.25
341.364	0.25
341.731	0.26
342.097	0.26
342.464	0.27
342.831	0.27
343.197	0.28
343.564	0.28
343.931	0.28
344.297	0.29
344.664	0.29
345.03	0.3
345.396	0.3
345.763	0.31
346.129	0.31
346.496	0.31
346.862	0.32
347.228	0.33
347.594	0.32
347.961	0.33
348.327	0.34
348.693	0.34
349.059	0.35
349.425	0.35
349.791	0.36
350.157	0.37
350.523	0.37
350.889	0.38
351.255	0.38
351.621	0.39
351.987	0.39
352.353	0.41
352.719	0.42
353.084	0.42
353.45	0.42
353.816	0.44
354.181	0.45
354.547	0.46
354.913	0.46
355.278	0.47
355.644	0.48
356.009	0.49
356.375	0.51
356.74	0.52
357.106	0.52
357.471	0.53
357.836	0.54
358.202	0.55
358.567	0.57
358.932	0.57
359.297	0.58
359.663	0.59
360.028	0.6
360.393	0.61
360.758	0.62
361.123	0.62
361.488	0.63
361.853	0.64
362.218	0.64
362.583	0.65
362.948	0.66
363.312	0.67
363.677	0.68
364.042	0.69
364.407	0.7
364.772	0.71
365.136	0.72
365.501	0.74
365.865	0.75
366.23	0.76
366.595	0.78
366.959	0.8
367.324	0.81
367.688	0.83
368.052	0.83
368.417	0.84
368.781	0.86
369.145	0.87
369.51	0.88
369.874	0.87
370.238	0.89
370.602	0.88
370.967	0.87
371.331	0.87
371.695	0.87
372.059	0.86
372.423	0.87
372.787	0.86
373.151	0.85
373.515	0.85
373.878	0.85
374.242	0.85
374.606	0.84
374.97	0.85
375.334	0.86
375.697	0.86
376.061	0.86
376.425	0.87
376.788	0.88
377.152	0.88
377.515	0.88
377.879	0.89
378.242	0.89
378.606	0.91
378.969	0.92
379.333	0.93
379.696	0.94
380.059	0.94
380.422	0.97
380.786	0.98
381.149	1.01
381.512	1.03
381.875	1.05
382.238	1.06
382.601	1.08
382.964	1.12
383.327	1.15
383.69	1.17
384.053	1.21
384.416	1.23
384.779	1.25
385.142	1.27
385.504	1.29
385.867	1.3
386.23	1.32
386.593	1.34
386.955	1.34
387.318	1.33
387.68	1.33
388.043	1.34
388.405	1.31
388.768	1.32
389.13	1.31
389.493	1.3
389.855	1.28
390.217	1.28
390.58	1.3
390.942	1.27
391.304	1.3
391.666	1.31
392.028	1.32
392.391	1.35
392.753	1.4
393.115	1.43
393.477	1.47
393.839	1.5
394.201	1.55
394.563	1.6
394.924	1.67
395.286	1.72
395.648	1.78
396.01	1.76
396.371	1.78
396.733	1.83
397.095	1.85
397.456	1.85
397.818	1.85
398.18	1.81
398.541	1.8
398.903	1.78
399.264	1.73
399.625	1.72
399.987	1.68
400.348	1.64
400.709	1.57
401.071	1.49
401.432	1.42
401.793	1.34
402.154	1.25
402.515	1.19
402.876	1.1
403.238	1.03
403.599	0.97
403.96	0.89
404.32	0.82
404.681	0.77
405.042	0.72
405.403	0.67
405.764	0.62
406.125	0.58
406.485	0.54
406.846	0.51
407.207	0.48
407.567	0.45
407.928	0.43
408.288	0.41
408.649	0.39
409.009	0.37
409.37	0.35
409.73	0.33
410.091	0.31
410.451	0.3
410.811	0.28
411.171	0.27
411.532	0.27
411.892	0.25
412.252	0.24
412.612	0.23
412.972	0.22
413.332	0.21
413.692	0.21
414.052	0.21
414.412	0.19
414.772	0.19
415.132	0.18
415.492	0.18
415.851	0.17
416.211	0.17
416.571	0.17
416.931	0.16
417.29	0.16
417.65	0.16
418.009	0.15
418.369	0.15
418.728	0.15
419.088	0.14
419.447	0.14
419.807	0.14
420.166	0.14
420.525	0.13
420.884	0.13
421.244	0.13
421.603	0.12
421.962	0.12
422.321	0.12
422.68	0.12
423.039	0.12
423.398	0.12
423.757	0.11
424.116	0.11
424.475	0.11
424.834	0.11
425.193	0.11
425.551	0.11
425.91	0.1
426.269	0.1
426.628	0.1
426.986	0.11
427.345	0.11
427.703	0.1
428.062	0.1
428.42	0.1
428.779	0.1
429.137	0.1
429.496	0.09
429.854	0.09
430.212	0.09
430.57	0.09
430.929	0.08
431.287	0.08
431.645	0.09
432.003	0.09
432.361	0.08
432.719	0.08
433.077	0.09
433.435	0.09
433.793	0.08
434.151	0.08
434.509	0.09
434.866	0.08
435.224	0.09
435.582	0.08
435.94	0.08
436.297	0.08
436.655	0.08
437.012	0.08
437.37	0.08
437.727	0.08
438.085	0.08
438.442	0.07
438.8	0.08
439.157	0.07
439.514	0.08
439.872	0.08
440.229	0.07
440.586	0.08
440.943	0.07
441.3	0.07
441.657	0.07
442.014	0.07
442.371	0.06
442.728	0.06
443.085	0.06
443.442	0.06
443.799	0.06
444.156	0.06
444.513	0.07
444.869	0.07
445.226	0.05
445.583	0.07
445.939	0.05
446.296	0.05
446.652	0.04
447.009	0.06
447.365	0.06
447.722	0.05
448.078	0.05
448.434	0.05
448.791	0.05
449.147	0.04
449.503	0.04
449.859	0.05
450.215	0.05
450.571	0.04
450.928	0.03
451.284	0.04
451.64	0.04
451.995	0.03
452.351	0.03
452.707	0.03
453.063	0.03
453.419	0.03
453.775	0.03
454.13	0.02
454.486	0.03
454.842	0.02
455.197	0.01
455.553	0
455.908	0
456.264	0.01
456.619	-0.01
456.975	-0.02
457.33	0
457.685	-0.01
458.04	-0.02
458.396	-0.02
458.751	-0.02
459.106	-0.04
459.461	-0.04
459.816	-0.04
460.171	-0.04
460.526	-0.05
460.881	-0.06
461.236	-0.06
461.591	-0.06
461.946	-0.07
462.301	-0.07
462.655	-0.07
463.01	-0.07
463.365	-0.08
463.719	-0.08
464.074	-0.09
464.428	-0.09
464.783	-0.1
465.137	-0.11
465.492	-0.1
465.846	-0.11
466.201	-0.11
466.555	-0.11
466.909	-0.11
467.263	-0.11
467.618	-0.1
467.972	-0.1
468.326	-0.1
468.68	-0.11
469.034	-0.12
469.388	-0.12
469.742	-0.13
470.096	-0.12
470.45	-0.12
470.804	-0.12
471.157	-0.12
471.511	-0.12
471.865	-0.12
472.218	-0.11
472.572	-0.11
472.926	-0.1
473.279	-0.1
473.633	-0.1
473.986	-0.09
474.34	-0.09
474.693	-0.08
475.046	-0.07
475.4	-0.06
475.753	-0.06
476.106	-0.05
476.459	-0.05
476.812	-0.04
477.165	-0.03
477.519	-0.02
477.872	-0.02
478.224	-0.02
478.577	-0.01
478.93	-0.01
479.283	-0
479.636	-0
479.989	0
480.341	0.01
480.694	0.01
481.047	0.01
481.399	0.02
481.752	0.02
482.104	0.03
482.457	0.03
482.809	0.03
483.162	0.03
483.514	0.04
483.866	0.04
484.219	0.04
484.571	0.05
484.923	0.05
485.275	0.06
485.627	0.05
485.979	0.05
486.331	0.06
486.683	0.06
487.035	0.06
487.387	0.07
487.739	0.07
488.091	0.08
488.443	0.09
488.794	0.09
489.146	0.09
489.498	0.09
489.849	0.09
490.201	0.09
490.552	0.08
490.904	0.09
491.255	0.09
491.607	0.09
491.958	0.1
492.309	0.1
492.661	0.11
493.012	0.1
493.363	0.1
493.714	0.11
494.065	0.11
494.416	0.11
494.767	0.11
495.118	0.11
495.469	0.12
495.82	0.12
496.171	0.12
496.522	0.12
496.872	0.12
497.223	0.13
497.574	0.13
497.924	0.12
498.275	0.13
498.626	0.14
498.976	0.14
499.327	0.14
499.677	0.14
500.027	0.14
500.378	0.14
500.728	0.15
501.078	0.15
501.428	0.15
501.779	0.15
502.129	0.15
502.479	0.16
502.829	0.16
503.179	0.16
503.529	0.16
503.879	0.16
504.229	0.16
504.578	0.17
504.928	0.17
505.278	0.17
505.628	0.17
505.977	0.18
506.327	0.18
506.676	0.17
507.026	0.18
507.375	0.19
507.725	0.19
508.074	0.19
508.424	0.19
508.773	0.19
509.122	0.19
509.471	0.19
509.82	0.2
510.17	0.2
510.519	0.2
510.868	0.2
511.217	0.2
511.566	0.2
511.915	0.2
512.263	0.21
512.612	0.21
512.961	0.21
513.31	0.21
513.659	0.21
514.007	0.22
514.356	0.22
514.704	0.22
515.053	0.22
515.401	0.23
515.75	0.22
516.098	0.23
516.447	0.23
516.795	0.24
517.143	0.24
517.491	0.24
517.839	0.24
518.188	0.24
518.536	0.24
518.884	0.24
519.232	0.25
519.58	0.25
519.928	0.25
520.275	0.25
520.623	0.25
520.971	0.25
521.319	0.26
521.666	0.26
522.014	0.27
522.362	0.26
522.709	0.26
523.057	0.27
523.404	0.26
523.752	0.27
524.099	0.27
524.446	0.27
524.794	0.27
525.141	0.28
525.488	0.28
525.835	0.28
526.182	0.28
526.529	0.29
526.876	0.28
527.223	0.29
527.57	0.29
527.917	0.29
528.264	0.3
528.611	0.3
528.958	0.3
529.304	0.3
529.651	0.31
529.998	0.3
530.344	0.31
530.691	0.31
531.037	0.31
531.384	0.31
531.73	0.32
532.076	0.32
532.423	0.32
532.769	0.32
533.115	0.33
533.461	0.33
533.807	0.33
534.154	0.34
534.5	0.34
534.846	0.34
535.192	0.33
535.537	0.34
535.883	0.35
536.229	0.35
536.575	0.35
536.921	0.36
537.266	0.36
537.612	0.36
537.957	0.36
538.303	0.36
538.649	0.36
538.994	0.36
539.339	0.37
539.685	0.37
540.03	0.37
540.375	0.38
540.721	0.38
541.066	0.38
541.411	0.39
541.756	0.39
542.101	0.39
542.446	0.39
542.791	0.39
543.136	0.4
543.481	0.4
543.825	0.4
544.17	0.41
544.515	0.42
544.86	0.41
545.204	0.41
545.549	0.42
545.893	0.42
546.238	0.42
546.582	0.42
546.927	0.43
547.271	0.43
547.615	0.44
547.96	0.44
548.304	0.44
548.648	0.44
548.992	0.44
549.336	0.45
549.68	0.44
550.024	0.45
550.368	0.45
550.712	0.45
551.056	0.46
551.4	0.46
551.743	0.46
552.087	0.47
552.431	0.47
552.774	0.47
553.118	0.47
553.462	0.47
553.805	0.48
554.148	0.47
554.492	0.48
554.835	0.48
555.178	0.48
555.522	0.48
555.865	0.49
556.208	0.49
556.551	0.49
556.894	0.49
557.237	0.49
557.58	0.49
557.923	0.49
558.266	0.5
558.609	0.5
558.952	0.5
559.294	0.5
559.637	0.51
559.98	0.51
560.322	0.51
560.665	0.51
561.007	0.51
561.35	0.51
561.692	0.51
562.034	0.51
562.377	0.51
562.719	0.51
563.061	0.51
563.403	0.52
563.745	0.52
564.088	0.52
564.43	0.52
564.772	0.52
565.113	0.52
565.455	0.52
565.797	0.52
566.139	0.53
566.481	0.53
566.822	0.53
567.164	0.53
567.506	0.53
567.847	0.53
568.189	0.53
568.53	0.53
568.872	0.53
569.213	0.53
569.554	0.54
569.895	0.53
570.237	0.53
570.578	0.54
570.919	0.53
571.26	0.53
571.601	0.53
571.942	0.54
572.283	0.53
572.624	0.53
572.965	0.54
573.306	0.53
573.646	0.53
573.987	0.54
574.328	0.54
574.668	0.54
575.009	0.54
575.349	0.54
575.69	0.54
576.03	0.54
576.37	0.54
576.711	0.53
577.051	0.54
577.391	0.54
577.731	0.55
578.072	0.54
578.412	0.54
578.752	0.54
579.092	0.54
579.431	0.53
579.771	0.53
580.111	0.53
580.451	0.54
580.791	0.55
581.13	0.55
581.47	0.55
581.81	0.54
582.149	0.55
582.489	0.55
582.828	0.54
583.167	0.54
583.507	0.52
583.846	0.5
584.185	0.53
584.525	0.55
584.864	0.56
585.203	0.56
585.542	0.56
585.881	0.57
586.22	0.57
586.559	0.56
586.898	0.57
587.236	0.56
587.575	0.57
587.914	0.57
588.252	0.57
588.591	0.58
588.93	0.58
589.268	0.57
589.607	0.58
589.945	0.58
590.283	0.58
590.622	0.59
590.96	0.6
591.298	0.6
591.636	0.6
591.974	0.6
592.313	0.6
592.651	0.61
592.989	0.61
593.326	0.62
593.664	0.61
594.002	0.62
594.34	0.61
594.678	0.62
595.015	0.61
595.353	0.62
595.691	0.62
596.028	0.63
596.366	0.64
596.703	0.63
597.04	0.63
597.378	0.64
597.715	0.64
598.052	0.64
598.389	0.65
598.726	0.65
599.064	0.65
599.401	0.65
599.738	0.65
600.074	0.65
600.411	0.65
600.748	0.65
601.085	0.65
601.422	0.65
601.758	0.65
602.095	0.65
602.432	0.66
602.768	0.66
603.105	0.66
603.441	0.66
603.777	0.67
604.114	0.67
604.45	0.67
604.786	0.66
605.122	0.67
605.459	0.66
605.795	0.66
606.131	0.66
606.467	0.66
606.803	0.66
607.139	0.66
607.474	0.66
607.81	0.66
608.146	0.66
608.482	0.65
608.817	0.65
609.153	0.65
609.488	0.65
609.824	0.65
610.159	0.65
610.495	0.65
610.83	0.65
611.165	0.65
611.5	0.64
611.836	0.64
612.171	0.64
612.506	0.64
612.841	0.64
613.176	0.64
613.511	0.64
613.845	0.64
614.18	0.63
614.515	0.63
614.85	0.63
615.184	0.63
615.519	0.63
615.854	0.62
616.188	0.62
616.523	0.62
616.857	0.62
617.191	0.62
617.526	0.62
617.86	0.62
618.194	0.61
618.528	0.61
618.862	0.61
619.196	0.61
619.53	0.61
619.864	0.6
620.198	0.6
620.532	0.6
620.866	0.6
621.2	0.59
621.533	0.59
621.867	0.6
622.201	0.59
622.534	0.59
622.868	0.59
623.201	0.59
623.534	0.58
623.868	0.58
624.201	0.58
624.534	0.58
624.868	0.58
625.201	0.57
625.534	0.57
625.867	0.57
626.2	0.57
626.533	0.56
626.865	0.56
627.198	0.56
627.531	0.55
627.864	0.55
628.196	0.55
628.529	0.55
628.862	0.55
629.194	0.54
629.527	0.54
629.859	0.54
630.191	0.53
630.524	0.53
630.856	0.52
631.188	0.52
631.52	0.52
631.852	0.52
632.184	0.51
632.516	0.51
632.848	0.5
633.18	0.5
633.512	0.5
633.844	0.5
634.175	0.49
634.507	0.49
634.839	0.48
635.17	0.48
635.502	0.48
635.833	0.47
636.165	0.47
636.496	0.47
636.827	0.47
637.159	0.46
637.49	0.46
637.821	0.46
638.152	0.45
638.483	0.45
638.814	0.44
639.145	0.44
639.476	0.43
639.807	0.43
640.137	0.43
640.468	0.43
640.799	0.42
641.129	0.42
641.46	0.41
641.791	0.41
642.121	0.41
642.451	0.41
642.782	0.41
643.112	0.41
643.442	0.4
643.773	0.4
644.103	0.4
644.433	0.4
644.763	0.39
645.093	0.39
645.423	0.38
645.753	0.38
646.082	0.38
646.412	0.38
646.742	0.38
647.072	0.38
647.401	0.37
647.731	0.37
648.06	0.37
648.39	0.37
648.719	0.37
649.048	0.37
649.378	0.37
649.707	0.36
650.036	0.36
650.365	0.36
650.694	0.36
651.023	0.36
651.352	0.36
651.681	0.36
652.01	0.37
652.339	0.37
652.668	0.36
652.996	0.36
653.325	0.36
653.654	0.36
653.982	0.36
654.311	0.36
654.639	0.36
654.967	0.35
655.296	0.36
655.624	0.36
655.952	0.35
656.28	0.35
656.609	0.35
656.937	0.36
657.265	0.34
657.593	0.31
657.92	0.19
658.248	0.13
658.576	0.14
658.904	0.24
659.231	0.33
659.559	0.35
659.887	0.35
660.214	0.36
660.542	0.35
660.869	0.35
661.196	0.35
661.524	0.35
661.851	0.35
662.178	0.35
662.505	0.35
662.832	0.35
663.159	0.35
663.486	0.35
663.813	0.35
664.14	0.34
664.467	0.35
664.794	0.35
665.12	0.35
665.447	0.34
665.774	0.34
666.1	0.34
666.427	0.34
666.753	0.34
667.079	0.34
667.406	0.33
667.732	0.33
668.058	0.33
668.384	0.33
668.71	0.34
669.036	0.33
669.362	0.33
669.688	0.33
670.014	0.33
670.34	0.33
670.666	0.33
670.991	0.33
671.317	0.33
671.643	0.32
671.968	0.32
672.294	0.32
672.619	0.32
672.945	0.31
673.27	0.32
673.595	0.31
673.92	0.31
674.246	0.3
674.571	0.3
674.896	0.3
675.221	0.3
675.546	0.3
675.87	0.3
676.195	0.29
676.52	0.29
676.845	0.29
677.169	0.29
677.494	0.29
677.819	0.29
678.143	0.29
678.468	0.28
678.792	0.28
679.116	0.28
679.44	0.28
679.765	0.27
680.089	0.27
680.413	0.26
680.737	0.26
681.061	0.26
681.385	0.26
681.709	0.26
682.033	0.26
682.356	0.25
682.68	0.25
683.004	0.25
683.327	0.25
683.651	0.24
683.974	0.24
684.298	0.24
684.621	0.24
684.944	0.23
685.268	0.23
685.591	0.23
685.914	0.23
686.237	0.23
686.56	0.22
686.883	0.22
687.206	0.22
687.529	0.22
687.852	0.21
688.175	0.21
688.497	0.21
688.82	0.21
689.142	0.21
689.465	0.2
689.787	0.2
690.11	0.2
690.432	0.2
690.755	0.2
691.077	0.2
691.399	0.19
691.721	0.19
692.043	0.19
692.365	0.19
692.687	0.18
693.009	0.18
693.331	0.18
693.653	0.18
693.974	0.17
694.296	0.18
694.618	0.17
694.939	0.17
695.261	0.17
695.582	0.16
695.904	0.16
696.225	0.16
696.546	0.16
696.868	0.16
697.189	0.16
697.51	0.16
697.831	0.16
698.152	0.16
698.473	0.16
698.794	0.15
699.114	0.15
699.435	0.14
699.756	0.14
700.077	0.15
700.397	0.14
700.718	0.15
701.038	0.14
701.359	0.14
701.679	0.14
701.999	0.14
702.32	0.14
702.64	0.14
702.96	0.14
703.28	0.14
703.6	0.14
703.92	0.14
704.24	0.14
704.56	0.13
704.879	0.14
705.199	0.13
705.519	0.13
705.838	0.13
706.158	0.13
706.478	0.13
706.797	0.13
707.116	0.13
707.436	0.12
707.755	0.12
708.074	0.12
708.393	0.12
708.712	0.12
709.031	0.12
709.35	0.12
709.669	0.12
709.988	0.12
710.307	0.12
710.626	0.12
710.944	0.12
711.263	0.12
711.582	0.12
711.9	0.12
712.219	0.12
712.537	0.12
712.855	0.12
713.174	0.12
713.492	0.12
713.81	0.12
714.128	0.12
714.446	0.12
714.764	0.12
715.082	0.12
715.4	0.12
715.718	0.12
716.035	0.12
716.353	0.12
716.671	0.12
716.988	0.12
717.306	0.12
717.623	0.12
717.941	0.13
718.258	0.13
718.575	0.13
718.893	0.13
719.21	0.12
719.527	0.12
719.844	0.13
720.161	0.12
720.478	0.12
720.795	0.13
721.112	0.13
721.428	0.13
721.745	0.13
722.062	0.13
722.378	0.13
722.695	0.13
723.011	0.13
723.328	0.13
723.644	0.13
723.96	0.13
724.276	0.13
724.593	0.13
724.909	0.14
725.225	0.14
725.541	0.14
725.857	0.14
726.173	0.14
726.488	0.14
726.804	0.13
727.12	0.13
727.435	0.14
727.751	0.14
728.067	0.14
728.382	0.14
728.697	0.14
729.013	0.14
729.328	0.14
729.643	0.14
729.958	0.14
730.273	0.14
730.588	0.14
730.903	0.14
731.218	0.14
731.533	0.14
731.848	0.14
732.163	0.14
732.477	0.14
732.792	0.14
733.107	0.13
733.421	0.14
733.736	0.14
734.05	0.14
734.364	0.14
734.678	0.14
734.993	0.13
735.307	0.14
735.621	0.13
735.935	0.13
736.249	0.13
736.563	0.13
736.877	0.13
737.19	0.13
737.504	0.13
737.818	0.13
738.131	0.13
738.445	0.13
738.758	0.13
739.072	0.13
739.385	0.13
739.698	0.13
740.012	0.13
740.325	0.13
740.638	0.13
740.951	0.13
741.264	0.12
741.577	0.13
741.89	0.13
742.203	0.12
742.515	0.13
742.828	0.13
743.141	0.12
743.453	0.12
743.766	0.12
744.078	0.12
744.391	0.12
744.703	0.12
745.015	0.12
745.327	0.12
745.639	0.12
745.952	0.12
746.264	0.12
746.575	0.12
746.887	0.11
747.199	0.12
747.511	0.12
747.823	0.11
748.134	0.11
748.446	0.11
748.757	0.11
749.069	0.1
749.38	0.1
749.692	0.1
750.003	0.1
750.314	0.1
750.625	0.1
750.936	0.1
751.248	0.1
751.559	0.1
751.869	0.1
752.18	0.1
752.491	0.1
752.802	0.09
753.112	0.09
753.423	0.09
753.734	0.09
754.044	0.09
754.355	0.09
754.665	0.09
754.975	0.09
755.285	0.09
755.596	0.09
755.906	0.09
756.216	0.09
756.526	0.09
756.836	0.08
757.146	0.08
757.455	0.08
757.765	0.08
758.075	0.08
758.385	0.08
758.694	0.08
759.004	0.07
759.313	0.08
759.622	0.07
759.932	0.07
760.241	0.07
760.55	0.07
760.859	0.06
761.168	0.06
761.477	0.06
761.786	0.06
762.095	0.06
762.404	0.06
762.713	0.06
763.021	0.06
763.33	0.06
763.639	0.06
763.947	0.06
764.256	0.05
764.564	0.05
764.872	0.05
765.181	0.05
765.489	0.05
765.797	0.05
766.105	0.06
766.413	0.05
766.721	0.06
767.029	0.05
767.337	0.06
767.644	0.05
767.952	0.05
768.26	0.05
768.567	0.05
768.875	0.05
769.182	0.05
769.49	0.05
769.797	0.04
770.104	0.05
770.411	0.05
770.718	0.05
771.026	0.04
771.333	0.05
771.639	0.05
771.946	0.05
772.253	0.05
772.56	0.04
772.867	0.04
773.173	0.05
773.48	0.04
773.786	0.04
774.093	0.04
774.399	0.04
774.705	0.04
775.012	0.04
775.318	0.04
775.624	0.04
775.93	0.04
776.236	0.05
776.542	0.04
776.848	0.05
777.154	0.05
777.459	0.05
777.765	0.04
778.071	0.04
778.376	0.04
778.682	0.04
778.987	0.04
779.292	0.04
779.598	0.04
779.903	0.04
780.208	0.04
780.513	0.04
780.818	0.04
781.123	0.04
781.428	0.04
781.733	0.04
782.038	0.04
782.343	0.04
782.647	0.04
782.952	0.04
783.256	0.04
783.561	0.04
783.865	0.04
784.17	0.04
784.474	0.04
784.778	0.04
785.082	0.04
785.386	0.04
785.69	0.05
785.994	0.04
786.298	0.04
786.602	0.04
786.906	0.04
787.209	0.04
787.513	0.04
787.817	0.04
788.12	0.05
788.424	0.04
788.727	0.04
789.03	0.04
789.333	0.04
789.637	0.03
789.94	0.03
790.243	0.03
790.546	0.03
790.849	0.03
791.152	0.03
791.454	0.03
791.757	0.03
792.06	0.03
792.362	0.03
792.665	0.03
792.967	0.03
793.27	0.03
793.572	0.03
793.874	0.03
794.177	0.03
794.479	0.03
794.781	0.03
795.083	0.03
795.385	0.03
795.687	0.04
795.989	0.03
796.29	0.04
796.592	0.04
796.894	0.04
797.195	0.03
797.497	0.04
797.798	0.03
798.1	0.03
798.401	0.03
798.702	0.03
799.003	0.03
799.304	0.03
799.605	0.03
799.906	0.03
800.207	0.02
800.508	0.03
800.809	0.02
801.11	0.02
801.41	0.02
801.711	0.03
802.011	0.02
802.312	0.02
802.612	0.02
802.913	0.03
803.213	0.02
803.513	0.03
803.813	0.02
804.113	0.02
804.413	0.03
804.713	0.02
805.013	0.03
805.313	0.02
805.613	0.03
805.912	0.02
806.212	0.02
806.511	0.02
806.811	0.03
807.11	0.03
807.41	0.03
807.709	0.03
808.008	0.03
808.307	0.03
808.606	0.03
808.905	0.04
809.204	0.03
809.503	0.03
809.802	0.03
810.101	0.04
810.399	0.03
810.698	0.03
810.997	0.03
811.295	0.04
811.593	0.04
811.892	0.03
812.19	0.04
812.488	0.03
812.786	0.03
813.084	0.03
813.383	0.03
813.68	0.03
813.978	0.03
814.276	0.03
814.574	0.02
814.872	0.02
815.169	0.02
815.467	0.03
815.764	0.02
816.062	0.02
816.359	0.02
816.656	0.02
816.954	0.02
817.251	0.03
817.548	0.02
817.845	0.03
818.142	0.03
818.439	0.03
818.735	0.02
819.032	0.02
819.329	0.02
819.626	0.03
819.922	0.03
820.219	0.03
820.515	0.03
820.811	0.03
821.108	0.02
821.404	0.02
821.7	0.02
821.996	0.03
822.292	0.02
822.588	0.02
822.884	0.02
823.18	0.02
823.475	0.02
823.771	0.02
824.067	0.03
824.362	0.02
824.658	0.03
824.953	0.02
825.249	0.02
825.544	0.02
825.839	0.02
826.134	0.02
826.429	0.02
826.724	0.02
827.019	0.02
827.314	0.02
827.609	0.02
827.904	0.02
828.198	0.02
828.493	0.02
828.787	0.02
829.082	0.02
829.376	0.02
829.671	0.02
829.965	0.01
830.259	0.01
830.553	0.01
830.847	0.01
831.141	0.02
831.435	0.02
831.729	0.01
832.023	0.02
832.317	0.01
832.61	0.01
832.904	0.02
833.197	0.03
833.491	0.02
833.784	0.02
834.077	0.02
834.371	0.03
834.664	0.03
834.957	0.02
835.25	0.02
835.543	0.02
835.836	0.02
836.129	0.02
836.421	0.02
836.714	0.02
837.007	0.02
837.299	0.02
837.592	0.02
837.884	0.01
838.177	0.01
838.469	0.01
838.761	0.01
839.053	0.01
839.345	0.01
839.637	0.02
839.929	0.01
840.221	0.03
840.513	0.03
840.805	0.02
841.096	0.02
841.388	0.01
841.68	0.01
841.971	0.02
842.262	0.01
842.554	0.02
842.845	0.02
843.136	0.03
843.427	0.02
843.718	0.02
844.009	0.02
844.3	0.02
844.591	0.01
844.882	0.01
845.173	0.03
845.463	0.02
845.754	0.01
846.044	0.02
846.335	0.01
846.625	0.02
846.915	0.01
847.206	0.01
847.496	0.02
847.786	0.01
848.076	0.01
848.366	0.01
848.656	0.01
848.945	0.02
849.235	0.02
849.525	0.01
849.814	0.02
850.104	0.01
850.393	0.02
850.683	0.01
850.972	0.01
851.261	0.02
851.551	0.02
851.84	0.02
852.129	0.02
852.418	0.01
852.707	0.03
852.995	0.02
853.284	0.01
853.573	0.02
853.862	0.01
854.15	0.01
854.439	0.01
854.727	0.01
855.015	0
855.304	0.01
855.592	-0.01
855.88	-0
856.168	-0.01
856.456	0
856.744	-0
857.032	-0.02
857.32	-0.01
857.607	0
857.895	-0.01
858.183	-0.01
858.47	-0.01
858.757	-0
859.045	-0
859.332	0.02
859.619	0.01
859.907	0
860.194	-0
860.481	0.01
860.768	-0.01
861.054	-0
861.341	0
861.628	-0
861.915	-0
862.201	-0
862.488	-0.02
862.774	-0.01
863.061	-0.03
863.347	-0.02
863.633	-0.01
863.919	-0
864.205	-0.01
864.491	-0.01
864.777	-0.01
865.063	0.01
865.349	0.01
865.635	0.02
865.92	0.02
866.206	0
866.492	-0.01
866.777	-0.02
867.062	-0.02
867.348	-0.04
867.633	-0.01
867.918	0.03
868.203	-0.01
868.488	-0.02
868.773	0.01
869.058	-0.07
869.343	-0.04
869.628	0
869.912	-0.01
870.197	-0.02
870.482	-0.03
870.766	-0.03
871.05	-0.01
871.335	-0.01
871.619	-0
871.903	-0.02
872.187	-0.01
872.471	-0.07
872.755	-0.05
873.039	-0.06
873.323	-0.05
873.607	-0.01
873.89	-0.04
874.174	-0.05
874.458	-0.08
874.741	0.03
875.024	-0.08
875.308	-0
875.591	-0.02
875.874	-0.02
876.157	-0.04
876.44	-0.07
876.723	0.02
877.006	-0.02
877.289	-0.04
877.572	-0.09
877.854	-0.02
878.137	-0.07
878.42	0.05
878.702	-0.02
878.984	0
879.267	-0.11
879.549	-0.04
879.831	-0.02
880.113	-0.09
880.395	-0.09
880.677	-0.17
880.959	-0.02
