Data from Rubpy_EV_900_EDTA_Buffered_Absorbance_13-38-56-729.txt Node
Date: Tue Jun 30 13:38:56 BST 2026
User: fpm-admin
Spectrometer: OFX00224
Trigger mode: 0
Integration Time (sec): 7.000000E-2
Scans to average: 3
Nonlinearity correction enabled: false
Boxcar width: 0
Storing dark spectrum: false
XAxis mode: Wavelengths
Number of Pixels in Spectrum: 2136
>>>>>Begin Spectral Data<<<<<
154.91	0.95
155.289	-0
155.669	-0.27
156.048	-0.2
156.428	-0.06
156.807	0.08
157.186	-0.21
157.566	-0
157.945	-0.2
158.325	-0.48
158.704	-0
159.083	1.34
159.462	0.17
159.842	0.86
160.221	-0
160.6	-0.14
160.979	-0
161.359	-0
161.738	0.73
162.117	-0.27
162.496	-0
162.875	-0.7
163.254	-0
163.633	0.1
164.012	-0
164.391	1.46
164.77	-0.09
165.149	-0.06
165.528	-0.3
165.907	1.02
166.286	-0
166.665	-0
167.044	-0
167.423	0.02
167.802	-0.3
168.181	0.62
168.559	-0
168.938	-0
169.317	-0
169.696	-0
170.074	-0
170.453	0.28
170.832	-0
171.21	0.12
171.589	-0
171.968	0.18
172.346	-0.92
172.725	-0
173.103	-0
173.482	-0.16
173.861	-0.3
174.239	1.03
174.617	-0
174.996	-0.64
175.374	1.38
175.753	-0.09
176.131	-0
176.51	-0.46
176.888	-0
177.266	-0
177.645	-0.07
178.023	0.5
178.401	-0.12
178.779	-0.1
179.158	-0
179.536	-0.09
179.914	-0.29
180.292	-0
180.67	-0
181.048	-0
181.427	0.26
181.805	-0.28
182.183	-0.88
182.561	0.56
182.939	0.14
183.317	0.16
183.695	-0.01
184.073	-0
184.451	-0.48
184.829	0.16
185.206	-0.25
185.584	-0
185.962	0.24
186.34	-0.08
186.718	-0.02
187.096	-0
187.473	-0.01
187.851	-0
188.229	1.15
188.607	0.04
188.984	0.1
189.362	0.05
189.74	0.05
190.117	-0
190.495	0.12
190.872	0.14
191.25	0.07
191.627	0.1
192.005	-0.01
192.382	0.07
192.76	0.15
193.137	0.11
193.515	0.16
193.892	0.05
194.269	0.06
194.647	0.1
195.024	0.14
195.401	0.2
195.779	0.2
196.156	0.14
196.533	0.1
196.91	0.04
197.288	0.2
197.665	0.02
198.042	0.11
198.419	0.02
198.796	0.12
199.173	0.08
199.55	0.22
199.927	0.15
200.304	0.09
200.681	0.11
201.058	0.06
201.435	0.11
201.812	0.06
202.189	0.15
202.566	0.13
202.943	0.05
203.32	0.14
203.697	0.04
204.073	0.07
204.45	0.13
204.827	0.02
205.204	0.15
205.58	0.13
205.957	0.2
206.334	0.12
206.71	0.13
207.087	0.05
207.464	0.04
207.84	0.1
208.217	0.13
208.593	0.17
208.97	0.01
209.346	0.1
209.723	0.12
210.099	0.15
210.476	0.17
210.852	0.06
211.228	0.1
211.605	0.17
211.981	0.1
212.357	0.11
212.733	0.1
213.11	0.03
213.486	0.06
213.862	0.15
214.238	0.09
214.614	0.15
214.991	0.08
215.367	0.11
215.743	0.1
216.119	0.07
216.495	-0
216.871	0.09
217.247	0.13
217.623	0.18
217.999	-0.03
218.375	0.08
218.751	0.12
219.127	0.03
219.502	0.12
219.878	0.11
220.254	0.15
220.63	0.04
221.006	0.13
221.381	0.04
221.757	0.12
222.133	0.06
222.508	0.08
222.884	0.19
223.26	0.17
223.635	0.03
224.011	0.14
224.386	0.1
224.762	0.08
225.137	0.14
225.513	0.08
225.888	0.12
226.264	0.04
226.639	0
227.014	0.06
227.39	0.03
227.765	0.1
228.14	0.06
228.516	0.04
228.891	0.12
229.266	0.16
229.641	0.06
230.017	0.12
230.392	0.18
230.767	0.11
231.142	0.06
231.517	0.15
231.892	0.08
232.267	0.12
232.642	0.11
233.017	0.15
233.392	0.09
233.767	0.18
234.142	0.07
234.517	0.08
234.892	0.03
235.267	0.11
235.641	0.14
236.016	0.17
236.391	0.07
236.766	0.1
237.14	0.1
237.515	0.15
237.89	0.15
238.264	0.07
238.639	0.08
239.014	0.07
239.388	0.07
239.763	0.17
240.137	0.12
240.512	0.05
240.886	0.02
241.261	0.02
241.635	0.17
242.009	0.05
242.384	0.02
242.758	0.08
243.132	0.1
243.507	0.17
243.881	0.1
244.255	0.1
244.629	0.07
245.004	0.1
245.378	0.04
245.752	0.11
246.126	0.06
246.5	0.03
246.874	0.15
247.248	0.17
247.622	-0
247.996	0.05
248.37	0.19
248.744	0.12
249.118	0.16
249.492	0.15
249.866	0.09
250.24	0.12
250.613	0.15
250.987	0.08
251.361	0.09
251.735	0.04
252.108	0.04
252.482	0.17
252.856	0.11
253.229	0.13
253.603	0.12
253.977	0.1
254.35	0.26
254.724	0.06
255.097	0.09
255.471	0.1
255.844	0.08
256.218	0.14
256.591	0.07
256.964	0.06
257.338	0.11
257.711	0.09
258.084	0.03
258.458	0.1
258.831	0.17
259.204	0.03
259.577	0.13
259.95	0.08
260.323	0.06
260.697	0.09
261.07	0.12
261.443	0.08
261.816	0.1
262.189	0.14
262.562	0.15
262.935	0.07
263.308	0.14
263.68	0.05
264.053	0.09
264.426	0.11
264.799	0.13
265.172	0.08
265.545	0.14
265.917	0.09
266.29	0.14
266.663	0.14
267.035	0.02
267.408	0.1
267.781	0.09
268.153	0.1
268.526	0.17
268.898	0.14
269.271	0.04
269.643	0.04
270.016	0.1
270.388	0.12
270.76	0.08
271.133	0.12
271.505	0.15
271.877	0.07
272.25	0.08
272.622	0.09
272.994	0.09
273.366	0.07
273.739	0.08
274.111	0.08
274.483	0.1
274.855	0.13
275.227	0.1
275.599	0.06
275.971	0.11
276.343	0.11
276.715	0.06
277.087	0.08
277.459	0.19
277.831	0.1
278.203	0.16
278.574	0.1
278.946	0.1
279.318	0.07
279.69	0.08
280.061	0.04
280.433	0.09
280.805	0.15
281.176	0.09
281.548	0.1
281.92	0.1
282.291	0.06
282.663	0.09
283.034	0.15
283.406	0.13
283.777	0.11
284.148	0.09
284.52	0.05
284.891	0.11
285.262	0.08
285.634	0.17
286.005	0.03
286.376	0.15
286.747	0.16
287.119	0.1
287.49	0.1
287.861	0.14
288.232	0.06
288.603	0.13
288.974	0.15
289.345	0.15
289.716	0.09
290.087	0.09
290.458	0.09
290.829	0.1
291.2	0.14
291.571	0.05
291.941	0.11
292.312	0.05
292.683	0.17
293.054	0.11
293.424	0.09
293.795	0.08
294.166	0.15
294.536	0.13
294.907	0.07
295.277	0.07
295.648	0.12
296.018	0.07
296.389	0.09
296.759	0.04
297.13	0.05
297.5	0.09
297.871	0.11
298.241	0.09
298.611	0.1
298.981	0.11
299.352	0.08
299.722	0.1
300.092	0.09
300.462	0.14
300.832	0.09
301.202	0.08
301.573	0.09
301.943	0.1
302.313	0.06
302.683	0.06
303.053	0.06
303.422	0.07
303.792	0.05
304.162	0.06
304.532	0.08
304.902	0.06
305.272	0.06
305.641	0.08
306.011	0.07
306.381	0.07
306.75	0.06
307.12	0.07
307.49	0.08
307.859	0.08
308.229	0.08
308.598	0.08
308.968	0.08
309.337	0.08
309.707	0.08
310.076	0.09
310.445	0.08
310.815	0.09
311.184	0.09
311.553	0.09
311.923	0.1
312.292	0.09
312.661	0.09
313.03	0.08
313.399	0.09
313.768	0.09
314.137	0.09
314.506	0.09
314.875	0.08
315.244	0.09
315.613	0.09
315.982	0.09
316.351	0.09
316.72	0.08
317.089	0.09
317.458	0.08
317.826	0.09
318.195	0.09
318.564	0.09
318.933	0.08
319.301	0.09
319.67	0.09
320.038	0.08
320.407	0.08
320.775	0.09
321.144	0.09
321.512	0.08
321.881	0.08
322.249	0.08
322.618	0.07
322.986	0.08
323.354	0.08
323.723	0.07
324.091	0.07
324.459	0.08
324.827	0.07
325.195	0.07
325.564	0.07
325.932	0.08
326.3	0.07
326.668	0.07
327.036	0.07
327.404	0.06
327.772	0.08
328.14	0.07
328.508	0.07
328.875	0.07
329.243	0.07
329.611	0.08
329.979	0.08
330.346	0.07
330.714	0.07
331.082	0.07
331.449	0.07
331.817	0.08
332.185	0.08
332.552	0.07
332.92	0.07
333.287	0.08
333.655	0.08
334.022	0.08
334.389	0.07
334.757	0.07
335.124	0.08
335.491	0.07
335.859	0.08
336.226	0.08
336.593	0.08
336.96	0.08
337.327	0.08
337.695	0.09
338.062	0.08
338.429	0.08
338.796	0.08
339.163	0.09
339.53	0.08
339.897	0.09
340.263	0.09
340.63	0.09
340.997	0.09
341.364	0.09
341.731	0.1
342.097	0.1
342.464	0.1
342.831	0.09
343.197	0.1
343.564	0.1
343.931	0.11
344.297	0.11
344.664	0.11
345.03	0.1
345.396	0.11
345.763	0.11
346.129	0.11
346.496	0.11
346.862	0.12
347.228	0.12
347.594	0.12
347.961	0.12
348.327	0.13
348.693	0.12
349.059	0.13
349.425	0.12
349.791	0.13
350.157	0.13
350.523	0.13
350.889	0.14
351.255	0.14
351.621	0.14
351.987	0.14
352.353	0.15
352.719	0.15
353.084	0.16
353.45	0.16
353.816	0.16
354.181	0.16
354.547	0.16
354.913	0.17
355.278	0.17
355.644	0.17
356.009	0.18
356.375	0.19
356.74	0.19
357.106	0.19
357.471	0.19
357.836	0.2
358.202	0.2
358.567	0.2
358.932	0.21
359.297	0.22
359.663	0.21
360.028	0.22
360.393	0.22
360.758	0.23
361.123	0.23
361.488	0.23
361.853	0.24
362.218	0.24
362.583	0.24
362.948	0.24
363.312	0.25
363.677	0.25
364.042	0.25
364.407	0.26
364.772	0.26
365.136	0.27
365.501	0.27
365.865	0.28
366.23	0.29
366.595	0.29
366.959	0.3
367.324	0.3
367.688	0.31
368.052	0.31
368.417	0.32
368.781	0.33
369.145	0.33
369.51	0.33
369.874	0.33
370.238	0.33
370.602	0.33
370.967	0.33
371.331	0.33
371.695	0.33
372.059	0.32
372.423	0.33
372.787	0.33
373.151	0.32
373.515	0.33
373.878	0.32
374.242	0.33
374.606	0.32
374.97	0.33
375.334	0.33
375.697	0.33
376.061	0.33
376.425	0.33
376.788	0.33
377.152	0.34
377.515	0.34
377.879	0.34
378.242	0.35
378.606	0.35
378.969	0.35
379.333	0.36
379.696	0.36
380.059	0.37
380.422	0.38
380.786	0.38
381.149	0.39
381.512	0.4
381.875	0.41
382.238	0.42
382.601	0.43
382.964	0.44
383.327	0.45
383.69	0.47
384.053	0.48
384.416	0.49
384.779	0.5
385.142	0.51
385.504	0.52
385.867	0.52
386.23	0.53
386.593	0.54
386.955	0.54
387.318	0.53
387.68	0.53
388.043	0.54
388.405	0.53
388.768	0.53
389.13	0.52
389.493	0.51
389.855	0.52
390.217	0.51
390.58	0.51
390.942	0.52
391.304	0.52
391.666	0.53
392.028	0.53
392.391	0.55
392.753	0.56
393.115	0.58
393.477	0.6
393.839	0.62
394.201	0.65
394.563	0.68
394.924	0.7
395.286	0.73
395.648	0.75
396.01	0.77
396.371	0.79
396.733	0.81
397.095	0.82
397.456	0.84
397.818	0.83
398.18	0.83
398.541	0.81
398.903	0.81
399.264	0.78
399.625	0.76
399.987	0.72
400.348	0.7
400.709	0.66
401.071	0.63
401.432	0.59
401.793	0.55
402.154	0.52
402.515	0.48
402.876	0.45
403.238	0.42
403.599	0.39
403.96	0.36
404.32	0.33
404.681	0.31
405.042	0.29
405.403	0.27
405.764	0.25
406.125	0.23
406.485	0.22
406.846	0.2
407.207	0.19
407.567	0.18
407.928	0.17
408.288	0.16
408.649	0.16
409.009	0.14
409.37	0.14
409.73	0.13
410.091	0.13
410.451	0.12
410.811	0.12
411.171	0.11
411.532	0.1
411.892	0.1
412.252	0.1
412.612	0.09
412.972	0.09
413.332	0.09
413.692	0.09
414.052	0.09
414.412	0.08
414.772	0.07
415.132	0.08
415.492	0.08
415.851	0.07
416.211	0.08
416.571	0.07
416.931	0.07
417.29	0.07
417.65	0.06
418.009	0.06
418.369	0.06
418.728	0.06
419.088	0.06
419.447	0.06
419.807	0.06
420.166	0.06
420.525	0.06
420.884	0.06
421.244	0.06
421.603	0.05
421.962	0.05
422.321	0.05
422.68	0.06
423.039	0.05
423.398	0.05
423.757	0.05
424.116	0.05
424.475	0.05
424.834	0.04
425.193	0.05
425.551	0.04
425.91	0.04
426.269	0.04
426.628	0.05
426.986	0.05
427.345	0.04
427.703	0.05
428.062	0.04
428.42	0.04
428.779	0.04
429.137	0.05
429.496	0.04
429.854	0.04
430.212	0.04
430.57	0.04
430.929	0.03
431.287	0.02
431.645	0.04
432.003	0.04
432.361	0.04
432.719	0.04
433.077	0.03
433.435	0.04
433.793	0.03
434.151	0.04
434.509	0.04
434.866	0.04
435.224	0.04
435.582	0.04
435.94	0.03
436.297	0.03
436.655	0.03
437.012	0.03
437.37	0.03
437.727	0.03
438.085	0.04
438.442	0.03
438.8	0.03
439.157	0.03
439.514	0.03
439.872	0.03
440.229	0.03
440.586	0.03
440.943	0.03
441.3	0.03
441.657	0.03
442.014	0.02
442.371	0.03
442.728	0.02
443.085	0.02
443.442	0.02
443.799	0.02
444.156	0.03
444.513	0.02
444.869	0.03
445.226	0.02
445.583	0.03
445.939	0.01
446.296	0.02
446.652	0.02
447.009	0.02
447.365	0.01
447.722	0.02
448.078	0.01
448.434	0.02
448.791	0.01
449.147	0.01
449.503	0.02
449.859	0.01
450.215	0.01
450.571	0.01
450.928	0.01
451.284	-0
451.64	0
451.995	-0.01
452.351	-0.01
452.707	-0
453.063	-0.01
453.419	-0.01
453.775	-0.01
454.13	-0.01
454.486	-0.01
454.842	-0.01
455.197	-0.02
455.553	-0.02
455.908	-0.03
456.264	-0.03
456.619	-0.04
456.975	-0.04
457.33	-0.03
457.685	-0.03
458.04	-0.05
458.396	-0.05
458.751	-0.05
459.106	-0.06
459.461	-0.06
459.816	-0.06
460.171	-0.07
460.526	-0.07
460.881	-0.08
461.236	-0.08
461.591	-0.09
461.946	-0.09
462.301	-0.09
462.655	-0.1
463.01	-0.09
463.365	-0.1
463.719	-0.11
464.074	-0.11
464.428	-0.12
464.783	-0.13
465.137	-0.13
465.492	-0.13
465.846	-0.13
466.201	-0.13
466.555	-0.13
466.909	-0.13
467.263	-0.13
467.618	-0.13
467.972	-0.13
468.326	-0.13
468.68	-0.14
469.034	-0.13
469.388	-0.14
469.742	-0.14
470.096	-0.14
470.45	-0.14
470.804	-0.14
471.157	-0.14
471.511	-0.15
471.865	-0.14
472.218	-0.14
472.572	-0.14
472.926	-0.13
473.279	-0.13
473.633	-0.13
473.986	-0.12
474.34	-0.12
474.693	-0.11
475.046	-0.1
475.4	-0.1
475.753	-0.09
476.106	-0.09
476.459	-0.08
476.812	-0.08
477.165	-0.07
477.519	-0.06
477.872	-0.06
478.224	-0.06
478.577	-0.05
478.93	-0.05
479.283	-0.05
479.636	-0.04
479.989	-0.04
480.341	-0.04
480.694	-0.04
481.047	-0.03
481.399	-0.03
481.752	-0.03
482.104	-0.02
482.457	-0.02
482.809	-0.01
483.162	-0.02
483.514	-0.01
483.866	-0.01
484.219	-0.01
484.571	-0.01
484.923	-0.01
485.275	-0
485.627	-0
485.979	-0
486.331	-0
486.683	0
487.035	0.01
487.387	0.01
487.739	0.02
488.091	0.02
488.443	0.02
488.794	0.02
489.146	0.02
489.498	0.02
489.849	0.02
490.201	0.02
490.552	0.02
490.904	0.02
491.255	0.02
491.607	0.02
491.958	0.02
492.309	0.03
492.661	0.03
493.012	0.03
493.363	0.02
493.714	0.03
494.065	0.03
494.416	0.03
494.767	0.03
495.118	0.03
495.469	0.04
495.82	0.04
496.171	0.03
496.522	0.03
496.872	0.04
497.223	0.04
497.574	0.04
497.924	0.03
498.275	0.04
498.626	0.04
498.976	0.04
499.327	0.04
499.677	0.05
500.027	0.05
500.378	0.05
500.728	0.05
501.078	0.05
501.428	0.05
501.779	0.05
502.129	0.05
502.479	0.05
502.829	0.06
503.179	0.06
503.529	0.05
503.879	0.06
504.229	0.06
504.578	0.06
504.928	0.06
505.278	0.06
505.628	0.06
505.977	0.07
506.327	0.07
506.676	0.06
507.026	0.07
507.375	0.07
507.725	0.07
508.074	0.07
508.424	0.07
508.773	0.07
509.122	0.07
509.471	0.07
509.82	0.07
510.17	0.07
510.519	0.07
510.868	0.08
511.217	0.08
511.566	0.08
511.915	0.08
512.263	0.08
512.612	0.08
512.961	0.08
513.31	0.08
513.659	0.08
514.007	0.08
514.356	0.08
514.704	0.09
515.053	0.09
515.401	0.09
515.75	0.09
516.098	0.09
516.447	0.09
516.795	0.09
517.143	0.09
517.491	0.09
517.839	0.09
518.188	0.09
518.536	0.09
518.884	0.09
519.232	0.09
519.58	0.09
519.928	0.09
520.275	0.09
520.623	0.09
520.971	0.09
521.319	0.1
521.666	0.1
522.014	0.1
522.362	0.1
522.709	0.1
523.057	0.1
523.404	0.1
523.752	0.1
524.099	0.1
524.446	0.1
524.794	0.11
525.141	0.1
525.488	0.11
525.835	0.11
526.182	0.11
526.529	0.11
526.876	0.11
527.223	0.11
527.57	0.11
527.917	0.11
528.264	0.11
528.611	0.11
528.958	0.11
529.304	0.12
529.651	0.12
529.998	0.12
530.344	0.12
530.691	0.11
531.037	0.12
531.384	0.12
531.73	0.12
532.076	0.12
532.423	0.12
532.769	0.13
533.115	0.13
533.461	0.12
533.807	0.13
534.154	0.13
534.5	0.13
534.846	0.13
535.192	0.13
535.537	0.13
535.883	0.14
536.229	0.14
536.575	0.14
536.921	0.14
537.266	0.14
537.612	0.13
537.957	0.14
538.303	0.14
538.649	0.14
538.994	0.14
539.339	0.14
539.685	0.15
540.03	0.14
540.375	0.15
540.721	0.15
541.066	0.15
541.411	0.15
541.756	0.15
542.101	0.15
542.446	0.15
542.791	0.15
543.136	0.15
543.481	0.16
543.825	0.16
544.17	0.16
544.515	0.16
544.86	0.16
545.204	0.16
545.549	0.16
545.893	0.16
546.238	0.16
546.582	0.17
546.927	0.17
547.271	0.17
547.615	0.17
547.96	0.17
548.304	0.17
548.648	0.17
548.992	0.17
549.336	0.17
549.68	0.17
550.024	0.17
550.368	0.17
550.712	0.17
551.056	0.17
551.4	0.18
551.743	0.18
552.087	0.18
552.431	0.18
552.774	0.18
553.118	0.18
553.462	0.18
553.805	0.18
554.148	0.19
554.492	0.19
554.835	0.19
555.178	0.19
555.522	0.19
555.865	0.19
556.208	0.19
556.551	0.19
556.894	0.19
557.237	0.19
557.58	0.19
557.923	0.19
558.266	0.19
558.609	0.19
558.952	0.2
559.294	0.19
559.637	0.19
559.98	0.2
560.322	0.2
560.665	0.19
561.007	0.2
561.35	0.2
561.692	0.2
562.034	0.2
562.377	0.2
562.719	0.2
563.061	0.2
563.403	0.2
563.745	0.2
564.088	0.2
564.43	0.2
564.772	0.2
565.113	0.2
565.455	0.2
565.797	0.2
566.139	0.21
566.481	0.21
566.822	0.21
567.164	0.21
567.506	0.21
567.847	0.21
568.189	0.21
568.53	0.2
568.872	0.21
569.213	0.21
569.554	0.21
569.895	0.21
570.237	0.21
570.578	0.21
570.919	0.21
571.26	0.21
571.601	0.21
571.942	0.21
572.283	0.21
572.624	0.21
572.965	0.21
573.306	0.21
573.646	0.21
573.987	0.21
574.328	0.21
574.668	0.21
575.009	0.21
575.349	0.21
575.69	0.21
576.03	0.21
576.37	0.2
576.711	0.2
577.051	0.21
577.391	0.21
577.731	0.21
578.072	0.21
578.412	0.21
578.752	0.21
579.092	0.21
579.431	0.2
579.771	0.2
580.111	0.2
580.451	0.2
580.791	0.21
581.13	0.21
581.47	0.21
581.81	0.21
582.149	0.21
582.489	0.21
582.828	0.21
583.167	0.2
583.507	0.18
583.846	0.17
584.185	0.18
584.525	0.2
584.864	0.2
585.203	0.21
585.542	0.21
585.881	0.22
586.22	0.22
586.559	0.22
586.898	0.22
587.236	0.21
587.575	0.21
587.914	0.21
588.252	0.22
588.591	0.22
588.93	0.22
589.268	0.22
589.607	0.22
589.945	0.22
590.283	0.22
590.622	0.22
590.96	0.23
591.298	0.23
591.636	0.23
591.974	0.23
592.313	0.24
592.651	0.24
592.989	0.24
593.326	0.24
593.664	0.24
594.002	0.24
594.34	0.24
594.678	0.24
595.015	0.23
595.353	0.23
595.691	0.24
596.028	0.24
596.366	0.24
596.703	0.25
597.04	0.24
597.378	0.25
597.715	0.25
598.052	0.25
598.389	0.25
598.726	0.25
599.064	0.25
599.401	0.25
599.738	0.25
600.074	0.25
600.411	0.25
600.748	0.25
601.085	0.25
601.422	0.25
601.758	0.25
602.095	0.25
602.432	0.25
602.768	0.25
603.105	0.25
603.441	0.26
603.777	0.26
604.114	0.26
604.45	0.26
604.786	0.26
605.122	0.26
605.459	0.26
605.795	0.26
606.131	0.26
606.467	0.26
606.803	0.25
607.139	0.26
607.474	0.26
607.81	0.25
608.146	0.26
608.482	0.25
608.817	0.25
609.153	0.25
609.488	0.25
609.824	0.25
610.159	0.25
610.495	0.25
610.83	0.25
611.165	0.25
611.5	0.25
611.836	0.25
612.171	0.25
612.506	0.25
612.841	0.25
613.176	0.25
613.511	0.25
613.845	0.25
614.18	0.25
614.515	0.25
614.85	0.25
615.184	0.25
615.519	0.25
615.854	0.25
616.188	0.24
616.523	0.24
616.857	0.24
617.191	0.24
617.526	0.24
617.86	0.24
618.194	0.23
618.528	0.24
618.862	0.24
619.196	0.24
619.53	0.24
619.864	0.24
620.198	0.24
620.532	0.23
620.866	0.23
621.2	0.23
621.533	0.23
621.867	0.23
622.201	0.23
622.534	0.23
622.868	0.23
623.201	0.23
623.534	0.23
623.868	0.23
624.201	0.23
624.534	0.23
624.868	0.23
625.201	0.23
625.534	0.22
625.867	0.22
626.2	0.23
626.533	0.22
626.865	0.22
627.198	0.22
627.531	0.22
627.864	0.22
628.196	0.22
628.529	0.22
628.862	0.22
629.194	0.21
629.527	0.21
629.859	0.21
630.191	0.21
630.524	0.21
630.856	0.21
631.188	0.21
631.52	0.21
631.852	0.2
632.184	0.2
632.516	0.2
632.848	0.2
633.18	0.2
633.512	0.2
633.844	0.2
634.175	0.2
634.507	0.2
634.839	0.19
635.17	0.19
635.502	0.19
635.833	0.19
636.165	0.19
636.496	0.19
636.827	0.19
637.159	0.18
637.49	0.18
637.821	0.18
638.152	0.18
638.483	0.18
638.814	0.18
639.145	0.18
639.476	0.18
639.807	0.17
640.137	0.17
640.468	0.17
640.799	0.17
641.129	0.17
641.46	0.16
641.791	0.16
642.121	0.16
642.451	0.16
642.782	0.16
643.112	0.16
643.442	0.16
643.773	0.16
644.103	0.16
644.433	0.16
644.763	0.16
645.093	0.16
645.423	0.15
645.753	0.15
646.082	0.15
646.412	0.15
646.742	0.15
647.072	0.15
647.401	0.15
647.731	0.15
648.06	0.15
648.39	0.15
648.719	0.15
649.048	0.15
649.378	0.15
649.707	0.15
650.036	0.15
650.365	0.15
650.694	0.15
651.023	0.15
651.352	0.14
651.681	0.15
652.01	0.15
652.339	0.15
652.668	0.15
652.996	0.15
653.325	0.15
653.654	0.15
653.982	0.15
654.311	0.15
654.639	0.15
654.967	0.15
655.296	0.14
655.624	0.14
655.952	0.14
656.28	0.14
656.609	0.14
656.937	0.14
657.265	0.14
657.593	0.12
657.92	0.01
658.248	0
658.576	0
658.904	0.03
659.231	0.11
659.559	0.14
659.887	0.14
660.214	0.15
660.542	0.14
660.869	0.14
661.196	0.14
661.524	0.14
661.851	0.14
662.178	0.14
662.505	0.14
662.832	0.14
663.159	0.14
663.486	0.14
663.813	0.14
664.14	0.14
664.467	0.14
664.794	0.14
665.12	0.14
665.447	0.14
665.774	0.14
666.1	0.14
666.427	0.14
666.753	0.14
667.079	0.14
667.406	0.13
667.732	0.13
668.058	0.13
668.384	0.13
668.71	0.14
669.036	0.13
669.362	0.13
669.688	0.13
670.014	0.14
670.34	0.14
670.666	0.13
670.991	0.13
671.317	0.13
671.643	0.13
671.968	0.13
672.294	0.13
672.619	0.13
672.945	0.13
673.27	0.13
673.595	0.13
673.92	0.12
674.246	0.13
674.571	0.12
674.896	0.12
675.221	0.12
675.546	0.13
675.87	0.12
676.195	0.12
676.52	0.12
676.845	0.12
677.169	0.12
677.494	0.12
677.819	0.12
678.143	0.12
678.468	0.12
678.792	0.12
679.116	0.11
679.44	0.11
679.765	0.11
680.089	0.1
680.413	0.1
680.737	0.11
681.061	0.1
681.385	0.11
681.709	0.1
682.033	0.1
682.356	0.11
682.68	0.1
683.004	0.1
683.327	0.1
683.651	0.1
683.974	0.1
684.298	0.1
684.621	0.1
684.944	0.1
685.268	0.09
685.591	0.09
685.914	0.09
686.237	0.09
686.56	0.09
686.883	0.09
687.206	0.09
687.529	0.09
687.852	0.09
688.175	0.09
688.497	0.09
688.82	0.09
689.142	0.09
689.465	0.09
689.787	0.09
690.11	0.09
690.432	0.09
690.755	0.08
691.077	0.08
691.399	0.08
691.721	0.08
692.043	0.08
692.365	0.08
692.687	0.08
693.009	0.08
693.331	0.08
693.653	0.07
693.974	0.07
694.296	0.07
694.618	0.07
694.939	0.07
695.261	0.07
695.582	0.07
695.904	0.07
696.225	0.07
696.546	0.07
696.868	0.07
697.189	0.07
697.51	0.07
697.831	0.07
698.152	0.07
698.473	0.07
698.794	0.07
699.114	0.07
699.435	0.06
699.756	0.06
700.077	0.06
700.397	0.06
700.718	0.07
701.038	0.07
701.359	0.06
701.679	0.06
701.999	0.07
702.32	0.07
702.64	0.07
702.96	0.06
703.28	0.07
703.6	0.06
703.92	0.06
704.24	0.06
704.56	0.06
704.879	0.06
705.199	0.06
705.519	0.06
705.838	0.06
706.158	0.06
706.478	0.06
706.797	0.06
707.116	0.05
707.436	0.05
707.755	0.05
708.074	0.06
708.393	0.06
708.712	0.05
709.031	0.05
709.35	0.05
709.669	0.05
709.988	0.05
710.307	0.05
710.626	0.05
710.944	0.05
711.263	0.05
711.582	0.06
711.9	0.05
712.219	0.06
712.537	0.06
712.855	0.05
713.174	0.06
713.492	0.05
713.81	0.06
714.128	0.05
714.446	0.06
714.764	0.05
715.082	0.05
715.4	0.05
715.718	0.05
716.035	0.05
716.353	0.05
716.671	0.05
716.988	0.05
717.306	0.05
717.623	0.06
717.941	0.06
718.258	0.06
718.575	0.06
718.893	0.05
719.21	0.06
719.527	0.05
719.844	0.05
720.161	0.05
720.478	0.05
720.795	0.05
721.112	0.05
721.428	0.05
721.745	0.05
722.062	0.05
722.378	0.05
722.695	0.05
723.011	0.05
723.328	0.05
723.644	0.06
723.96	0.06
724.276	0.06
724.593	0.06
724.909	0.06
725.225	0.07
725.541	0.07
725.857	0.07
726.173	0.07
726.488	0.07
726.804	0.06
727.12	0.06
727.435	0.06
727.751	0.06
728.067	0.06
728.382	0.06
728.697	0.06
729.013	0.07
729.328	0.06
729.643	0.06
729.958	0.06
730.273	0.07
730.588	0.07
730.903	0.06
731.218	0.07
731.533	0.07
731.848	0.06
732.163	0.06
732.477	0.07
732.792	0.06
733.107	0.06
733.421	0.07
733.736	0.06
734.05	0.06
734.364	0.06
734.678	0.06
734.993	0.06
735.307	0.06
735.621	0.06
735.935	0.06
736.249	0.06
736.563	0.06
736.877	0.06
737.19	0.06
737.504	0.06
737.818	0.07
738.131	0.06
738.445	0.06
738.758	0.06
739.072	0.06
739.385	0.06
739.698	0.06
740.012	0.06
740.325	0.06
740.638	0.06
740.951	0.06
741.264	0.06
741.577	0.06
741.89	0.06
742.203	0.06
742.515	0.06
742.828	0.06
743.141	0.06
743.453	0.06
743.766	0.06
744.078	0.06
744.391	0.05
744.703	0.06
745.015	0.06
745.327	0.06
745.639	0.06
745.952	0.05
746.264	0.06
746.575	0.06
746.887	0.06
747.199	0.06
747.511	0.06
747.823	0.06
748.134	0.06
748.446	0.06
748.757	0.06
749.069	0.06
749.38	0.06
749.692	0.05
750.003	0.05
750.314	0.05
750.625	0.05
750.936	0.05
751.248	0.05
751.559	0.05
751.869	0.05
752.18	0.05
752.491	0.05
752.802	0.05
753.112	0.04
753.423	0.05
753.734	0.05
754.044	0.05
754.355	0.05
754.665	0.05
754.975	0.05
755.285	0.05
755.596	0.04
755.906	0.04
756.216	0.04
756.526	0.04
756.836	0.04
757.146	0.04
757.455	0.04
757.765	0.05
758.075	0.04
758.385	0.04
758.694	0.04
759.004	0.04
759.313	0.04
759.622	0.04
759.932	0.04
760.241	0.04
760.55	0.03
760.859	0.03
761.168	0.03
761.477	0.03
761.786	0.03
762.095	0.03
762.404	0.03
762.713	0.03
763.021	0.03
763.33	0.03
763.639	0.03
763.947	0.03
764.256	0.03
764.564	0.03
764.872	0.03
765.181	0.03
765.489	0.03
765.797	0.03
766.105	0.03
766.413	0.03
766.721	0.03
767.029	0.03
767.337	0.03
767.644	0.03
767.952	0.02
768.26	0.03
768.567	0.03
768.875	0.03
769.182	0.03
769.49	0.03
769.797	0.03
770.104	0.03
770.411	0.03
770.718	0.03
771.026	0.03
771.333	0.03
771.639	0.03
771.946	0.03
772.253	0.03
772.56	0.03
772.867	0.02
773.173	0.03
773.48	0.02
773.786	0.02
774.093	0.02
774.399	0.02
774.705	0.02
775.012	0.02
775.318	0.02
775.624	0.02
775.93	0.03
776.236	0.03
776.542	0.02
776.848	0.03
777.154	0.03
777.459	0.03
777.765	0.03
778.071	0.03
778.376	0.03
778.682	0.03
778.987	0.03
779.292	0.03
779.598	0.03
779.903	0.03
780.208	0.03
780.513	0.02
780.818	0.02
781.123	0.03
781.428	0.02
781.733	0.02
782.038	0.02
782.343	0.02
782.647	0.02
782.952	0.03
783.256	0.03
783.561	0.03
783.865	0.02
784.17	0.02
784.474	0.03
784.778	0.03
785.082	0.03
785.386	0.03
785.69	0.03
785.994	0.03
786.298	0.03
786.602	0.03
786.906	0.03
787.209	0.03
787.513	0.03
787.817	0.03
788.12	0.04
788.424	0.03
788.727	0.03
789.03	0.03
789.333	0.03
789.637	0.03
789.94	0.02
790.243	0.02
790.546	0.02
790.849	0.02
791.152	0.02
791.454	0.02
791.757	0.02
792.06	0.02
792.362	0.01
792.665	0.02
792.967	0.01
793.27	0.01
793.572	0.01
793.874	0.01
794.177	0.02
794.479	0.01
794.781	0.02
795.083	0.02
795.385	0.02
795.687	0.02
795.989	0.02
796.29	0.02
796.592	0.02
796.894	0.02
797.195	0.02
797.497	0.02
797.798	0.02
798.1	0.02
798.401	0.02
798.702	0.02
799.003	0.01
799.304	0.02
799.605	0.01
799.906	0.02
800.207	0.02
800.508	0.02
800.809	0.02
801.11	0.01
801.41	0.01
801.711	0.01
802.011	0.02
802.312	0.02
802.612	0.02
802.913	0.02
803.213	0.02
803.513	0.02
803.813	0.02
804.113	0.01
804.413	0.02
804.713	0.01
805.013	0.02
805.313	0.02
805.613	0.01
805.912	0.01
806.212	0.01
806.511	0.01
806.811	0.01
807.11	0.02
807.41	0.02
807.709	0.02
808.008	0.02
808.307	0.02
808.606	0.02
808.905	0.02
809.204	0.02
809.503	0.01
809.802	0.02
810.101	0.02
810.399	0.01
810.698	0.01
810.997	0.02
811.295	0.02
811.593	0.02
811.892	0.02
812.19	0.02
812.488	0.02
812.786	0.02
813.084	0.02
813.383	0.02
813.68	0.02
813.978	0.02
814.276	0.02
814.574	0.01
814.872	0.01
815.169	0.01
815.467	0.01
815.764	0.02
816.062	0.01
816.359	0.01
816.656	0.01
816.954	0.01
817.251	0.01
817.548	0.01
817.845	0.01
818.142	0.01
818.439	0.01
818.735	0.01
819.032	0.01
819.329	0.01
819.626	0.01
819.922	0.01
820.219	0.01
820.515	0.02
820.811	0.01
821.108	0.01
821.404	0.01
821.7	0.01
821.996	0.01
822.292	0.01
822.588	0.01
822.884	0.01
823.18	0.01
823.475	0.01
823.771	0.01
824.067	0.01
824.362	0
824.658	0.01
824.953	0.01
825.249	0.01
825.544	0
825.839	0.01
826.134	0.01
826.429	0.01
826.724	0.01
827.019	0.01
827.314	0.01
827.609	0.01
827.904	0.01
828.198	0
828.493	0.01
828.787	0.01
829.082	0.01
829.376	0.01
829.671	0.01
829.965	0.01
830.259	0.01
830.553	0
830.847	0
831.141	0.01
831.435	0
831.729	0
832.023	0
832.317	0
832.61	0
832.904	0.01
833.197	0.01
833.491	0
833.784	-0
834.077	0
834.371	0.01
834.664	0.01
834.957	0.01
835.25	0.01
835.543	0.01
835.836	0.01
836.129	0.01
836.421	0.01
836.714	0.01
837.007	0.01
837.299	0.01
837.592	0
837.884	0.01
838.177	-0.01
838.469	-0
838.761	-0
839.053	-0
839.345	0
839.637	0.01
839.929	0
840.221	0.02
840.513	0.01
840.805	0
841.096	0
841.388	0
841.68	-0
841.971	0.01
842.262	0
842.554	0.01
842.845	0.01
843.136	0.01
843.427	-0
843.718	0.01
844.009	0
844.3	0
844.591	0.01
844.882	-0
845.173	-0
845.463	0
845.754	-0
846.044	0.01
846.335	0
846.625	0.01
846.915	0
847.206	0
847.496	0
847.786	0.01
848.076	0
848.366	-0
848.656	0
848.945	0
849.235	-0
849.525	-0
849.814	0.02
850.104	0.01
850.393	0.01
850.683	0.01
850.972	0
851.261	-0
851.551	0.01
851.84	0.03
852.129	0
852.418	-0
852.707	0.01
852.995	0.01
853.284	0
853.573	0
853.862	0
854.15	0.01
854.439	0
854.727	0.01
855.015	-0.01
855.304	-0
855.592	-0.01
855.88	-0
856.168	-0.01
856.456	-0.02
856.744	-0
857.032	-0.03
857.32	-0.02
857.607	-0.01
857.895	-0.02
858.183	0
858.47	-0.01
858.757	-0.01
859.045	-0.01
859.332	0.01
859.619	0
859.907	-0.01
860.194	-0.02
860.481	0.01
860.768	-0.02
861.054	-0.01
861.341	-0
861.628	-0.01
861.915	-0.03
862.201	-0
862.488	-0.02
862.774	-0.02
863.061	-0.01
863.347	-0.02
863.633	-0.03
863.919	-0.02
864.205	-0
864.491	-0.02
864.777	-0.01
865.063	-0.01
865.349	-0
865.635	-0.01
865.92	0.02
866.206	-0.03
866.492	-0.02
866.777	-0.04
867.062	-0.02
867.348	-0.04
867.633	0.03
867.918	-0.03
868.203	-0.02
868.488	-0.06
868.773	0.01
869.058	-0.06
869.343	-0.02
869.628	-0.01
869.912	-0.02
870.197	-0.03
870.482	-0.03
870.766	-0.01
871.05	0.02
871.335	-0.01
871.619	-0.01
871.903	-0.03
872.187	-0.01
872.471	-0.06
872.755	-0.04
873.039	-0.07
873.323	-0.03
873.607	-0.04
873.89	-0.05
874.174	-0.07
874.458	-0.05
874.741	-0.02
875.024	-0.06
875.308	-0.01
875.591	-0.08
875.874	0.01
876.157	-0.03
876.44	0
876.723	0.01
877.006	0.01
877.289	-0.03
877.572	-0.04
877.854	0.01
878.137	-0.06
878.42	0.09
878.702	-0.06
878.984	-0.02
879.267	-0.04
879.549	0.04
879.831	-0.07
880.113	-0.04
880.395	-0.08
880.677	-0.13
880.959	0.02
