Data from Rubpy_EV_900_EDTA_Buffered_Absorbance_13-37-43-798.txt Node
Date: Tue Jun 30 13:37:43 BST 2026
User: fpm-admin
Spectrometer: OFX00224
Trigger mode: 0
Integration Time (sec): 7.000000E-2
Scans to average: 3
Nonlinearity correction enabled: false
Boxcar width: 0
Storing dark spectrum: false
XAxis mode: Wavelengths
Number of Pixels in Spectrum: 2136
>>>>>Begin Spectral Data<<<<<
154.91	1.13
155.289	-1.4
155.669	-0
156.048	-1.06
156.428	-0.06
156.807	0.04
157.186	0.35
157.566	-0
157.945	0.14
158.325	-0.52
158.704	-0
159.083	0.11
159.462	-0.01
159.842	-0.18
160.221	0.9
160.6	0.06
160.979	-0
161.359	-0
161.738	0.2
162.117	-0.25
162.496	-0
162.875	-0
163.254	-0
163.633	0.35
164.012	-0
164.391	-0
164.77	-0
165.149	0.19
165.528	-0
165.907	-0
166.286	-0
166.665	-0
167.044	-0.85
167.423	0.36
167.802	0.65
168.181	0.55
168.559	-0
168.938	-0
169.317	-0.3
169.696	-0
170.074	-0.54
170.453	-0
170.832	0.2
171.21	0.27
171.589	-0
171.968	-0
172.346	-0.52
172.725	0.09
173.103	-0
173.482	0.3
173.861	-0.13
174.239	0.43
174.617	0.37
174.996	0.78
175.374	0.68
175.753	-0.06
176.131	-0
176.51	-0.6
176.888	-0
177.266	0.21
177.645	-0.08
178.023	0.61
178.401	-0.02
178.779	-0.09
179.158	-0
179.536	0.22
179.914	-0.04
180.292	0.18
180.67	-0
181.048	-0
181.427	0.48
181.805	-0.36
182.183	-0
182.561	-0
182.939	0.2
183.317	0.9
183.695	-0
184.073	-0
184.451	-0
184.829	0.39
185.206	-0.53
185.584	-0
185.962	0.31
186.34	-0.23
186.718	0.36
187.096	0.06
187.473	0.05
187.851	-0.6
188.229	-0.36
188.607	0.04
188.984	0.12
189.362	0.02
189.74	-0.04
190.117	0
190.495	0.07
190.872	0.05
191.25	0.04
191.627	0.01
192.005	0
192.382	0.12
192.76	0.16
193.137	0.01
193.515	0.08
193.892	-0.02
194.269	0.06
194.647	0.06
195.024	0.06
195.401	0.18
195.779	0.05
196.156	0.14
196.533	0.08
196.91	0
197.288	0.1
197.665	-0.02
198.042	0.07
198.419	0.05
198.796	0.19
199.173	0.07
199.55	0.19
199.927	0.16
200.304	0.1
200.681	0.12
201.058	-0.04
201.435	0.14
201.812	0.08
202.189	0.1
202.566	0.02
202.943	0.08
203.32	0.06
203.697	0.11
204.073	0.12
204.45	0.15
204.827	0.02
205.204	0.11
205.58	0.08
205.957	0.06
206.334	0.07
206.71	0.05
207.087	0.01
207.464	0
207.84	0.14
208.217	-0
208.593	0.1
208.97	0.03
209.346	0.1
209.723	0.04
210.099	0.15
210.476	-0.01
210.852	0.16
211.228	0.1
211.605	0.05
211.981	0.13
212.357	0.01
212.733	0.11
213.11	0.12
213.486	0.05
213.862	0.06
214.238	0.05
214.614	0.06
214.991	0.07
215.367	0.05
215.743	0.05
216.119	0.02
216.495	-0.03
216.871	0.06
217.247	0.24
217.623	0.03
217.999	0
218.375	0.01
218.751	0.07
219.127	0.09
219.502	0.08
219.878	-0.02
220.254	0.12
220.63	0.05
221.006	0.03
221.381	0.02
221.757	0.09
222.133	0.15
222.508	0.16
222.884	0.17
223.26	0.12
223.635	0.12
224.011	0.1
224.386	0.08
224.762	0.14
225.137	0.12
225.513	-0.05
225.888	0.09
226.264	0.08
226.639	0.08
227.014	0.09
227.39	-0.01
227.765	0.01
228.14	0.13
228.516	-0.02
228.891	0.07
229.266	0.11
229.641	0.06
230.017	0.1
230.392	0.14
230.767	0.14
231.142	0.1
231.517	0.17
231.892	0.03
232.267	0.11
232.642	0.09
233.017	0.03
233.392	0.1
233.767	0.14
234.142	0.11
234.517	0.06
234.892	-0.01
235.267	0.05
235.641	0.14
236.016	0.17
236.391	0.15
236.766	0.1
237.14	0.01
237.515	0.1
237.89	0.07
238.264	0.05
238.639	0.16
239.014	0.15
239.388	0.06
239.763	0.14
240.137	0.11
240.512	0.07
240.886	0.05
241.261	0.08
241.635	0.13
242.009	0.04
242.384	0.02
242.758	0.04
243.132	0.01
243.507	0.12
243.881	0.09
244.255	0.14
244.629	0.03
245.004	0.09
245.378	0.1
245.752	0.16
246.126	0.01
246.5	0.03
246.874	0.19
247.248	0.02
247.622	0.03
247.996	0.01
248.37	0.08
248.744	0.09
249.118	0.17
249.492	0.09
249.866	0.08
250.24	0.08
250.613	0.1
250.987	0.09
251.361	0.07
251.735	0.03
252.108	0.1
252.482	0.14
252.856	0.13
253.229	0.02
253.603	0.08
253.977	0.17
254.35	0.13
254.724	-0.01
255.097	0.02
255.471	0.06
255.844	0.11
256.218	0.05
256.591	0.07
256.964	0.06
257.338	0.14
257.711	0.04
258.084	0.04
258.458	0.08
258.831	0.11
259.204	0.07
259.577	0.04
259.95	0.09
260.323	0.11
260.697	0.06
261.07	0.03
261.443	0.09
261.816	0.15
262.189	0.05
262.562	0.07
262.935	0.19
263.308	0.02
263.68	0.08
264.053	0.07
264.426	0.05
264.799	0.06
265.172	0.07
265.545	0.1
265.917	0.09
266.29	0.13
266.663	0.1
267.035	0.02
267.408	0.06
267.781	0.12
268.153	0.1
268.526	0.19
268.898	0.07
269.271	0.01
269.643	0.04
270.016	0.05
270.388	0.01
270.76	0.15
271.133	0.12
271.505	0.09
271.877	0.09
272.25	0.13
272.622	0.11
272.994	0.1
273.366	0.05
273.739	0.04
274.111	-0.01
274.483	0.1
274.855	0.17
275.227	0.05
275.599	0.06
275.971	0.09
276.343	0.07
276.715	0.07
277.087	0.1
277.459	0.1
277.831	0.14
278.203	0.1
278.574	0.08
278.946	0.06
279.318	0.1
279.69	0.1
280.061	0.02
280.433	0.07
280.805	0.08
281.176	0.09
281.548	0.1
281.92	0.08
282.291	0.05
282.663	0.07
283.034	0.1
283.406	0.1
283.777	0.12
284.148	0.13
284.52	0.09
284.891	0.1
285.262	0.08
285.634	0.12
286.005	0.04
286.376	0.09
286.747	0.09
287.119	0.05
287.49	0.07
287.861	0.07
288.232	0.06
288.603	0.12
288.974	0.08
289.345	0.13
289.716	0.06
290.087	0.07
290.458	0.1
290.829	0.05
291.2	0.04
291.571	0.07
291.941	0.08
292.312	0.11
292.683	0.08
293.054	0.14
293.424	0.06
293.795	0.07
294.166	0.12
294.536	0.11
294.907	0.11
295.277	0.04
295.648	0.03
296.018	0.06
296.389	0.07
296.759	0.05
297.13	0.04
297.5	0.12
297.871	0.1
298.241	0.05
298.611	0.08
298.981	0.08
299.352	0.06
299.722	0.08
300.092	0.07
300.462	0.08
300.832	0.08
301.202	0.05
301.573	0.04
301.943	0.08
302.313	0.06
302.683	0.04
303.053	0.04
303.422	0.06
303.792	0.04
304.162	0.06
304.532	0.06
304.902	0.06
305.272	0.05
305.641	0.06
306.011	0.05
306.381	0.06
306.75	0.04
307.12	0.06
307.49	0.06
307.859	0.06
308.229	0.05
308.598	0.06
308.968	0.06
309.337	0.06
309.707	0.06
310.076	0.06
310.445	0.06
310.815	0.06
311.184	0.06
311.553	0.07
311.923	0.07
312.292	0.06
312.661	0.07
313.03	0.06
313.399	0.07
313.768	0.07
314.137	0.06
314.506	0.07
314.875	0.06
315.244	0.07
315.613	0.06
315.982	0.07
316.351	0.07
316.72	0.07
317.089	0.06
317.458	0.06
317.826	0.06
318.195	0.06
318.564	0.06
318.933	0.06
319.301	0.06
319.67	0.06
320.038	0.06
320.407	0.06
320.775	0.06
321.144	0.06
321.512	0.06
321.881	0.05
322.249	0.06
322.618	0.05
322.986	0.06
323.354	0.05
323.723	0.05
324.091	0.06
324.459	0.06
324.827	0.05
325.195	0.05
325.564	0.04
325.932	0.05
326.3	0.05
326.668	0.05
327.036	0.05
327.404	0.05
327.772	0.06
328.14	0.05
328.508	0.05
328.875	0.05
329.243	0.05
329.611	0.05
329.979	0.05
330.346	0.05
330.714	0.05
331.082	0.05
331.449	0.05
331.817	0.05
332.185	0.05
332.552	0.05
332.92	0.06
333.287	0.06
333.655	0.06
334.022	0.06
334.389	0.05
334.757	0.05
335.124	0.06
335.491	0.05
335.859	0.06
336.226	0.06
336.593	0.06
336.96	0.06
337.327	0.06
337.695	0.06
338.062	0.06
338.429	0.06
338.796	0.06
339.163	0.06
339.53	0.06
339.897	0.06
340.263	0.06
340.63	0.07
340.997	0.06
341.364	0.07
341.731	0.07
342.097	0.07
342.464	0.07
342.831	0.07
343.197	0.07
343.564	0.07
343.931	0.08
344.297	0.08
344.664	0.08
345.03	0.08
345.396	0.08
345.763	0.08
346.129	0.07
346.496	0.08
346.862	0.08
347.228	0.09
347.594	0.08
347.961	0.09
348.327	0.09
348.693	0.09
349.059	0.09
349.425	0.09
349.791	0.09
350.157	0.09
350.523	0.1
350.889	0.1
351.255	0.1
351.621	0.1
351.987	0.1
352.353	0.11
352.719	0.11
353.084	0.11
353.45	0.11
353.816	0.11
354.181	0.11
354.547	0.12
354.913	0.12
355.278	0.12
355.644	0.12
356.009	0.13
356.375	0.13
356.74	0.13
357.106	0.13
357.471	0.13
357.836	0.14
358.202	0.14
358.567	0.15
358.932	0.15
359.297	0.15
359.663	0.15
360.028	0.15
360.393	0.16
360.758	0.16
361.123	0.16
361.488	0.17
361.853	0.17
362.218	0.17
362.583	0.16
362.948	0.17
363.312	0.17
363.677	0.17
364.042	0.18
364.407	0.18
364.772	0.19
365.136	0.19
365.501	0.2
365.865	0.2
366.23	0.2
366.595	0.21
366.959	0.21
367.324	0.21
367.688	0.22
368.052	0.22
368.417	0.23
368.781	0.23
369.145	0.23
369.51	0.23
369.874	0.23
370.238	0.24
370.602	0.24
370.967	0.24
371.331	0.23
371.695	0.23
372.059	0.23
372.423	0.23
372.787	0.23
373.151	0.23
373.515	0.23
373.878	0.23
374.242	0.23
374.606	0.23
374.97	0.23
375.334	0.23
375.697	0.23
376.061	0.23
376.425	0.24
376.788	0.24
377.152	0.24
377.515	0.24
377.879	0.24
378.242	0.25
378.606	0.25
378.969	0.25
379.333	0.25
379.696	0.26
380.059	0.26
380.422	0.27
380.786	0.27
381.149	0.27
381.512	0.29
381.875	0.29
382.238	0.3
382.601	0.3
382.964	0.31
383.327	0.32
383.69	0.33
384.053	0.34
384.416	0.35
384.779	0.36
385.142	0.36
385.504	0.37
385.867	0.37
386.23	0.38
386.593	0.38
386.955	0.39
387.318	0.38
387.68	0.39
388.043	0.38
388.405	0.38
388.768	0.38
389.13	0.37
389.493	0.37
389.855	0.37
390.217	0.37
390.58	0.37
390.942	0.37
391.304	0.37
391.666	0.38
392.028	0.38
392.391	0.39
392.753	0.4
393.115	0.42
393.477	0.42
393.839	0.45
394.201	0.46
394.563	0.49
394.924	0.5
395.286	0.52
395.648	0.54
396.01	0.55
396.371	0.56
396.733	0.58
397.095	0.59
397.456	0.6
397.818	0.6
398.18	0.6
398.541	0.59
398.903	0.57
399.264	0.56
399.625	0.54
399.987	0.52
400.348	0.5
400.709	0.47
401.071	0.44
401.432	0.42
401.793	0.4
402.154	0.37
402.515	0.34
402.876	0.32
403.238	0.3
403.599	0.28
403.96	0.25
404.32	0.24
404.681	0.22
405.042	0.21
405.403	0.19
405.764	0.18
406.125	0.17
406.485	0.15
406.846	0.15
407.207	0.14
407.567	0.13
407.928	0.12
408.288	0.12
408.649	0.11
409.009	0.1
409.37	0.1
409.73	0.09
410.091	0.09
410.451	0.09
410.811	0.08
411.171	0.08
411.532	0.08
411.892	0.07
412.252	0.07
412.612	0.07
412.972	0.07
413.332	0.07
413.692	0.07
414.052	0.06
414.412	0.06
414.772	0.05
415.132	0.06
415.492	0.06
415.851	0.05
416.211	0.05
416.571	0.05
416.931	0.05
417.29	0.05
417.65	0.05
418.009	0.04
418.369	0.05
418.728	0.05
419.088	0.04
419.447	0.04
419.807	0.04
420.166	0.04
420.525	0.04
420.884	0.04
421.244	0.05
421.603	0.03
421.962	0.04
422.321	0.04
422.68	0.03
423.039	0.04
423.398	0.04
423.757	0.03
424.116	0.04
424.475	0.03
424.834	0.03
425.193	0.03
425.551	0.03
425.91	0.03
426.269	0.03
426.628	0.04
426.986	0.03
427.345	0.04
427.703	0.04
428.062	0.03
428.42	0.03
428.779	0.03
429.137	0.03
429.496	0.03
429.854	0.02
430.212	0.04
430.57	0.03
430.929	0.02
431.287	0.02
431.645	0.03
432.003	0.04
432.361	0.03
432.719	0.02
433.077	0.03
433.435	0.03
433.793	0.03
434.151	0.03
434.509	0.03
434.866	0.03
435.224	0.03
435.582	0.03
435.94	0.03
436.297	0.03
436.655	0.02
437.012	0.03
437.37	0.02
437.727	0.02
438.085	0.03
438.442	0.02
438.8	0.03
439.157	0.02
439.514	0.02
439.872	0.02
440.229	0.03
440.586	0.03
440.943	0.02
441.3	0.02
441.657	0.01
442.014	0.02
442.371	0.02
442.728	0.02
443.085	0.02
443.442	0.01
443.799	0.02
444.156	0.01
444.513	0.02
444.869	0.02
445.226	0.01
445.583	0.02
445.939	0.01
446.296	0.01
446.652	0.01
447.009	0.01
447.365	0.01
447.722	0.02
448.078	0
448.434	0.01
448.791	0.01
449.147	0
449.503	0.01
449.859	0
450.215	0.01
450.571	-0
450.928	-0
451.284	-0
451.64	-0.01
451.995	-0.01
452.351	-0
452.707	-0.01
453.063	-0.01
453.419	-0.01
453.775	-0.01
454.13	-0.02
454.486	-0.01
454.842	-0.02
455.197	-0.03
455.553	-0.02
455.908	-0.03
456.264	-0.03
456.619	-0.04
456.975	-0.04
457.33	-0.02
457.685	-0.04
458.04	-0.05
458.396	-0.05
458.751	-0.05
459.106	-0.06
459.461	-0.06
459.816	-0.07
460.171	-0.06
460.526	-0.07
460.881	-0.08
461.236	-0.08
461.591	-0.08
461.946	-0.08
462.301	-0.09
462.655	-0.1
463.01	-0.09
463.365	-0.1
463.719	-0.1
464.074	-0.11
464.428	-0.12
464.783	-0.12
465.137	-0.13
465.492	-0.12
465.846	-0.13
466.201	-0.13
466.555	-0.13
466.909	-0.13
467.263	-0.12
467.618	-0.12
467.972	-0.13
468.326	-0.13
468.68	-0.13
469.034	-0.13
469.388	-0.14
469.742	-0.14
470.096	-0.14
470.45	-0.14
470.804	-0.14
471.157	-0.14
471.511	-0.14
471.865	-0.14
472.218	-0.14
472.572	-0.14
472.926	-0.13
473.279	-0.13
473.633	-0.12
473.986	-0.12
474.34	-0.12
474.693	-0.11
475.046	-0.1
475.4	-0.09
475.753	-0.09
476.106	-0.09
476.459	-0.08
476.812	-0.08
477.165	-0.08
477.519	-0.07
477.872	-0.06
478.224	-0.07
478.577	-0.05
478.93	-0.06
479.283	-0.05
479.636	-0.05
479.989	-0.05
480.341	-0.04
480.694	-0.04
481.047	-0.04
481.399	-0.03
481.752	-0.03
482.104	-0.03
482.457	-0.03
482.809	-0.02
483.162	-0.02
483.514	-0.02
483.866	-0.01
484.219	-0.02
484.571	-0.01
484.923	-0.01
485.275	-0.01
485.627	-0.01
485.979	-0.01
486.331	-0.01
486.683	-0
487.035	-0
487.387	-0
487.739	0.01
488.091	0.01
488.443	0.01
488.794	0.01
489.146	0.01
489.498	0.01
489.849	0.01
490.201	0.01
490.552	0
490.904	0.01
491.255	0.01
491.607	0
491.958	0.01
492.309	0.01
492.661	0.02
493.012	0.01
493.363	0.01
493.714	0.02
494.065	0.01
494.416	0.02
494.767	0.02
495.118	0.02
495.469	0.02
495.82	0.02
496.171	0.02
496.522	0.02
496.872	0.02
497.223	0.02
497.574	0.02
497.924	0.02
498.275	0.03
498.626	0.03
498.976	0.03
499.327	0.03
499.677	0.03
500.027	0.03
500.378	0.03
500.728	0.03
501.078	0.03
501.428	0.04
501.779	0.04
502.129	0.04
502.479	0.04
502.829	0.04
503.179	0.04
503.529	0.04
503.879	0.04
504.229	0.04
504.578	0.04
504.928	0.04
505.278	0.04
505.628	0.04
505.977	0.05
506.327	0.05
506.676	0.04
507.026	0.05
507.375	0.05
507.725	0.05
508.074	0.05
508.424	0.05
508.773	0.05
509.122	0.05
509.471	0.05
509.82	0.05
510.17	0.05
510.519	0.05
510.868	0.06
511.217	0.05
511.566	0.05
511.915	0.05
512.263	0.06
512.612	0.05
512.961	0.06
513.31	0.05
513.659	0.06
514.007	0.06
514.356	0.06
514.704	0.06
515.053	0.06
515.401	0.06
515.75	0.06
516.098	0.06
516.447	0.07
516.795	0.06
517.143	0.06
517.491	0.06
517.839	0.07
518.188	0.06
518.536	0.07
518.884	0.07
519.232	0.07
519.58	0.07
519.928	0.07
520.275	0.07
520.623	0.07
520.971	0.07
521.319	0.07
521.666	0.07
522.014	0.07
522.362	0.07
522.709	0.07
523.057	0.07
523.404	0.07
523.752	0.08
524.099	0.08
524.446	0.07
524.794	0.08
525.141	0.08
525.488	0.07
525.835	0.08
526.182	0.08
526.529	0.08
526.876	0.08
527.223	0.08
527.57	0.08
527.917	0.08
528.264	0.08
528.611	0.08
528.958	0.08
529.304	0.08
529.651	0.08
529.998	0.08
530.344	0.08
530.691	0.08
531.037	0.09
531.384	0.08
531.73	0.09
532.076	0.09
532.423	0.09
532.769	0.09
533.115	0.09
533.461	0.09
533.807	0.09
534.154	0.09
534.5	0.09
534.846	0.09
535.192	0.09
535.537	0.09
535.883	0.09
536.229	0.1
536.575	0.1
536.921	0.1
537.266	0.1
537.612	0.1
537.957	0.1
538.303	0.1
538.649	0.1
538.994	0.1
539.339	0.1
539.685	0.1
540.03	0.1
540.375	0.1
540.721	0.1
541.066	0.11
541.411	0.11
541.756	0.11
542.101	0.11
542.446	0.11
542.791	0.11
543.136	0.11
543.481	0.11
543.825	0.11
544.17	0.11
544.515	0.11
544.86	0.12
545.204	0.11
545.549	0.11
545.893	0.11
546.238	0.12
546.582	0.12
546.927	0.12
547.271	0.12
547.615	0.12
547.96	0.12
548.304	0.12
548.648	0.12
548.992	0.12
549.336	0.12
549.68	0.12
550.024	0.12
550.368	0.12
550.712	0.12
551.056	0.12
551.4	0.12
551.743	0.13
552.087	0.13
552.431	0.13
552.774	0.13
553.118	0.13
553.462	0.13
553.805	0.13
554.148	0.13
554.492	0.13
554.835	0.13
555.178	0.13
555.522	0.13
555.865	0.13
556.208	0.14
556.551	0.13
556.894	0.14
557.237	0.14
557.58	0.14
557.923	0.13
558.266	0.14
558.609	0.14
558.952	0.14
559.294	0.14
559.637	0.14
559.98	0.14
560.322	0.14
560.665	0.14
561.007	0.14
561.35	0.14
561.692	0.14
562.034	0.14
562.377	0.14
562.719	0.14
563.061	0.15
563.403	0.14
563.745	0.14
564.088	0.14
564.43	0.14
564.772	0.14
565.113	0.15
565.455	0.15
565.797	0.15
566.139	0.15
566.481	0.15
566.822	0.15
567.164	0.15
567.506	0.15
567.847	0.15
568.189	0.15
568.53	0.15
568.872	0.15
569.213	0.15
569.554	0.15
569.895	0.15
570.237	0.15
570.578	0.15
570.919	0.15
571.26	0.15
571.601	0.15
571.942	0.15
572.283	0.15
572.624	0.15
572.965	0.15
573.306	0.15
573.646	0.15
573.987	0.14
574.328	0.14
574.668	0.15
575.009	0.15
575.349	0.15
575.69	0.15
576.03	0.15
576.37	0.14
576.711	0.14
577.051	0.15
577.391	0.15
577.731	0.15
578.072	0.15
578.412	0.14
578.752	0.15
579.092	0.15
579.431	0.14
579.771	0.14
580.111	0.14
580.451	0.14
580.791	0.14
581.13	0.15
581.47	0.14
581.81	0.14
582.149	0.15
582.489	0.15
582.828	0.15
583.167	0.14
583.507	0.13
583.846	0.1
584.185	0.12
584.525	0.14
584.864	0.14
585.203	0.15
585.542	0.15
585.881	0.15
586.22	0.15
586.559	0.15
586.898	0.15
587.236	0.15
587.575	0.15
587.914	0.15
588.252	0.15
588.591	0.15
588.93	0.16
589.268	0.15
589.607	0.16
589.945	0.16
590.283	0.16
590.622	0.16
590.96	0.16
591.298	0.16
591.636	0.16
591.974	0.16
592.313	0.16
592.651	0.17
592.989	0.17
593.326	0.17
593.664	0.17
594.002	0.17
594.34	0.17
594.678	0.17
595.015	0.16
595.353	0.16
595.691	0.17
596.028	0.17
596.366	0.17
596.703	0.17
597.04	0.17
597.378	0.18
597.715	0.17
598.052	0.18
598.389	0.17
598.726	0.18
599.064	0.18
599.401	0.18
599.738	0.18
600.074	0.18
600.411	0.18
600.748	0.18
601.085	0.18
601.422	0.18
601.758	0.17
602.095	0.17
602.432	0.18
602.768	0.18
603.105	0.18
603.441	0.18
603.777	0.18
604.114	0.18
604.45	0.19
604.786	0.18
605.122	0.19
605.459	0.19
605.795	0.18
606.131	0.18
606.467	0.18
606.803	0.18
607.139	0.18
607.474	0.18
607.81	0.18
608.146	0.18
608.482	0.18
608.817	0.18
609.153	0.18
609.488	0.18
609.824	0.18
610.159	0.18
610.495	0.18
610.83	0.18
611.165	0.18
611.5	0.17
611.836	0.17
612.171	0.17
612.506	0.18
612.841	0.17
613.176	0.17
613.511	0.18
613.845	0.18
614.18	0.17
614.515	0.18
614.85	0.18
615.184	0.18
615.519	0.18
615.854	0.17
616.188	0.17
616.523	0.17
616.857	0.17
617.191	0.17
617.526	0.17
617.86	0.17
618.194	0.17
618.528	0.17
618.862	0.17
619.196	0.17
619.53	0.17
619.864	0.17
620.198	0.17
620.532	0.17
620.866	0.17
621.2	0.17
621.533	0.17
621.867	0.16
622.201	0.16
622.534	0.17
622.868	0.16
623.201	0.16
623.534	0.16
623.868	0.17
624.201	0.16
624.534	0.16
624.868	0.16
625.201	0.16
625.534	0.16
625.867	0.16
626.2	0.16
626.533	0.16
626.865	0.16
627.198	0.15
627.531	0.15
627.864	0.16
628.196	0.16
628.529	0.15
628.862	0.15
629.194	0.15
629.527	0.15
629.859	0.15
630.191	0.15
630.524	0.15
630.856	0.15
631.188	0.15
631.52	0.15
631.852	0.15
632.184	0.14
632.516	0.14
632.848	0.14
633.18	0.14
633.512	0.14
633.844	0.14
634.175	0.14
634.507	0.14
634.839	0.13
635.17	0.14
635.502	0.14
635.833	0.14
636.165	0.13
636.496	0.13
636.827	0.14
637.159	0.13
637.49	0.13
637.821	0.13
638.152	0.13
638.483	0.13
638.814	0.13
639.145	0.13
639.476	0.12
639.807	0.12
640.137	0.12
640.468	0.12
640.799	0.12
641.129	0.11
641.46	0.11
641.791	0.12
642.121	0.11
642.451	0.12
642.782	0.11
643.112	0.12
643.442	0.11
643.773	0.12
644.103	0.11
644.433	0.12
644.763	0.11
645.093	0.11
645.423	0.11
645.753	0.11
646.082	0.11
646.412	0.11
646.742	0.11
647.072	0.1
647.401	0.11
647.731	0.11
648.06	0.1
648.39	0.11
648.719	0.11
649.048	0.11
649.378	0.1
649.707	0.1
650.036	0.11
650.365	0.11
650.694	0.11
651.023	0.11
651.352	0.11
651.681	0.1
652.01	0.1
652.339	0.11
652.668	0.11
652.996	0.1
653.325	0.11
653.654	0.11
653.982	0.11
654.311	0.11
654.639	0.11
654.967	0.11
655.296	0.11
655.624	0.11
655.952	0.1
656.28	0.1
656.609	0.1
656.937	0.11
657.265	0.1
657.593	0.09
657.92	0
658.248	0
658.576	0
658.904	0
659.231	0.07
659.559	0.1
659.887	0.1
660.214	0.1
660.542	0.1
660.869	0.1
661.196	0.1
661.524	0.1
661.851	0.1
662.178	0.1
662.505	0.1
662.832	0.1
663.159	0.1
663.486	0.1
663.813	0.1
664.14	0.1
664.467	0.1
664.794	0.1
665.12	0.1
665.447	0.1
665.774	0.1
666.1	0.1
666.427	0.1
666.753	0.1
667.079	0.1
667.406	0.1
667.732	0.09
668.058	0.09
668.384	0.1
668.71	0.1
669.036	0.09
669.362	0.1
669.688	0.1
670.014	0.1
670.34	0.1
670.666	0.1
670.991	0.09
671.317	0.1
671.643	0.09
671.968	0.09
672.294	0.09
672.619	0.09
672.945	0.09
673.27	0.09
673.595	0.09
673.92	0.09
674.246	0.09
674.571	0.09
674.896	0.08
675.221	0.09
675.546	0.09
675.87	0.08
676.195	0.08
676.52	0.08
676.845	0.09
677.169	0.09
677.494	0.09
677.819	0.09
678.143	0.09
678.468	0.09
678.792	0.08
679.116	0.08
679.44	0.08
679.765	0.08
680.089	0.08
680.413	0.08
680.737	0.08
681.061	0.08
681.385	0.08
681.709	0.07
682.033	0.08
682.356	0.08
682.68	0.08
683.004	0.08
683.327	0.08
683.651	0.07
683.974	0.07
684.298	0.07
684.621	0.07
684.944	0.07
685.268	0.07
685.591	0.07
685.914	0.07
686.237	0.07
686.56	0.06
686.883	0.07
687.206	0.07
687.529	0.07
687.852	0.06
688.175	0.06
688.497	0.06
688.82	0.06
689.142	0.06
689.465	0.06
689.787	0.06
690.11	0.06
690.432	0.06
690.755	0.06
691.077	0.06
691.399	0.06
691.721	0.06
692.043	0.06
692.365	0.06
692.687	0.06
693.009	0.06
693.331	0.06
693.653	0.06
693.974	0.05
694.296	0.05
694.618	0.05
694.939	0.05
695.261	0.05
695.582	0.05
695.904	0.05
696.225	0.05
696.546	0.05
696.868	0.05
697.189	0.05
697.51	0.05
697.831	0.05
698.152	0.05
698.473	0.05
698.794	0.05
699.114	0.05
699.435	0.05
699.756	0.04
700.077	0.05
700.397	0.04
700.718	0.05
701.038	0.05
701.359	0.05
701.679	0.05
701.999	0.05
702.32	0.05
702.64	0.05
702.96	0.05
703.28	0.05
703.6	0.05
703.92	0.05
704.24	0.05
704.56	0.04
704.879	0.05
705.199	0.05
705.519	0.05
705.838	0.05
706.158	0.04
706.478	0.04
706.797	0.04
707.116	0.04
707.436	0.04
707.755	0.04
708.074	0.03
708.393	0.04
708.712	0.04
709.031	0.04
709.35	0.04
709.669	0.04
709.988	0.04
710.307	0.04
710.626	0.04
710.944	0.04
711.263	0.04
711.582	0.04
711.9	0.04
712.219	0.04
712.537	0.04
712.855	0.04
713.174	0.04
713.492	0.04
713.81	0.04
714.128	0.04
714.446	0.04
714.764	0.04
715.082	0.04
715.4	0.04
715.718	0.04
716.035	0.04
716.353	0.04
716.671	0.04
716.988	0.04
717.306	0.04
717.623	0.04
717.941	0.05
718.258	0.04
718.575	0.04
718.893	0.04
719.21	0.04
719.527	0.04
719.844	0.04
720.161	0.04
720.478	0.04
720.795	0.04
721.112	0.04
721.428	0.04
721.745	0.04
722.062	0.04
722.378	0.04
722.695	0.04
723.011	0.04
723.328	0.04
723.644	0.04
723.96	0.04
724.276	0.05
724.593	0.05
724.909	0.05
725.225	0.05
725.541	0.05
725.857	0.05
726.173	0.05
726.488	0.05
726.804	0.05
727.12	0.05
727.435	0.05
727.751	0.05
728.067	0.05
728.382	0.05
728.697	0.05
729.013	0.05
729.328	0.05
729.643	0.05
729.958	0.05
730.273	0.05
730.588	0.05
730.903	0.05
731.218	0.05
731.533	0.05
731.848	0.05
732.163	0.05
732.477	0.05
732.792	0.05
733.107	0.04
733.421	0.05
733.736	0.05
734.05	0.05
734.364	0.05
734.678	0.05
734.993	0.05
735.307	0.05
735.621	0.05
735.935	0.05
736.249	0.04
736.563	0.04
736.877	0.04
737.19	0.05
737.504	0.05
737.818	0.05
738.131	0.04
738.445	0.05
738.758	0.05
739.072	0.05
739.385	0.05
739.698	0.05
740.012	0.05
740.325	0.05
740.638	0.05
740.951	0.05
741.264	0.05
741.577	0.05
741.89	0.05
742.203	0.04
742.515	0.04
742.828	0.05
743.141	0.05
743.453	0.04
743.766	0.04
744.078	0.04
744.391	0.04
744.703	0.04
745.015	0.05
745.327	0.04
745.639	0.04
745.952	0.05
746.264	0.04
746.575	0.04
746.887	0.04
747.199	0.05
747.511	0.05
747.823	0.05
748.134	0.04
748.446	0.04
748.757	0.04
749.069	0.04
749.38	0.04
749.692	0.04
750.003	0.04
750.314	0.04
750.625	0.04
750.936	0.04
751.248	0.04
751.559	0.04
751.869	0.04
752.18	0.04
752.491	0.04
752.802	0.04
753.112	0.04
753.423	0.04
753.734	0.04
754.044	0.04
754.355	0.04
754.665	0.03
754.975	0.04
755.285	0.04
755.596	0.04
755.906	0.04
756.216	0.04
756.526	0.04
756.836	0.04
757.146	0.04
757.455	0.04
757.765	0.04
758.075	0.04
758.385	0.04
758.694	0.04
759.004	0.03
759.313	0.04
759.622	0.03
759.932	0.03
760.241	0.03
760.55	0.03
760.859	0.03
761.168	0.03
761.477	0.03
761.786	0.02
762.095	0.03
762.404	0.02
762.713	0.02
763.021	0.02
763.33	0.02
763.639	0.03
763.947	0.03
764.256	0.03
764.564	0.03
764.872	0.02
765.181	0.02
765.489	0.02
765.797	0.03
766.105	0.03
766.413	0.03
766.721	0.02
767.029	0.02
767.337	0.02
767.644	0.02
767.952	0.02
768.26	0.02
768.567	0.02
768.875	0.02
769.182	0.02
769.49	0.02
769.797	0.02
770.104	0.02
770.411	0.02
770.718	0.02
771.026	0.02
771.333	0.02
771.639	0.03
771.946	0.02
772.253	0.02
772.56	0.02
772.867	0.02
773.173	0.02
773.48	0.02
773.786	0.02
774.093	0.01
774.399	0.01
774.705	0.02
775.012	0.02
775.318	0.01
775.624	0.02
775.93	0.02
776.236	0.02
776.542	0.02
776.848	0.02
777.154	0.02
777.459	0.02
777.765	0.02
778.071	0.02
778.376	0.02
778.682	0.02
778.987	0.02
779.292	0.02
779.598	0.02
779.903	0.02
780.208	0.02
780.513	0.02
780.818	0.02
781.123	0.02
781.428	0.02
781.733	0.02
782.038	0.02
782.343	0.02
782.647	0.03
782.952	0.02
783.256	0.02
783.561	0.02
783.865	0.02
784.17	0.02
784.474	0.03
784.778	0.02
785.082	0.03
785.386	0.03
785.69	0.03
785.994	0.03
786.298	0.03
786.602	0.03
786.906	0.03
787.209	0.02
787.513	0.03
787.817	0.03
788.12	0.03
788.424	0.03
788.727	0.03
789.03	0.02
789.333	0.02
789.637	0.02
789.94	0.02
790.243	0.01
790.546	0.02
790.849	0.01
791.152	0.01
791.454	0.01
791.757	0.01
792.06	0.01
792.362	0.01
792.665	0.01
792.967	0.01
793.27	0.01
793.572	0.01
793.874	0.02
794.177	0.02
794.479	0.02
794.781	0.02
795.083	0.02
795.385	0.02
795.687	0.02
795.989	0.02
796.29	0.02
796.592	0.02
796.894	0.02
797.195	0.02
797.497	0.01
797.798	0.02
798.1	0.02
798.401	0.02
798.702	0.02
799.003	0.01
799.304	0.02
799.605	0.01
799.906	0.01
800.207	0.01
800.508	0.01
800.809	0.01
801.11	0.01
801.41	0.01
801.711	0
802.011	0.01
802.312	0.01
802.612	0
802.913	0.01
803.213	0.01
803.513	0.01
803.813	0.01
804.113	0
804.413	0.01
804.713	0.01
805.013	0.01
805.313	0.01
805.613	0.01
805.912	0.01
806.212	0.01
806.511	0.01
806.811	0.01
807.11	0.01
807.41	0.01
807.709	0.01
808.008	0.01
808.307	0.01
808.606	0.01
808.905	0.02
809.204	0.01
809.503	0.02
809.802	0.01
810.101	0.02
810.399	0.02
810.698	0.01
810.997	0.01
811.295	0.02
811.593	0.01
811.892	0.02
812.19	0.02
812.488	0.02
812.786	0.02
813.084	0.01
813.383	0.01
813.68	0.01
813.978	0.02
814.276	0.01
814.574	0.01
814.872	0.01
815.169	0.01
815.467	0.01
815.764	0.01
816.062	0.01
816.359	0.01
816.656	0.01
816.954	0.01
817.251	0.01
817.548	0
817.845	0.01
818.142	0.01
818.439	0.01
818.735	0.01
819.032	0.01
819.329	0.01
819.626	0.01
819.922	0.01
820.219	0.01
820.515	0.01
820.811	0.01
821.108	0.01
821.404	0.01
821.7	-0
821.996	0.01
822.292	0
822.588	0
822.884	0.01
823.18	0
823.475	0
823.771	0
824.067	0.01
824.362	0
824.658	0.01
824.953	0.01
825.249	0
825.544	0.01
825.839	0.01
826.134	0.01
826.429	0
826.724	0
827.019	0.01
827.314	0
827.609	0
827.904	0.01
828.198	0
828.493	0
828.787	0
829.082	0.01
829.376	0
829.671	0.01
829.965	0
830.259	0
830.553	-0
830.847	-0.01
831.141	0
831.435	0
831.729	-0
832.023	0
832.317	-0
832.61	-0.01
832.904	0
833.197	0
833.491	-0
833.784	-0
834.077	-0
834.371	0.01
834.664	0.01
834.957	0
835.25	0.01
835.543	0.01
835.836	0.01
836.129	0.01
836.421	0.01
836.714	0
837.007	0.01
837.299	0
837.592	0
837.884	-0
838.177	-0.01
838.469	-0
838.761	-0.01
839.053	-0.01
839.345	-0
839.637	-0
839.929	-0
840.221	0.02
840.513	0.01
840.805	0
841.096	0.01
841.388	0
841.68	0
841.971	0.01
842.262	0
842.554	0
842.845	0.01
843.136	0.01
843.427	0
843.718	0
844.009	-0
844.3	0.01
844.591	0
844.882	-0
845.173	0
845.463	-0.01
845.754	0
846.044	0.01
846.335	0
846.625	0.01
846.915	-0
847.206	-0.01
847.496	0
847.786	0
848.076	0
848.366	-0.01
848.656	-0
848.945	-0.01
849.235	0
849.525	-0.01
849.814	0.01
850.104	-0
850.393	0.01
850.683	-0.01
850.972	0
851.261	0
851.551	0
851.84	0.01
852.129	0
852.418	-0
852.707	0.01
852.995	0
853.284	0.01
853.573	0.02
853.862	-0
854.15	-0
854.439	-0
854.727	-0.01
855.015	-0.01
855.304	-0.02
855.592	-0.02
855.88	-0.01
856.168	-0.02
856.456	-0.01
856.744	-0.01
857.032	-0.04
857.32	-0.03
857.607	-0.01
857.895	-0.04
858.183	-0.01
858.47	-0
858.757	-0.03
859.045	-0.01
859.332	-0.01
859.619	-0.01
859.907	0
860.194	-0.01
860.481	-0.01
860.768	-0.03
861.054	-0.01
861.341	-0.01
861.628	-0.02
861.915	-0.01
862.201	-0
862.488	-0.03
862.774	-0.03
863.061	-0.03
863.347	-0.02
863.633	-0.02
863.919	-0.04
864.205	-0.02
864.491	-0.02
864.777	0
865.063	-0.01
865.349	-0.01
865.635	-0
865.92	-0
866.206	-0
866.492	0.01
866.777	-0.02
867.062	-0.05
867.348	-0.06
867.633	0.01
867.918	-0.01
868.203	-0.01
868.488	0.01
868.773	-0
869.058	-0.06
869.343	-0.03
869.628	-0.03
869.912	-0.04
870.197	-0.02
870.482	-0.04
870.766	-0.07
871.05	-0.01
871.335	-0.06
871.619	-0.02
871.903	-0.02
872.187	-0.02
872.471	-0.05
872.755	-0.07
873.039	-0.04
873.323	0
873.607	0.04
873.89	-0.06
874.174	-0.07
874.458	-0.01
874.741	-0.04
875.024	-0.08
875.308	-0.01
875.591	-0.03
875.874	0.03
876.157	-0.07
876.44	-0.04
876.723	0.07
877.006	0.03
877.289	-0.06
877.572	-0.02
877.854	-0.01
878.137	-0.08
878.42	0.08
878.702	-0.1
878.984	0.09
879.267	-0.02
879.549	-0.01
879.831	-0.04
880.113	-0.04
880.395	-0.06
880.677	-0.1
880.959	0.08
