Data from Rubpy_EV_900_EDTA_Buffered_Absorbance_13-41-40-794.txt Node
Date: Tue Jun 30 13:41:40 BST 2026
User: fpm-admin
Spectrometer: OFX00224
Trigger mode: 0
Integration Time (sec): 7.000000E-2
Scans to average: 3
Nonlinearity correction enabled: false
Boxcar width: 0
Storing dark spectrum: false
XAxis mode: Wavelengths
Number of Pixels in Spectrum: 2136
>>>>>Begin Spectral Data<<<<<
154.91	-0.1
155.289	-0.95
155.669	-0.14
156.048	-0
156.428	0.24
156.807	0.49
157.186	-0.07
157.566	0.94
157.945	-0.07
158.325	-0.73
158.704	-0.38
159.083	0.04
159.462	-0.05
159.842	0.08
160.221	-0.18
160.6	-0.09
160.979	-0.32
161.359	-0
161.738	0.9
162.117	-0.41
162.496	-0
162.875	-1.18
163.254	-0.22
163.633	-0.12
164.012	-0
164.391	-0.18
164.77	-0.58
165.149	-0.21
165.528	-0.22
165.907	0.42
166.286	-0
166.665	-1.23
167.044	-0
167.423	0.05
167.802	-0.19
168.181	-0.09
168.559	-0
168.938	-0
169.317	0.27
169.696	-0
170.074	-0.95
170.453	0.62
170.832	-0
171.21	-0
171.589	-0
171.968	-0
172.346	-0.92
172.725	-0
173.103	-0.34
173.482	-0.37
173.861	0.12
174.239	-0
174.617	-0
174.996	-0
175.374	-0.12
175.753	0.07
176.131	0.15
176.51	-0.46
176.888	-0
177.266	-0
177.645	0.06
178.023	0.18
178.401	-0.22
178.779	0.05
179.158	-0
179.536	-0
179.914	0.04
180.292	-0
180.67	-0
181.048	-0
181.427	-0
181.805	-0.34
182.183	-0
182.561	-0
182.939	1.04
183.317	0.09
183.695	0.19
184.073	-1.05
184.451	-0.94
184.829	-0.09
185.206	-0.2
185.584	-0.51
185.962	0.54
186.34	-0.32
186.718	0.36
187.096	0.1
187.473	0.39
187.851	-0.36
188.229	-0
188.607	0.09
188.984	0.18
189.362	-0.05
189.74	-0.05
190.117	0.03
190.495	0.11
190.872	0.12
191.25	0.09
191.627	0.02
192.005	0.1
192.382	0.06
192.76	0.09
193.137	0.07
193.515	0.19
193.892	-0
194.269	0.06
194.647	0.12
195.024	0.04
195.401	0.22
195.779	0.21
196.156	0.26
196.533	0.1
196.91	0.12
197.288	0.11
197.665	0
198.042	0.08
198.419	0.05
198.796	0.08
199.173	0.1
199.55	0.27
199.927	0.16
200.304	0.15
200.681	0.14
201.058	0.06
201.435	0.18
201.812	0.17
202.189	0.11
202.566	0.06
202.943	0.11
203.32	0.1
203.697	0.13
204.073	0.07
204.45	0.11
204.827	0.2
205.204	0.11
205.58	0.09
205.957	0.17
206.334	0.17
206.71	0.2
207.087	0.15
207.464	0.14
207.84	0.23
208.217	0.1
208.593	0.2
208.97	0.12
209.346	0.15
209.723	0.2
210.099	0.11
210.476	0.14
210.852	0.08
211.228	0.08
211.605	0.14
211.981	0.12
212.357	0.13
212.733	0.28
213.11	0.23
213.486	0.12
213.862	0.17
214.238	0.24
214.614	0.09
214.991	0.12
215.367	0.15
215.743	0.06
216.119	0.15
216.495	0.25
216.871	0.09
217.247	0.26
217.623	0.1
217.999	0.09
218.375	0.15
218.751	0.11
219.127	0.2
219.502	0.11
219.878	0.15
220.254	0.23
220.63	0.05
221.006	0.15
221.381	0.19
221.757	0.19
222.133	0.13
222.508	0.19
222.884	0.1
223.26	0.24
223.635	0.03
224.011	0.09
224.386	0.06
224.762	0.19
225.137	0.14
225.513	0.13
225.888	0.06
226.264	0.16
226.639	0.07
227.014	0.21
227.39	0.08
227.765	0.11
228.14	0.18
228.516	0.15
228.891	0.17
229.266	0.17
229.641	0.07
230.017	0.15
230.392	0.14
230.767	0.16
231.142	0.15
231.517	0.24
231.892	0.07
232.267	0.15
232.642	0.16
233.017	0.05
233.392	0.17
233.767	0.13
234.142	0.27
234.517	0.06
234.892	0.12
235.267	0.18
235.641	0.1
236.016	0.16
236.391	0.19
236.766	0.12
237.14	0.03
237.515	0.13
237.89	0.17
238.264	0.16
238.639	0.1
239.014	0.1
239.388	0.09
239.763	0.11
240.137	0.13
240.512	0.1
240.886	0.15
241.261	0.08
241.635	0.17
242.009	0.1
242.384	0.15
242.758	0.16
243.132	0.08
243.507	0.1
243.881	0.15
244.255	0.17
244.629	0.19
245.004	0.12
245.378	0.11
245.752	0.14
246.126	0.05
246.5	0.13
246.874	0.16
247.248	0.13
247.622	0.07
247.996	0
248.37	0.12
248.744	0.11
249.118	0.14
249.492	0.07
249.866	0.09
250.24	0.09
250.613	0.14
250.987	0.12
251.361	0.17
251.735	0.09
252.108	0.14
252.482	0.15
252.856	0.15
253.229	0.12
253.603	0.15
253.977	0.1
254.35	0.15
254.724	0.08
255.097	0.06
255.471	0.17
255.844	0.11
256.218	0.18
256.591	0.16
256.964	0.11
257.338	0.15
257.711	0.09
258.084	0.05
258.458	0.21
258.831	0.14
259.204	0.13
259.577	0.09
259.95	0.08
260.323	0.04
260.697	0.1
261.07	0.13
261.443	0.08
261.816	0.12
262.189	0.09
262.562	0.17
262.935	0.16
263.308	0.11
263.68	0.13
264.053	0.1
264.426	0.1
264.799	0.17
265.172	0.11
265.545	0.14
265.917	0.11
266.29	0.17
266.663	0.13
267.035	0.09
267.408	0.24
267.781	0.09
268.153	0.15
268.526	0.24
268.898	0.21
269.271	0.15
269.643	0.11
270.016	0.12
270.388	0.19
270.76	0.15
271.133	0.15
271.505	0.16
271.877	0.12
272.25	0.13
272.622	0.15
272.994	0.13
273.366	0.22
273.739	0.08
274.111	0.12
274.483	0.25
274.855	0.14
275.227	0.14
275.599	0.1
275.971	0.14
276.343	0.1
276.715	0.09
277.087	0.14
277.459	0.27
277.831	0.17
278.203	0.2
278.574	0.16
278.946	0.09
279.318	0.2
279.69	0.08
280.061	0.13
280.433	0.17
280.805	0.17
281.176	0.05
281.548	0.13
281.92	0.12
282.291	0.14
282.663	0.12
283.034	0.13
283.406	0.21
283.777	0.17
284.148	0.15
284.52	0.12
284.891	0.14
285.262	0.19
285.634	0.14
286.005	0.12
286.376	0.17
286.747	0.16
287.119	0.18
287.49	0.16
287.861	0.16
288.232	0.11
288.603	0.14
288.974	0.17
289.345	0.17
289.716	0.15
290.087	0.14
290.458	0.16
290.829	0.18
291.2	0.11
291.571	0.11
291.941	0.12
292.312	0.1
292.683	0.16
293.054	0.16
293.424	0.18
293.795	0.14
294.166	0.14
294.536	0.18
294.907	0.14
295.277	0.12
295.648	0.13
296.018	0.15
296.389	0.08
296.759	0.18
297.13	0.11
297.5	0.16
297.871	0.11
298.241	0.1
298.611	0.15
298.981	0.16
299.352	0.09
299.722	0.14
300.092	0.12
300.462	0.14
300.832	0.12
301.202	0.1
301.573	0.1
301.943	0.11
302.313	0.1
302.683	0.09
303.053	0.09
303.422	0.09
303.792	0.1
304.162	0.1
304.532	0.1
304.902	0.09
305.272	0.11
305.641	0.11
306.011	0.1
306.381	0.1
306.75	0.09
307.12	0.1
307.49	0.11
307.859	0.1
308.229	0.11
308.598	0.11
308.968	0.12
309.337	0.11
309.707	0.12
310.076	0.12
310.445	0.12
310.815	0.12
311.184	0.13
311.553	0.13
311.923	0.13
312.292	0.13
312.661	0.13
313.03	0.13
313.399	0.12
313.768	0.13
314.137	0.12
314.506	0.13
314.875	0.12
315.244	0.13
315.613	0.13
315.982	0.13
316.351	0.13
316.72	0.12
317.089	0.13
317.458	0.12
317.826	0.11
318.195	0.12
318.564	0.13
318.933	0.12
319.301	0.12
319.67	0.12
320.038	0.12
320.407	0.12
320.775	0.12
321.144	0.12
321.512	0.11
321.881	0.11
322.249	0.11
322.618	0.1
322.986	0.11
323.354	0.1
323.723	0.11
324.091	0.11
324.459	0.11
324.827	0.11
325.195	0.1
325.564	0.1
325.932	0.1
326.3	0.11
326.668	0.1
327.036	0.1
327.404	0.1
327.772	0.1
328.14	0.1
328.508	0.1
328.875	0.1
329.243	0.1
329.611	0.11
329.979	0.11
330.346	0.1
330.714	0.1
331.082	0.11
331.449	0.1
331.817	0.1
332.185	0.11
332.552	0.11
332.92	0.11
333.287	0.11
333.655	0.11
334.022	0.11
334.389	0.11
334.757	0.11
335.124	0.11
335.491	0.11
335.859	0.11
336.226	0.12
336.593	0.12
336.96	0.11
337.327	0.12
337.695	0.12
338.062	0.12
338.429	0.12
338.796	0.12
339.163	0.12
339.53	0.12
339.897	0.12
340.263	0.13
340.63	0.13
340.997	0.13
341.364	0.14
341.731	0.14
342.097	0.14
342.464	0.15
342.831	0.14
343.197	0.15
343.564	0.15
343.931	0.15
344.297	0.15
344.664	0.16
345.03	0.16
345.396	0.16
345.763	0.16
346.129	0.16
346.496	0.17
346.862	0.17
347.228	0.17
347.594	0.17
347.961	0.18
348.327	0.18
348.693	0.18
349.059	0.19
349.425	0.19
349.791	0.19
350.157	0.2
350.523	0.2
350.889	0.2
351.255	0.21
351.621	0.21
351.987	0.21
352.353	0.22
352.719	0.22
353.084	0.22
353.45	0.23
353.816	0.23
354.181	0.24
354.547	0.24
354.913	0.25
355.278	0.25
355.644	0.25
356.009	0.26
356.375	0.28
356.74	0.28
357.106	0.28
357.471	0.29
357.836	0.29
358.202	0.3
358.567	0.3
358.932	0.31
359.297	0.31
359.663	0.32
360.028	0.32
360.393	0.33
360.758	0.33
361.123	0.34
361.488	0.34
361.853	0.35
362.218	0.35
362.583	0.35
362.948	0.36
363.312	0.36
363.677	0.37
364.042	0.37
364.407	0.38
364.772	0.39
365.136	0.39
365.501	0.4
365.865	0.41
366.23	0.41
366.595	0.43
366.959	0.44
367.324	0.44
367.688	0.46
368.052	0.46
368.417	0.47
368.781	0.48
369.145	0.48
369.51	0.48
369.874	0.48
370.238	0.48
370.602	0.48
370.967	0.49
371.331	0.48
371.695	0.48
372.059	0.48
372.423	0.47
372.787	0.48
373.151	0.47
373.515	0.47
373.878	0.47
374.242	0.47
374.606	0.47
374.97	0.47
375.334	0.48
375.697	0.47
376.061	0.48
376.425	0.48
376.788	0.48
377.152	0.49
377.515	0.49
377.879	0.5
378.242	0.5
378.606	0.51
378.969	0.52
379.333	0.52
379.696	0.53
380.059	0.53
380.422	0.54
380.786	0.55
381.149	0.56
381.512	0.57
381.875	0.58
382.238	0.6
382.601	0.61
382.964	0.64
383.327	0.64
383.69	0.68
384.053	0.69
384.416	0.7
384.779	0.72
385.142	0.74
385.504	0.74
385.867	0.76
386.23	0.76
386.593	0.77
386.955	0.77
387.318	0.78
387.68	0.77
388.043	0.76
388.405	0.76
388.768	0.75
389.13	0.75
389.493	0.74
389.855	0.74
390.217	0.73
390.58	0.73
390.942	0.74
391.304	0.75
391.666	0.75
392.028	0.77
392.391	0.78
392.753	0.8
393.115	0.81
393.477	0.86
393.839	0.88
394.201	0.92
394.563	0.95
394.924	1
395.286	1.03
395.648	1.07
396.01	1.08
396.371	1.13
396.733	1.15
397.095	1.16
397.456	1.18
397.818	1.18
398.18	1.17
398.541	1.15
398.903	1.14
399.264	1.11
399.625	1.07
399.987	1.03
400.348	0.99
400.709	0.93
401.071	0.89
401.432	0.83
401.793	0.79
402.154	0.73
402.515	0.68
402.876	0.64
403.238	0.59
403.599	0.55
403.96	0.51
404.32	0.47
404.681	0.44
405.042	0.41
405.403	0.39
405.764	0.36
406.125	0.33
406.485	0.3
406.846	0.29
407.207	0.27
407.567	0.26
407.928	0.25
408.288	0.23
408.649	0.22
409.009	0.2
409.37	0.2
409.73	0.18
410.091	0.18
410.451	0.17
410.811	0.17
411.171	0.16
411.532	0.15
411.892	0.14
412.252	0.14
412.612	0.13
412.972	0.14
413.332	0.13
413.692	0.13
414.052	0.12
414.412	0.11
414.772	0.11
415.132	0.11
415.492	0.11
415.851	0.1
416.211	0.1
416.571	0.1
416.931	0.1
417.29	0.1
417.65	0.09
418.009	0.09
418.369	0.09
418.728	0.08
419.088	0.08
419.447	0.08
419.807	0.08
420.166	0.08
420.525	0.07
420.884	0.08
421.244	0.08
421.603	0.07
421.962	0.07
422.321	0.07
422.68	0.07
423.039	0.07
423.398	0.07
423.757	0.06
424.116	0.07
424.475	0.07
424.834	0.06
425.193	0.06
425.551	0.06
425.91	0.06
426.269	0.06
426.628	0.06
426.986	0.07
427.345	0.06
427.703	0.07
428.062	0.06
428.42	0.06
428.779	0.06
429.137	0.06
429.496	0.05
429.854	0.06
430.212	0.06
430.57	0.05
430.929	0.04
431.287	0.04
431.645	0.05
432.003	0.05
432.361	0.05
432.719	0.05
433.077	0.05
433.435	0.05
433.793	0.04
434.151	0.04
434.509	0.05
434.866	0.04
435.224	0.06
435.582	0.05
435.94	0.05
436.297	0.05
436.655	0.05
437.012	0.05
437.37	0.04
437.727	0.05
438.085	0.06
438.442	0.05
438.8	0.05
439.157	0.04
439.514	0.04
439.872	0.05
440.229	0.05
440.586	0.05
440.943	0.04
441.3	0.04
441.657	0.04
442.014	0.05
442.371	0.04
442.728	0.04
443.085	0.04
443.442	0.03
443.799	0.03
444.156	0.03
444.513	0.03
444.869	0.03
445.226	0.03
445.583	0.03
445.939	0.02
446.296	0.03
446.652	0.03
447.009	0.04
447.365	0.03
447.722	0.02
448.078	0.02
448.434	0.03
448.791	0.02
449.147	0.03
449.503	0.02
449.859	0.02
450.215	0.02
450.571	0.02
450.928	0.01
451.284	0.01
451.64	0.01
451.995	0.01
452.351	0.01
452.707	0.01
453.063	0
453.419	-0
453.775	0.01
454.13	-0
454.486	0.01
454.842	-0
455.197	-0.01
455.553	-0.01
455.908	-0.02
456.264	-0.02
456.619	-0.03
456.975	-0.03
457.33	-0.02
457.685	-0.03
458.04	-0.04
458.396	-0.04
458.751	-0.04
459.106	-0.05
459.461	-0.05
459.816	-0.05
460.171	-0.06
460.526	-0.06
460.881	-0.08
461.236	-0.08
461.591	-0.08
461.946	-0.08
462.301	-0.09
462.655	-0.09
463.01	-0.09
463.365	-0.09
463.719	-0.11
464.074	-0.11
464.428	-0.12
464.783	-0.12
465.137	-0.13
465.492	-0.13
465.846	-0.13
466.201	-0.13
466.555	-0.13
466.909	-0.12
467.263	-0.12
467.618	-0.12
467.972	-0.12
468.326	-0.12
468.68	-0.13
469.034	-0.13
469.388	-0.14
469.742	-0.14
470.096	-0.14
470.45	-0.14
470.804	-0.13
471.157	-0.14
471.511	-0.14
471.865	-0.14
472.218	-0.14
472.572	-0.14
472.926	-0.12
473.279	-0.13
473.633	-0.12
473.986	-0.12
474.34	-0.11
474.693	-0.1
475.046	-0.1
475.4	-0.09
475.753	-0.08
476.106	-0.08
476.459	-0.07
476.812	-0.07
477.165	-0.06
477.519	-0.06
477.872	-0.05
478.224	-0.05
478.577	-0.04
478.93	-0.04
479.283	-0.04
479.636	-0.04
479.989	-0.03
480.341	-0.03
480.694	-0.02
481.047	-0.02
481.399	-0.02
481.752	-0.01
482.104	-0.01
482.457	-0.01
482.809	-0.01
483.162	-0
483.514	0
483.866	0
484.219	0.01
484.571	0.01
484.923	0.01
485.275	0.01
485.627	0.01
485.979	0.01
486.331	0.02
486.683	0.02
487.035	0.02
487.387	0.03
487.739	0.03
488.091	0.03
488.443	0.04
488.794	0.03
489.146	0.03
489.498	0.04
489.849	0.04
490.201	0.04
490.552	0.04
490.904	0.04
491.255	0.04
491.607	0.04
491.958	0.05
492.309	0.05
492.661	0.05
493.012	0.05
493.363	0.05
493.714	0.05
494.065	0.05
494.416	0.05
494.767	0.05
495.118	0.05
495.469	0.05
495.82	0.06
496.171	0.06
496.522	0.06
496.872	0.06
497.223	0.06
497.574	0.06
497.924	0.06
498.275	0.07
498.626	0.07
498.976	0.07
499.327	0.07
499.677	0.07
500.027	0.08
500.378	0.08
500.728	0.08
501.078	0.08
501.428	0.08
501.779	0.08
502.129	0.08
502.479	0.08
502.829	0.08
503.179	0.09
503.529	0.08
503.879	0.09
504.229	0.09
504.578	0.09
504.928	0.09
505.278	0.09
505.628	0.09
505.977	0.1
506.327	0.1
506.676	0.09
507.026	0.1
507.375	0.1
507.725	0.1
508.074	0.1
508.424	0.1
508.773	0.1
509.122	0.11
509.471	0.1
509.82	0.11
510.17	0.1
510.519	0.11
510.868	0.11
511.217	0.11
511.566	0.11
511.915	0.11
512.263	0.12
512.612	0.11
512.961	0.11
513.31	0.12
513.659	0.12
514.007	0.12
514.356	0.12
514.704	0.12
515.053	0.13
515.401	0.13
515.75	0.13
516.098	0.12
516.447	0.13
516.795	0.13
517.143	0.13
517.491	0.13
517.839	0.13
518.188	0.13
518.536	0.13
518.884	0.14
519.232	0.14
519.58	0.14
519.928	0.14
520.275	0.14
520.623	0.14
520.971	0.14
521.319	0.14
521.666	0.14
522.014	0.15
522.362	0.15
522.709	0.14
523.057	0.15
523.404	0.15
523.752	0.15
524.099	0.15
524.446	0.15
524.794	0.15
525.141	0.15
525.488	0.15
525.835	0.15
526.182	0.16
526.529	0.16
526.876	0.16
527.223	0.16
527.57	0.16
527.917	0.16
528.264	0.16
528.611	0.16
528.958	0.17
529.304	0.17
529.651	0.17
529.998	0.17
530.344	0.17
530.691	0.17
531.037	0.17
531.384	0.17
531.73	0.17
532.076	0.18
532.423	0.17
532.769	0.18
533.115	0.18
533.461	0.18
533.807	0.19
534.154	0.18
534.5	0.19
534.846	0.19
535.192	0.19
535.537	0.19
535.883	0.19
536.229	0.2
536.575	0.2
536.921	0.19
537.266	0.2
537.612	0.2
537.957	0.2
538.303	0.2
538.649	0.2
538.994	0.2
539.339	0.21
539.685	0.2
540.03	0.21
540.375	0.21
540.721	0.21
541.066	0.21
541.411	0.22
541.756	0.21
542.101	0.22
542.446	0.22
542.791	0.22
543.136	0.22
543.481	0.22
543.825	0.22
544.17	0.23
544.515	0.23
544.86	0.23
545.204	0.23
545.549	0.23
545.893	0.23
546.238	0.24
546.582	0.24
546.927	0.24
547.271	0.24
547.615	0.25
547.96	0.25
548.304	0.25
548.648	0.25
548.992	0.25
549.336	0.25
549.68	0.25
550.024	0.25
550.368	0.25
550.712	0.25
551.056	0.25
551.4	0.26
551.743	0.26
552.087	0.26
552.431	0.26
552.774	0.26
553.118	0.26
553.462	0.26
553.805	0.27
554.148	0.27
554.492	0.27
554.835	0.27
555.178	0.27
555.522	0.27
555.865	0.27
556.208	0.27
556.551	0.27
556.894	0.28
557.237	0.27
557.58	0.28
557.923	0.28
558.266	0.28
558.609	0.28
558.952	0.28
559.294	0.28
559.637	0.28
559.98	0.28
560.322	0.28
560.665	0.28
561.007	0.28
561.35	0.28
561.692	0.28
562.034	0.28
562.377	0.29
562.719	0.29
563.061	0.29
563.403	0.29
563.745	0.29
564.088	0.29
564.43	0.29
564.772	0.29
565.113	0.29
565.455	0.3
565.797	0.29
566.139	0.3
566.481	0.3
566.822	0.3
567.164	0.3
567.506	0.3
567.847	0.3
568.189	0.3
568.53	0.3
568.872	0.3
569.213	0.3
569.554	0.3
569.895	0.3
570.237	0.3
570.578	0.3
570.919	0.3
571.26	0.3
571.601	0.29
571.942	0.3
572.283	0.3
572.624	0.3
572.965	0.3
573.306	0.3
573.646	0.3
573.987	0.3
574.328	0.3
574.668	0.3
575.009	0.3
575.349	0.3
575.69	0.3
576.03	0.3
576.37	0.3
576.711	0.29
577.051	0.3
577.391	0.3
577.731	0.3
578.072	0.3
578.412	0.3
578.752	0.3
579.092	0.3
579.431	0.3
579.771	0.29
580.111	0.29
580.451	0.29
580.791	0.3
581.13	0.31
581.47	0.3
581.81	0.3
582.149	0.3
582.489	0.31
582.828	0.3
583.167	0.3
583.507	0.28
583.846	0.26
584.185	0.28
584.525	0.3
584.864	0.3
585.203	0.31
585.542	0.31
585.881	0.32
586.22	0.32
586.559	0.31
586.898	0.31
587.236	0.31
587.575	0.31
587.914	0.31
588.252	0.32
588.591	0.32
588.93	0.32
589.268	0.32
589.607	0.32
589.945	0.32
590.283	0.32
590.622	0.32
590.96	0.33
591.298	0.33
591.636	0.33
591.974	0.33
592.313	0.34
592.651	0.34
592.989	0.34
593.326	0.34
593.664	0.35
594.002	0.35
594.34	0.34
594.678	0.35
595.015	0.34
595.353	0.34
595.691	0.34
596.028	0.35
596.366	0.35
596.703	0.36
597.04	0.36
597.378	0.36
597.715	0.36
598.052	0.36
598.389	0.36
598.726	0.36
599.064	0.37
599.401	0.37
599.738	0.36
600.074	0.37
600.411	0.37
600.748	0.37
601.085	0.37
601.422	0.36
601.758	0.36
602.095	0.36
602.432	0.37
602.768	0.37
603.105	0.37
603.441	0.37
603.777	0.37
604.114	0.38
604.45	0.38
604.786	0.37
605.122	0.37
605.459	0.37
605.795	0.37
606.131	0.37
606.467	0.37
606.803	0.37
607.139	0.37
607.474	0.37
607.81	0.37
608.146	0.37
608.482	0.37
608.817	0.37
609.153	0.36
609.488	0.36
609.824	0.36
610.159	0.36
610.495	0.36
610.83	0.36
611.165	0.36
611.5	0.36
611.836	0.36
612.171	0.36
612.506	0.36
612.841	0.36
613.176	0.36
613.511	0.36
613.845	0.36
614.18	0.36
614.515	0.36
614.85	0.36
615.184	0.36
615.519	0.35
615.854	0.36
616.188	0.35
616.523	0.35
616.857	0.34
617.191	0.35
617.526	0.35
617.86	0.35
618.194	0.34
618.528	0.35
618.862	0.35
619.196	0.35
619.53	0.34
619.864	0.34
620.198	0.34
620.532	0.34
620.866	0.34
621.2	0.34
621.533	0.33
621.867	0.33
622.201	0.33
622.534	0.33
622.868	0.33
623.201	0.33
623.534	0.33
623.868	0.33
624.201	0.33
624.534	0.33
624.868	0.33
625.201	0.33
625.534	0.32
625.867	0.32
626.2	0.32
626.533	0.32
626.865	0.32
627.198	0.32
627.531	0.32
627.864	0.31
628.196	0.31
628.529	0.31
628.862	0.31
629.194	0.31
629.527	0.3
629.859	0.31
630.191	0.3
630.524	0.3
630.856	0.3
631.188	0.3
631.52	0.3
631.852	0.29
632.184	0.29
632.516	0.29
632.848	0.29
633.18	0.29
633.512	0.28
633.844	0.28
634.175	0.28
634.507	0.28
634.839	0.28
635.17	0.28
635.502	0.28
635.833	0.27
636.165	0.27
636.496	0.27
636.827	0.26
637.159	0.26
637.49	0.26
637.821	0.26
638.152	0.26
638.483	0.25
638.814	0.26
639.145	0.25
639.476	0.25
639.807	0.25
640.137	0.25
640.468	0.24
640.799	0.24
641.129	0.24
641.46	0.23
641.791	0.23
642.121	0.24
642.451	0.23
642.782	0.23
643.112	0.23
643.442	0.23
643.773	0.23
644.103	0.23
644.433	0.23
644.763	0.22
645.093	0.22
645.423	0.22
645.753	0.22
646.082	0.22
646.412	0.22
646.742	0.21
647.072	0.21
647.401	0.22
647.731	0.21
648.06	0.21
648.39	0.21
648.719	0.21
649.048	0.21
649.378	0.21
649.707	0.21
650.036	0.21
650.365	0.21
650.694	0.21
651.023	0.21
651.352	0.2
651.681	0.21
652.01	0.21
652.339	0.21
652.668	0.21
652.996	0.21
653.325	0.21
653.654	0.21
653.982	0.21
654.311	0.2
654.639	0.21
654.967	0.2
655.296	0.2
655.624	0.2
655.952	0.2
656.28	0.2
656.609	0.2
656.937	0.2
657.265	0.2
657.593	0.18
657.92	0.05
658.248	0.01
658.576	0.01
658.904	0.08
659.231	0.17
659.559	0.2
659.887	0.2
660.214	0.2
660.542	0.2
660.869	0.2
661.196	0.2
661.524	0.2
661.851	0.2
662.178	0.2
662.505	0.2
662.832	0.2
663.159	0.19
663.486	0.2
663.813	0.2
664.14	0.2
664.467	0.2
664.794	0.2
665.12	0.2
665.447	0.2
665.774	0.2
666.1	0.2
666.427	0.2
666.753	0.2
667.079	0.19
667.406	0.19
667.732	0.19
668.058	0.19
668.384	0.19
668.71	0.19
669.036	0.19
669.362	0.19
669.688	0.19
670.014	0.19
670.34	0.19
670.666	0.19
670.991	0.19
671.317	0.19
671.643	0.18
671.968	0.18
672.294	0.18
672.619	0.18
672.945	0.18
673.27	0.18
673.595	0.18
673.92	0.18
674.246	0.18
674.571	0.17
674.896	0.17
675.221	0.17
675.546	0.17
675.87	0.17
676.195	0.17
676.52	0.17
676.845	0.17
677.169	0.17
677.494	0.17
677.819	0.17
678.143	0.17
678.468	0.17
678.792	0.16
679.116	0.16
679.44	0.16
679.765	0.15
680.089	0.15
680.413	0.15
680.737	0.15
681.061	0.15
681.385	0.15
681.709	0.15
682.033	0.15
682.356	0.15
682.68	0.15
683.004	0.15
683.327	0.15
683.651	0.14
683.974	0.14
684.298	0.14
684.621	0.14
684.944	0.14
685.268	0.14
685.591	0.13
685.914	0.13
686.237	0.13
686.56	0.13
686.883	0.13
687.206	0.13
687.529	0.13
687.852	0.12
688.175	0.13
688.497	0.12
688.82	0.12
689.142	0.12
689.465	0.12
689.787	0.12
690.11	0.12
690.432	0.12
690.755	0.12
691.077	0.12
691.399	0.11
691.721	0.12
692.043	0.11
692.365	0.11
692.687	0.11
693.009	0.11
693.331	0.1
693.653	0.1
693.974	0.1
694.296	0.1
694.618	0.1
694.939	0.1
695.261	0.1
695.582	0.1
695.904	0.1
696.225	0.1
696.546	0.1
696.868	0.1
697.189	0.09
697.51	0.09
697.831	0.09
698.152	0.09
698.473	0.09
698.794	0.09
699.114	0.09
699.435	0.09
699.756	0.09
700.077	0.09
700.397	0.09
700.718	0.09
701.038	0.09
701.359	0.09
701.679	0.09
701.999	0.09
702.32	0.09
702.64	0.09
702.96	0.09
703.28	0.09
703.6	0.09
703.92	0.09
704.24	0.09
704.56	0.08
704.879	0.09
705.199	0.08
705.519	0.09
705.838	0.08
706.158	0.08
706.478	0.08
706.797	0.08
707.116	0.08
707.436	0.08
707.755	0.08
708.074	0.08
708.393	0.08
708.712	0.07
709.031	0.07
709.35	0.07
709.669	0.07
709.988	0.07
710.307	0.07
710.626	0.08
710.944	0.08
711.263	0.08
711.582	0.08
711.9	0.08
712.219	0.08
712.537	0.08
712.855	0.08
713.174	0.08
713.492	0.07
713.81	0.08
714.128	0.07
714.446	0.08
714.764	0.07
715.082	0.07
715.4	0.07
715.718	0.08
716.035	0.07
716.353	0.07
716.671	0.07
716.988	0.07
717.306	0.07
717.623	0.08
717.941	0.08
718.258	0.08
718.575	0.08
718.893	0.08
719.21	0.08
719.527	0.08
719.844	0.08
720.161	0.07
720.478	0.07
720.795	0.08
721.112	0.08
721.428	0.07
721.745	0.08
722.062	0.07
722.378	0.08
722.695	0.08
723.011	0.08
723.328	0.08
723.644	0.08
723.96	0.08
724.276	0.08
724.593	0.08
724.909	0.09
725.225	0.09
725.541	0.09
725.857	0.09
726.173	0.09
726.488	0.09
726.804	0.09
727.12	0.08
727.435	0.08
727.751	0.08
728.067	0.08
728.382	0.09
728.697	0.08
729.013	0.09
729.328	0.08
729.643	0.08
729.958	0.08
730.273	0.09
730.588	0.09
730.903	0.09
731.218	0.09
731.533	0.09
731.848	0.09
732.163	0.09
732.477	0.09
732.792	0.08
733.107	0.08
733.421	0.09
733.736	0.09
734.05	0.08
734.364	0.09
734.678	0.08
734.993	0.08
735.307	0.09
735.621	0.08
735.935	0.08
736.249	0.08
736.563	0.08
736.877	0.08
737.19	0.08
737.504	0.08
737.818	0.09
738.131	0.09
738.445	0.08
738.758	0.08
739.072	0.08
739.385	0.08
739.698	0.08
740.012	0.08
740.325	0.08
740.638	0.08
740.951	0.08
741.264	0.08
741.577	0.08
741.89	0.08
742.203	0.08
742.515	0.08
742.828	0.08
743.141	0.08
743.453	0.08
743.766	0.08
744.078	0.07
744.391	0.07
744.703	0.08
745.015	0.08
745.327	0.08
745.639	0.08
745.952	0.08
746.264	0.08
746.575	0.08
746.887	0.07
747.199	0.08
747.511	0.08
747.823	0.08
748.134	0.07
748.446	0.07
748.757	0.07
749.069	0.07
749.38	0.07
749.692	0.07
750.003	0.07
750.314	0.07
750.625	0.07
750.936	0.07
751.248	0.07
751.559	0.07
751.869	0.07
752.18	0.06
752.491	0.06
752.802	0.06
753.112	0.06
753.423	0.06
753.734	0.06
754.044	0.06
754.355	0.06
754.665	0.06
754.975	0.06
755.285	0.06
755.596	0.06
755.906	0.05
756.216	0.06
756.526	0.05
756.836	0.05
757.146	0.05
757.455	0.05
757.765	0.05
758.075	0.05
758.385	0.05
758.694	0.05
759.004	0.05
759.313	0.05
759.622	0.05
759.932	0.05
760.241	0.05
760.55	0.05
760.859	0.04
761.168	0.04
761.477	0.04
761.786	0.04
762.095	0.04
762.404	0.04
762.713	0.04
763.021	0.04
763.33	0.04
763.639	0.04
763.947	0.04
764.256	0.04
764.564	0.04
764.872	0.04
765.181	0.04
765.489	0.04
765.797	0.04
766.105	0.04
766.413	0.03
766.721	0.04
767.029	0.03
767.337	0.03
767.644	0.03
767.952	0.03
768.26	0.03
768.567	0.04
768.875	0.04
769.182	0.04
769.49	0.03
769.797	0.04
770.104	0.04
770.411	0.04
770.718	0.04
771.026	0.04
771.333	0.04
771.639	0.04
771.946	0.03
772.253	0.03
772.56	0.03
772.867	0.03
773.173	0.03
773.48	0.03
773.786	0.03
774.093	0.03
774.399	0.03
774.705	0.03
775.012	0.03
775.318	0.03
775.624	0.03
775.93	0.03
776.236	0.03
776.542	0.03
776.848	0.03
777.154	0.04
777.459	0.04
777.765	0.04
778.071	0.04
778.376	0.04
778.682	0.04
778.987	0.03
779.292	0.03
779.598	0.03
779.903	0.03
780.208	0.03
780.513	0.03
780.818	0.03
781.123	0.03
781.428	0.03
781.733	0.03
782.038	0.03
782.343	0.03
782.647	0.03
782.952	0.03
783.256	0.03
783.561	0.03
783.865	0.03
784.17	0.03
784.474	0.03
784.778	0.03
785.082	0.03
785.386	0.04
785.69	0.04
785.994	0.04
786.298	0.03
786.602	0.04
786.906	0.03
787.209	0.04
787.513	0.04
787.817	0.04
788.12	0.04
788.424	0.04
788.727	0.04
789.03	0.03
789.333	0.03
789.637	0.03
789.94	0.03
790.243	0.03
790.546	0.03
790.849	0.02
791.152	0.02
791.454	0.02
791.757	0.02
792.06	0.02
792.362	0.02
792.665	0.02
792.967	0.02
793.27	0.02
793.572	0.02
793.874	0.02
794.177	0.02
794.479	0.02
794.781	0.02
795.083	0.02
795.385	0.02
795.687	0.03
795.989	0.03
796.29	0.03
796.592	0.03
796.894	0.03
797.195	0.03
797.497	0.03
797.798	0.03
798.1	0.03
798.401	0.02
798.702	0.03
799.003	0.02
799.304	0.02
799.605	0.02
799.906	0.02
800.207	0.02
800.508	0.02
800.809	0.02
801.11	0.02
801.41	0.02
801.711	0.02
802.011	0.03
802.312	0.03
802.612	0.02
802.913	0.03
803.213	0.03
803.513	0.03
803.813	0.02
804.113	0.02
804.413	0.02
804.713	0.02
805.013	0.02
805.313	0.02
805.613	0.02
805.912	0.02
806.212	0.02
806.511	0.02
806.811	0.02
807.11	0.02
807.41	0.02
807.709	0.02
808.008	0.02
808.307	0.02
808.606	0.03
808.905	0.03
809.204	0.02
809.503	0.02
809.802	0.02
810.101	0.02
810.399	0.02
810.698	0.02
810.997	0.02
811.295	0.02
811.593	0.03
811.892	0.03
812.19	0.03
812.488	0.03
812.786	0.03
813.084	0.02
813.383	0.03
813.68	0.02
813.978	0.02
814.276	0.02
814.574	0.02
814.872	0.02
815.169	0.01
815.467	0.02
815.764	0.02
816.062	0.02
816.359	0.02
816.656	0.01
816.954	0.02
817.251	0.02
817.548	0.02
817.845	0.02
818.142	0.02
818.439	0.02
818.735	0.02
819.032	0.02
819.329	0.02
819.626	0.02
819.922	0.02
820.219	0.02
820.515	0.02
820.811	0.02
821.108	0.01
821.404	0.02
821.7	0.01
821.996	0.02
822.292	0.01
822.588	0.02
822.884	0.02
823.18	0.01
823.475	0.01
823.771	0.01
824.067	0.02
824.362	0.01
824.658	0.02
824.953	0.02
825.249	0.01
825.544	0.01
825.839	0.02
826.134	0.02
826.429	0.01
826.724	0.01
827.019	0.01
827.314	0.02
827.609	0.02
827.904	0.01
828.198	0.01
828.493	0.02
828.787	0.01
829.082	0.02
829.376	0.02
829.671	0.01
829.965	0.01
830.259	0.01
830.553	0.01
830.847	0.01
831.141	0.02
831.435	0.01
831.729	0.01
832.023	0
832.317	0.01
832.61	0.01
832.904	0.01
833.197	0.01
833.491	0
833.784	0.01
834.077	0
834.371	0.02
834.664	0.02
834.957	0.02
835.25	0.02
835.543	0.02
835.836	0.01
836.129	0.02
836.421	0.02
836.714	0.01
837.007	0.02
837.299	0.01
837.592	0.02
837.884	0.01
838.177	0.01
838.469	0.01
838.761	0.01
839.053	0.01
839.345	0.01
839.637	0.01
839.929	0.01
840.221	0.02
840.513	0.02
840.805	0.01
841.096	0.01
841.388	0.01
841.68	0.01
841.971	0.02
842.262	0.01
842.554	0.01
842.845	0.02
843.136	0.01
843.427	0.01
843.718	-0
844.009	0
844.3	0.01
844.591	0.01
844.882	0
845.173	0.01
845.463	0.02
845.754	0.01
846.044	0.01
846.335	0.01
846.625	0.01
846.915	0.01
847.206	0
847.496	0.01
847.786	0.02
848.076	0.02
848.366	0.01
848.656	0.01
848.945	0.01
849.235	0.01
849.525	0.01
849.814	0.02
850.104	0
850.393	0.01
850.683	0.01
850.972	0.02
851.261	0.02
851.551	0.02
851.84	0.03
852.129	0.01
852.418	0.01
852.707	0.01
852.995	0.02
853.284	0.02
853.573	0.03
853.862	0.01
854.15	0.01
854.439	0.01
854.727	0.01
855.015	0.01
855.304	0.01
855.592	-0
855.88	0.01
856.168	-0
856.456	-0
856.744	0
857.032	-0.03
857.32	-0.02
857.607	-0
857.895	-0
858.183	0
858.47	-0.01
858.757	0
859.045	0.02
859.332	0.01
859.619	0.01
859.907	0
860.194	0
860.481	0
860.768	-0.01
861.054	-0
861.341	-0
861.628	-0.02
861.915	-0.01
862.201	-0
862.488	-0.02
862.774	-0
863.061	-0.01
863.347	-0
863.633	-0.02
863.919	-0
864.205	-0
864.491	-0.01
864.777	-0.02
865.063	-0
865.349	0.01
865.635	-0.01
865.92	0.01
866.206	-0.02
866.492	-0.01
866.777	-0.04
867.062	-0.03
867.348	-0.05
867.633	0.01
867.918	-0
868.203	-0.03
868.488	-0.05
868.773	-0.02
869.058	-0.06
869.343	-0.05
869.628	-0.02
869.912	-0.03
870.197	-0.03
870.482	-0.02
870.766	-0.02
871.05	0.02
871.335	-0
871.619	-0.03
871.903	0.01
872.187	0.02
872.471	-0.03
872.755	-0.01
873.039	-0
873.323	-0.02
873.607	0.04
873.89	-0.05
874.174	-0.01
874.458	-0.04
874.741	-0.03
875.024	-0.08
875.308	0.01
875.591	-0.03
875.874	0.02
876.157	-0.09
876.44	-0.02
876.723	0.03
877.006	0.01
877.289	-0.01
877.572	-0.03
877.854	-0.01
878.137	-0.02
878.42	0.03
878.702	-0.06
878.984	-0.01
879.267	-0.05
879.549	0.02
879.831	-0.02
880.113	-0.04
880.395	-0.05
880.677	-0.15
880.959	0.01
