Data from Rubpy_EV_900_EDTA_Absorbance_12-30-41-000.txt Node
Date: Mon Jun 29 12:30:41 BST 2026
User: fpm-admin
Spectrometer: OFX00224
Trigger mode: 0
Integration Time (sec): 7.000000E-2
Scans to average: 3
Nonlinearity correction enabled: false
Boxcar width: 0
Storing dark spectrum: false
XAxis mode: Wavelengths
Number of Pixels in Spectrum: 2136
>>>>>Begin Spectral Data<<<<<
154.91	-0.48
155.289	-0
155.669	-0
156.048	0.38
156.428	0.54
156.807	-0
157.186	0.18
157.566	0.18
157.945	-0.15
158.325	0.22
158.704	-0
159.083	0.54
159.462	-0.37
159.842	0.33
160.221	0.85
160.6	-0
160.979	-0.14
161.359	0.07
161.738	-0
162.117	-0
162.496	-0
162.875	-0
163.254	-0.55
163.633	-0
164.012	-1.23
164.391	-0.1
164.77	-0.64
165.149	-0.04
165.528	-0.95
165.907	-0.75
166.286	0.39
166.665	-0
167.044	-0
167.423	-0
167.802	-0.65
168.181	0.48
168.559	0.25
168.938	-0
169.317	0.26
169.696	-0.43
170.074	-0
170.453	-0
170.832	-0
171.21	-0.47
171.589	-0
171.968	-0.04
172.346	-0.14
172.725	-0
173.103	0.44
173.482	-0
173.861	-0.43
174.239	0.35
174.617	0.85
174.996	-0
175.374	-0
175.753	0.6
176.131	-0.08
176.51	-0
176.888	-0.18
177.266	0.04
177.645	0.02
178.023	0.19
178.401	-0.24
178.779	0.01
179.158	-0.07
179.536	-0
179.914	-0
180.292	0.65
180.67	0.1
181.048	-0.33
181.427	-0
181.805	0.22
182.183	-0
182.561	-0
182.939	-0
183.317	0.21
183.695	0.52
184.073	-0.27
184.451	-0
184.829	-0
185.206	-1.15
185.584	-0
185.962	-0
186.34	0.41
186.718	-0.8
187.096	-0.59
187.473	-0
187.851	-0
188.229	-0.21
188.607	0.02
188.984	0.06
189.362	0.03
189.74	-0.01
190.117	0.13
190.495	0.06
190.872	0.09
191.25	0.06
191.627	-0.01
192.005	-0.04
192.382	0.12
192.76	0.14
193.137	-0.01
193.515	0
193.892	0.05
194.269	0.1
194.647	-0.01
195.024	0.14
195.401	0.02
195.779	0.05
196.156	-0.06
196.533	0.07
196.91	-0.03
197.288	0.11
197.665	-0.03
198.042	0.06
198.419	0.07
198.796	0.08
199.173	0.09
199.55	0.07
199.927	0.08
200.304	0.12
200.681	0.06
201.058	0.06
201.435	0.11
201.812	0.12
202.189	-0.01
202.566	0.03
202.943	0.01
203.32	0.07
203.697	0.07
204.073	0.06
204.45	0.08
204.827	0.06
205.204	0.03
205.58	0.13
205.957	0.08
206.334	-0.03
206.71	0.06
207.087	0.02
207.464	0.1
207.84	0.08
208.217	0.12
208.593	0
208.97	0.13
209.346	0.03
209.723	0.07
210.099	0.07
210.476	0.07
210.852	0.07
211.228	0.1
211.605	0.04
211.981	0.07
212.357	0.11
212.733	0.18
213.11	0.1
213.486	0.04
213.862	-0.06
214.238	0.04
214.614	-0.03
214.991	0.12
215.367	0.08
215.743	0.05
216.119	0.01
216.495	0.02
216.871	-0
217.247	-0.02
217.623	-0.03
217.999	0.04
218.375	-0.02
218.751	-0.07
219.127	0.06
219.502	0.04
219.878	-0.06
220.254	0.01
220.63	0.13
221.006	0.07
221.381	0.13
221.757	-0.03
222.133	0.04
222.508	0.03
222.884	0.08
223.26	0.08
223.635	0.04
224.011	0.08
224.386	0.01
224.762	0.06
225.137	0.02
225.513	0.07
225.888	0.02
226.264	0.02
226.639	-0.03
227.014	0.02
227.39	0.01
227.765	0.02
228.14	-0.06
228.516	0.11
228.891	0
229.266	0.1
229.641	0.08
230.017	0.23
230.392	-0
230.767	0.01
231.142	0.03
231.517	0.12
231.892	0.01
232.267	0.11
232.642	0.08
233.017	0.06
233.392	0.05
233.767	0.15
234.142	0.12
234.517	0.03
234.892	0.02
235.267	0.05
235.641	0.08
236.016	0.12
236.391	0.19
236.766	0.08
237.14	-0.04
237.515	0.04
237.89	0.02
238.264	0.07
238.639	0.04
239.014	-0.03
239.388	-0.02
239.763	-0.06
240.137	-0.02
240.512	0.09
240.886	0.03
241.261	0.02
241.635	0.09
242.009	0.03
242.384	0.08
242.758	0.13
243.132	0.1
243.507	0.09
243.881	0.09
244.255	0.06
244.629	0.06
245.004	0.14
245.378	0.09
245.752	-0.01
246.126	0.12
246.5	0.04
246.874	0.06
247.248	0.04
247.622	0.05
247.996	0.03
248.37	0.05
248.744	0.04
249.118	-0.01
249.492	-0.03
249.866	0.01
250.24	0.1
250.613	-0.01
250.987	0.03
251.361	0.09
251.735	-0.01
252.108	0.05
252.482	0.09
252.856	0.06
253.229	0.12
253.603	0.11
253.977	0.05
254.35	0.05
254.724	0.06
255.097	0.05
255.471	0.02
255.844	0.11
256.218	0.09
256.591	0.11
256.964	0.06
257.338	0.06
257.711	0.06
258.084	0.03
258.458	0.1
258.831	0.08
259.204	-0
259.577	0.09
259.95	0.05
260.323	0.1
260.697	0.09
261.07	0.06
261.443	0.02
261.816	0.05
262.189	0.03
262.562	0.06
262.935	0.06
263.308	0.07
263.68	0.1
264.053	0.09
264.426	0.04
264.799	0.02
265.172	0.01
265.545	0.11
265.917	-0.02
266.29	0.08
266.663	0.05
267.035	0.03
267.408	0.04
267.781	0.01
268.153	0.09
268.526	0.01
268.898	0.1
269.271	0.08
269.643	0.02
270.016	0.1
270.388	0.08
270.76	0.09
271.133	0.09
271.505	0.06
271.877	0.06
272.25	0.04
272.622	0.02
272.994	0.1
273.366	0.09
273.739	0.08
274.111	0.09
274.483	0.07
274.855	0.01
275.227	0.09
275.599	0.09
275.971	0.09
276.343	0.06
276.715	0.04
277.087	0.09
277.459	0.08
277.831	0.09
278.203	0.09
278.574	0.12
278.946	0.02
279.318	0
279.69	0.05
280.061	0.13
280.433	0.09
280.805	0.08
281.176	0.05
281.548	0.04
281.92	0.11
282.291	0.09
282.663	0.04
283.034	0.09
283.406	0.04
283.777	0.05
284.148	0.01
284.52	0.04
284.891	0.07
285.262	0.05
285.634	0.03
286.005	0.1
286.376	0.1
286.747	0.04
287.119	0.09
287.49	0.12
287.861	-0
288.232	0.09
288.603	-0.01
288.974	0.1
289.345	0.05
289.716	0.12
290.087	-0.03
290.458	-0.01
290.829	0.02
291.2	0.08
291.571	0.06
291.941	0.12
292.312	0.1
292.683	0.05
293.054	0.03
293.424	0.03
293.795	0.08
294.166	0.08
294.536	0.04
294.907	0.06
295.277	0.07
295.648	0.02
296.018	0.07
296.389	0.05
296.759	0.01
297.13	0.07
297.5	-0
297.871	0.04
298.241	0.05
298.611	0.05
298.981	-0.01
299.352	0.05
299.722	0.05
300.092	-0
300.462	0.02
300.832	0.02
301.202	-0.01
301.573	0
301.943	0
302.313	0
302.683	-0.01
303.053	-0
303.422	0.01
303.792	0.01
304.162	0.01
304.532	0.02
304.902	0
305.272	0
305.641	-0
306.011	0
306.381	-0
306.75	0.02
307.12	0
307.49	0
307.859	0
308.229	0.01
308.598	0.01
308.968	0.01
309.337	0.01
309.707	0.01
310.076	0.01
310.445	0.02
310.815	0.02
311.184	0.02
311.553	0.02
311.923	0.02
312.292	0.01
312.661	0.02
313.03	0.01
313.399	0.02
313.768	0.02
314.137	0.02
314.506	0.02
314.875	0.01
315.244	0.01
315.613	0.02
315.982	0.02
316.351	0.02
316.72	0.01
317.089	0.01
317.458	0.02
317.826	0.02
318.195	0.02
318.564	0.02
318.933	0.02
319.301	0.02
319.67	0.01
320.038	0.02
320.407	0.02
320.775	0.02
321.144	0.01
321.512	0.01
321.881	0.01
322.249	0.02
322.618	0.02
322.986	0.02
323.354	0.02
323.723	0.02
324.091	0.01
324.459	0.02
324.827	0.02
325.195	0.02
325.564	0.01
325.932	0.02
326.3	0.01
326.668	0.02
327.036	0.02
327.404	0.01
327.772	0.01
328.14	0.02
328.508	0.02
328.875	0.01
329.243	0.01
329.611	0.02
329.979	0.02
330.346	0.02
330.714	0.03
331.082	0.02
331.449	0.02
331.817	0.02
332.185	0.02
332.552	0.02
332.92	0.01
333.287	0.01
333.655	0.01
334.022	0.01
334.389	0.02
334.757	0.02
335.124	0.02
335.491	0.02
335.859	0.03
336.226	0.03
336.593	0.02
336.96	0.02
337.327	0.02
337.695	0.02
338.062	0.03
338.429	0.03
338.796	0.02
339.163	0.02
339.53	0.03
339.897	0.03
340.263	0.03
340.63	0.03
340.997	0.03
341.364	0.03
341.731	0.03
342.097	0.03
342.464	0.03
342.831	0.03
343.197	0.04
343.564	0.04
343.931	0.04
344.297	0.04
344.664	0.04
345.03	0.04
345.396	0.04
345.763	0.04
346.129	0.04
346.496	0.04
346.862	0.04
347.228	0.04
347.594	0.04
347.961	0.04
348.327	0.05
348.693	0.05
349.059	0.04
349.425	0.05
349.791	0.05
350.157	0.05
350.523	0.05
350.889	0.05
351.255	0.05
351.621	0.06
351.987	0.06
352.353	0.06
352.719	0.06
353.084	0.06
353.45	0.06
353.816	0.06
354.181	0.06
354.547	0.06
354.913	0.07
355.278	0.06
355.644	0.07
356.009	0.07
356.375	0.07
356.74	0.08
357.106	0.08
357.471	0.08
357.836	0.08
358.202	0.08
358.567	0.08
358.932	0.09
359.297	0.09
359.663	0.09
360.028	0.09
360.393	0.09
360.758	0.09
361.123	0.09
361.488	0.09
361.853	0.09
362.218	0.1
362.583	0.1
362.948	0.1
363.312	0.1
363.677	0.1
364.042	0.11
364.407	0.11
364.772	0.11
365.136	0.11
365.501	0.12
365.865	0.12
366.23	0.12
366.595	0.12
366.959	0.13
367.324	0.13
367.688	0.13
368.052	0.13
368.417	0.14
368.781	0.14
369.145	0.14
369.51	0.14
369.874	0.14
370.238	0.14
370.602	0.14
370.967	0.14
371.331	0.14
371.695	0.14
372.059	0.14
372.423	0.14
372.787	0.14
373.151	0.14
373.515	0.14
373.878	0.14
374.242	0.14
374.606	0.14
374.97	0.14
375.334	0.15
375.697	0.15
376.061	0.14
376.425	0.15
376.788	0.15
377.152	0.15
377.515	0.15
377.879	0.15
378.242	0.16
378.606	0.16
378.969	0.16
379.333	0.16
379.696	0.17
380.059	0.17
380.422	0.17
380.786	0.17
381.149	0.17
381.512	0.18
381.875	0.18
382.238	0.19
382.601	0.19
382.964	0.19
383.327	0.2
383.69	0.21
384.053	0.21
384.416	0.22
384.779	0.22
385.142	0.22
385.504	0.23
385.867	0.23
386.23	0.24
386.593	0.24
386.955	0.24
387.318	0.24
387.68	0.24
388.043	0.24
388.405	0.24
388.768	0.24
389.13	0.24
389.493	0.23
389.855	0.23
390.217	0.23
390.58	0.23
390.942	0.23
391.304	0.24
391.666	0.24
392.028	0.24
392.391	0.24
392.753	0.25
393.115	0.26
393.477	0.27
393.839	0.28
394.201	0.29
394.563	0.3
394.924	0.31
395.286	0.33
395.648	0.34
396.01	0.35
396.371	0.36
396.733	0.37
397.095	0.37
397.456	0.38
397.818	0.38
398.18	0.38
398.541	0.37
398.903	0.36
399.264	0.35
399.625	0.34
399.987	0.33
400.348	0.31
400.709	0.3
401.071	0.29
401.432	0.27
401.793	0.25
402.154	0.24
402.515	0.23
402.876	0.21
403.238	0.2
403.599	0.18
403.96	0.17
404.32	0.16
404.681	0.15
405.042	0.14
405.403	0.13
405.764	0.12
406.125	0.12
406.485	0.11
406.846	0.1
407.207	0.1
407.567	0.09
407.928	0.08
408.288	0.09
408.649	0.08
409.009	0.08
409.37	0.08
409.73	0.07
410.091	0.07
410.451	0.06
410.811	0.06
411.171	0.06
411.532	0.06
411.892	0.06
412.252	0.05
412.612	0.05
412.972	0.05
413.332	0.05
413.692	0.05
414.052	0.04
414.412	0.05
414.772	0.04
415.132	0.05
415.492	0.04
415.851	0.05
416.211	0.04
416.571	0.04
416.931	0.04
417.29	0.04
417.65	0.04
418.009	0.04
418.369	0.04
418.728	0.05
419.088	0.04
419.447	0.04
419.807	0.04
420.166	0.04
420.525	0.04
420.884	0.03
421.244	0.04
421.603	0.04
421.962	0.04
422.321	0.04
422.68	0.03
423.039	0.03
423.398	0.03
423.757	0.04
424.116	0.03
424.475	0.04
424.834	0.04
425.193	0.04
425.551	0.03
425.91	0.03
426.269	0.03
426.628	0.02
426.986	0.03
427.345	0.04
427.703	0.03
428.062	0.03
428.42	0.03
428.779	0.03
429.137	0.03
429.496	0.03
429.854	0.04
430.212	0.04
430.57	0.03
430.929	0.03
431.287	0.03
431.645	0.03
432.003	0.02
432.361	0.03
432.719	0.03
433.077	0.03
433.435	0.03
433.793	0.04
434.151	0.03
434.509	0.03
434.866	0.03
435.224	0.03
435.582	0.03
435.94	0.03
436.297	0.03
436.655	0.04
437.012	0.03
437.37	0.03
437.727	0.03
438.085	0.02
438.442	0.03
438.8	0.03
439.157	0.03
439.514	0.03
439.872	0.03
440.229	0.03
440.586	0.02
440.943	0.02
441.3	0.03
441.657	0.03
442.014	0.03
442.371	0.03
442.728	0.03
443.085	0.02
443.442	0.02
443.799	0.02
444.156	0.03
444.513	0.03
444.869	0.01
445.226	0.03
445.583	0.02
445.939	0.03
446.296	0.03
446.652	0.02
447.009	0.02
447.365	0.02
447.722	0.03
448.078	0.02
448.434	0.02
448.791	0.02
449.147	0.03
449.503	0.02
449.859	0.02
450.215	0.02
450.571	0.01
450.928	0.02
451.284	0.01
451.64	0.01
451.995	0.02
452.351	0.01
452.707	0.02
453.063	0.01
453.419	0.01
453.775	0.01
454.13	0.01
454.486	0.01
454.842	0.01
455.197	0.01
455.553	0.01
455.908	0
456.264	-0
456.619	0
456.975	-0
457.33	-0
457.685	-0.01
458.04	0
458.396	-0.01
458.751	-0.01
459.106	-0.01
459.461	-0.02
459.816	-0.02
460.171	-0.02
460.526	-0.01
460.881	-0.03
461.236	-0.02
461.591	-0.02
461.946	-0.04
462.301	-0.03
462.655	-0.03
463.01	-0.04
463.365	-0.04
463.719	-0.04
464.074	-0.05
464.428	-0.05
464.783	-0.05
465.137	-0.05
465.492	-0.05
465.846	-0.06
466.201	-0.06
466.555	-0.05
466.909	-0.06
467.263	-0.06
467.618	-0.06
467.972	-0.05
468.326	-0.05
468.68	-0.06
469.034	-0.06
469.388	-0.06
469.742	-0.06
470.096	-0.06
470.45	-0.06
470.804	-0.06
471.157	-0.06
471.511	-0.06
471.865	-0.06
472.218	-0.06
472.572	-0.06
472.926	-0.06
473.279	-0.05
473.633	-0.05
473.986	-0.05
474.34	-0.04
474.693	-0.04
475.046	-0.04
475.4	-0.04
475.753	-0.03
476.106	-0.03
476.459	-0.03
476.812	-0.03
477.165	-0.02
477.519	-0.02
477.872	-0.02
478.224	-0.01
478.577	-0.01
478.93	-0.01
479.283	-0.01
479.636	-0
479.989	-0.01
480.341	-0.01
480.694	-0
481.047	0
481.399	-0
481.752	0
482.104	0
482.457	0.01
482.809	0
483.162	0.01
483.514	0.01
483.866	0.01
484.219	0.01
484.571	0.02
484.923	0.01
485.275	0.01
485.627	0.01
485.979	0.01
486.331	0.01
486.683	0.02
487.035	0.02
487.387	0.02
487.739	0.02
488.091	0.02
488.443	0.02
488.794	0.03
489.146	0.02
489.498	0.03
489.849	0.03
490.201	0.03
490.552	0.03
490.904	0.03
491.255	0.02
491.607	0.02
491.958	0.03
492.309	0.03
492.661	0.03
493.012	0.03
493.363	0.03
493.714	0.02
494.065	0.03
494.416	0.03
494.767	0.03
495.118	0.03
495.469	0.03
495.82	0.03
496.171	0.03
496.522	0.03
496.872	0.04
497.223	0.04
497.574	0.03
497.924	0.04
498.275	0.04
498.626	0.04
498.976	0.04
499.327	0.04
499.677	0.04
500.027	0.04
500.378	0.04
500.728	0.04
501.078	0.04
501.428	0.04
501.779	0.04
502.129	0.04
502.479	0.04
502.829	0.04
503.179	0.04
503.529	0.04
503.879	0.04
504.229	0.04
504.578	0.04
504.928	0.05
505.278	0.04
505.628	0.05
505.977	0.05
506.327	0.05
506.676	0.04
507.026	0.05
507.375	0.04
507.725	0.05
508.074	0.05
508.424	0.04
508.773	0.05
509.122	0.05
509.471	0.05
509.82	0.05
510.17	0.05
510.519	0.05
510.868	0.05
511.217	0.05
511.566	0.05
511.915	0.05
512.263	0.05
512.612	0.05
512.961	0.05
513.31	0.05
513.659	0.05
514.007	0.05
514.356	0.05
514.704	0.05
515.053	0.05
515.401	0.06
515.75	0.05
516.098	0.05
516.447	0.05
516.795	0.06
517.143	0.06
517.491	0.05
517.839	0.06
518.188	0.05
518.536	0.06
518.884	0.06
519.232	0.06
519.58	0.06
519.928	0.06
520.275	0.06
520.623	0.06
520.971	0.06
521.319	0.06
521.666	0.06
522.014	0.06
522.362	0.06
522.709	0.06
523.057	0.06
523.404	0.06
523.752	0.06
524.099	0.06
524.446	0.06
524.794	0.06
525.141	0.07
525.488	0.06
525.835	0.06
526.182	0.06
526.529	0.06
526.876	0.07
527.223	0.07
527.57	0.07
527.917	0.07
528.264	0.07
528.611	0.07
528.958	0.07
529.304	0.07
529.651	0.07
529.998	0.07
530.344	0.06
530.691	0.07
531.037	0.07
531.384	0.07
531.73	0.07
532.076	0.07
532.423	0.07
532.769	0.07
533.115	0.07
533.461	0.07
533.807	0.08
534.154	0.07
534.5	0.08
534.846	0.07
535.192	0.08
535.537	0.07
535.883	0.08
536.229	0.08
536.575	0.08
536.921	0.08
537.266	0.08
537.612	0.08
537.957	0.08
538.303	0.08
538.649	0.08
538.994	0.08
539.339	0.08
539.685	0.08
540.03	0.09
540.375	0.08
540.721	0.08
541.066	0.08
541.411	0.08
541.756	0.08
542.101	0.09
542.446	0.09
542.791	0.09
543.136	0.09
543.481	0.09
543.825	0.09
544.17	0.09
544.515	0.09
544.86	0.09
545.204	0.09
545.549	0.09
545.893	0.09
546.238	0.09
546.582	0.09
546.927	0.09
547.271	0.09
547.615	0.1
547.96	0.09
548.304	0.09
548.648	0.1
548.992	0.09
549.336	0.09
549.68	0.09
550.024	0.1
550.368	0.1
550.712	0.1
551.056	0.1
551.4	0.1
551.743	0.1
552.087	0.1
552.431	0.1
552.774	0.1
553.118	0.1
553.462	0.1
553.805	0.1
554.148	0.1
554.492	0.1
554.835	0.1
555.178	0.1
555.522	0.1
555.865	0.1
556.208	0.1
556.551	0.11
556.894	0.11
557.237	0.1
557.58	0.11
557.923	0.1
558.266	0.1
558.609	0.11
558.952	0.1
559.294	0.11
559.637	0.11
559.98	0.11
560.322	0.11
560.665	0.11
561.007	0.11
561.35	0.11
561.692	0.1
562.034	0.1
562.377	0.1
562.719	0.1
563.061	0.11
563.403	0.1
563.745	0.11
564.088	0.11
564.43	0.11
564.772	0.11
565.113	0.11
565.455	0.11
565.797	0.11
566.139	0.11
566.481	0.11
566.822	0.11
567.164	0.11
567.506	0.11
567.847	0.11
568.189	0.11
568.53	0.11
568.872	0.11
569.213	0.11
569.554	0.11
569.895	0.11
570.237	0.11
570.578	0.11
570.919	0.11
571.26	0.11
571.601	0.11
571.942	0.12
572.283	0.11
572.624	0.11
572.965	0.11
573.306	0.11
573.646	0.11
573.987	0.11
574.328	0.11
574.668	0.11
575.009	0.11
575.349	0.11
575.69	0.11
576.03	0.11
576.37	0.11
576.711	0.11
577.051	0.11
577.391	0.11
577.731	0.11
578.072	0.11
578.412	0.11
578.752	0.11
579.092	0.11
579.431	0.11
579.771	0.1
580.111	0.1
580.451	0.1
580.791	0.11
581.13	0.11
581.47	0.11
581.81	0.11
582.149	0.11
582.489	0.11
582.828	0.11
583.167	0.1
583.507	0.09
583.846	0.08
584.185	0.09
584.525	0.1
584.864	0.1
585.203	0.11
585.542	0.11
585.881	0.11
586.22	0.11
586.559	0.11
586.898	0.11
587.236	0.11
587.575	0.11
587.914	0.11
588.252	0.12
588.591	0.12
588.93	0.12
589.268	0.11
589.607	0.11
589.945	0.12
590.283	0.12
590.622	0.12
590.96	0.12
591.298	0.12
591.636	0.12
591.974	0.12
592.313	0.12
592.651	0.13
592.989	0.13
593.326	0.12
593.664	0.13
594.002	0.13
594.34	0.12
594.678	0.12
595.015	0.12
595.353	0.12
595.691	0.12
596.028	0.13
596.366	0.13
596.703	0.13
597.04	0.13
597.378	0.13
597.715	0.12
598.052	0.13
598.389	0.13
598.726	0.13
599.064	0.13
599.401	0.13
599.738	0.13
600.074	0.13
600.411	0.13
600.748	0.13
601.085	0.13
601.422	0.13
601.758	0.13
602.095	0.13
602.432	0.13
602.768	0.13
603.105	0.13
603.441	0.13
603.777	0.14
604.114	0.14
604.45	0.14
604.786	0.13
605.122	0.13
605.459	0.13
605.795	0.13
606.131	0.13
606.467	0.13
606.803	0.13
607.139	0.13
607.474	0.13
607.81	0.13
608.146	0.13
608.482	0.13
608.817	0.13
609.153	0.13
609.488	0.13
609.824	0.13
610.159	0.13
610.495	0.13
610.83	0.13
611.165	0.13
611.5	0.13
611.836	0.13
612.171	0.13
612.506	0.13
612.841	0.13
613.176	0.13
613.511	0.13
613.845	0.13
614.18	0.13
614.515	0.13
614.85	0.13
615.184	0.13
615.519	0.12
615.854	0.12
616.188	0.12
616.523	0.12
616.857	0.12
617.191	0.12
617.526	0.12
617.86	0.13
618.194	0.12
618.528	0.13
618.862	0.13
619.196	0.13
619.53	0.12
619.864	0.12
620.198	0.12
620.532	0.12
620.866	0.12
621.2	0.12
621.533	0.12
621.867	0.12
622.201	0.12
622.534	0.13
622.868	0.13
623.201	0.12
623.534	0.12
623.868	0.12
624.201	0.12
624.534	0.12
624.868	0.12
625.201	0.12
625.534	0.12
625.867	0.12
626.2	0.12
626.533	0.12
626.865	0.12
627.198	0.12
627.531	0.12
627.864	0.11
628.196	0.11
628.529	0.11
628.862	0.12
629.194	0.11
629.527	0.11
629.859	0.11
630.191	0.12
630.524	0.11
630.856	0.11
631.188	0.11
631.52	0.11
631.852	0.11
632.184	0.11
632.516	0.11
632.848	0.1
633.18	0.1
633.512	0.11
633.844	0.11
634.175	0.1
634.507	0.1
634.839	0.1
635.17	0.1
635.502	0.1
635.833	0.1
636.165	0.1
636.496	0.11
636.827	0.11
637.159	0.11
637.49	0.1
637.821	0.1
638.152	0.1
638.483	0.1
638.814	0.09
639.145	0.09
639.476	0.1
639.807	0.09
640.137	0.1
640.468	0.1
640.799	0.09
641.129	0.09
641.46	0.09
641.791	0.09
642.121	0.09
642.451	0.09
642.782	0.09
643.112	0.09
643.442	0.09
643.773	0.09
644.103	0.09
644.433	0.09
644.763	0.08
645.093	0.08
645.423	0.09
645.753	0.08
646.082	0.09
646.412	0.08
646.742	0.08
647.072	0.08
647.401	0.08
647.731	0.08
648.06	0.08
648.39	0.08
648.719	0.08
649.048	0.08
649.378	0.08
649.707	0.09
650.036	0.08
650.365	0.08
650.694	0.08
651.023	0.09
651.352	0.09
651.681	0.09
652.01	0.09
652.339	0.09
652.668	0.09
652.996	0.09
653.325	0.09
653.654	0.09
653.982	0.08
654.311	0.09
654.639	0.08
654.967	0.08
655.296	0.08
655.624	0.08
655.952	0.08
656.28	0.08
656.609	0.08
656.937	0.08
657.265	0.07
657.593	0.06
657.92	0.01
658.248	0
658.576	0
658.904	0
659.231	0.04
659.559	0.08
659.887	0.08
660.214	0.08
660.542	0.08
660.869	0.08
661.196	0.08
661.524	0.08
661.851	0.08
662.178	0.08
662.505	0.08
662.832	0.08
663.159	0.08
663.486	0.08
663.813	0.08
664.14	0.08
664.467	0.08
664.794	0.08
665.12	0.09
665.447	0.08
665.774	0.08
666.1	0.08
666.427	0.08
666.753	0.08
667.079	0.08
667.406	0.08
667.732	0.08
668.058	0.08
668.384	0.08
668.71	0.08
669.036	0.08
669.362	0.08
669.688	0.08
670.014	0.08
670.34	0.08
670.666	0.08
670.991	0.08
671.317	0.08
671.643	0.07
671.968	0.07
672.294	0.07
672.619	0.08
672.945	0.08
673.27	0.08
673.595	0.07
673.92	0.07
674.246	0.07
674.571	0.07
674.896	0.07
675.221	0.08
675.546	0.07
675.87	0.07
676.195	0.07
676.52	0.07
676.845	0.07
677.169	0.07
677.494	0.07
677.819	0.07
678.143	0.07
678.468	0.07
678.792	0.07
679.116	0.07
679.44	0.07
679.765	0.07
680.089	0.07
680.413	0.07
680.737	0.07
681.061	0.07
681.385	0.07
681.709	0.07
682.033	0.07
682.356	0.07
682.68	0.07
683.004	0.06
683.327	0.06
683.651	0.06
683.974	0.06
684.298	0.06
684.621	0.06
684.944	0.06
685.268	0.06
685.591	0.06
685.914	0.06
686.237	0.06
686.56	0.06
686.883	0.06
687.206	0.06
687.529	0.06
687.852	0.06
688.175	0.06
688.497	0.06
688.82	0.06
689.142	0.06
689.465	0.06
689.787	0.05
690.11	0.06
690.432	0.05
690.755	0.05
691.077	0.05
691.399	0.05
691.721	0.05
692.043	0.05
692.365	0.05
692.687	0.05
693.009	0.05
693.331	0.04
693.653	0.05
693.974	0.05
694.296	0.05
694.618	0.04
694.939	0.04
695.261	0.05
695.582	0.05
695.904	0.05
696.225	0.05
696.546	0.05
696.868	0.05
697.189	0.05
697.51	0.05
697.831	0.05
698.152	0.05
698.473	0.05
698.794	0.04
699.114	0.04
699.435	0.04
699.756	0.04
700.077	0.04
700.397	0.05
700.718	0.05
701.038	0.05
701.359	0.05
701.679	0.04
701.999	0.04
702.32	0.04
702.64	0.04
702.96	0.04
703.28	0.04
703.6	0.04
703.92	0.04
704.24	0.05
704.56	0.04
704.879	0.05
705.199	0.05
705.519	0.05
705.838	0.05
706.158	0.04
706.478	0.04
706.797	0.04
707.116	0.04
707.436	0.05
707.755	0.04
708.074	0.04
708.393	0.04
708.712	0.04
709.031	0.04
709.35	0.04
709.669	0.04
709.988	0.04
710.307	0.04
710.626	0.04
710.944	0.04
711.263	0.04
711.582	0.04
711.9	0.04
712.219	0.04
712.537	0.04
712.855	0.04
713.174	0.04
713.492	0.04
713.81	0.04
714.128	0.04
714.446	0.04
714.764	0.04
715.082	0.04
715.4	0.04
715.718	0.04
716.035	0.04
716.353	0.03
716.671	0.04
716.988	0.04
717.306	0.04
717.623	0.04
717.941	0.04
718.258	0.04
718.575	0.04
718.893	0.04
719.21	0.04
719.527	0.03
719.844	0.04
720.161	0.04
720.478	0.04
720.795	0.04
721.112	0.04
721.428	0.04
721.745	0.04
722.062	0.04
722.378	0.04
722.695	0.04
723.011	0.04
723.328	0.04
723.644	0.04
723.96	0.04
724.276	0.04
724.593	0.04
724.909	0.04
725.225	0.04
725.541	0.04
725.857	0.04
726.173	0.04
726.488	0.04
726.804	0.04
727.12	0.04
727.435	0.04
727.751	0.04
728.067	0.04
728.382	0.04
728.697	0.04
729.013	0.04
729.328	0.04
729.643	0.04
729.958	0.04
730.273	0.04
730.588	0.04
730.903	0.04
731.218	0.04
731.533	0.04
731.848	0.04
732.163	0.04
732.477	0.04
732.792	0.04
733.107	0.04
733.421	0.04
733.736	0.04
734.05	0.04
734.364	0.04
734.678	0.04
734.993	0.04
735.307	0.04
735.621	0.04
735.935	0.04
736.249	0.04
736.563	0.04
736.877	0.04
737.19	0.04
737.504	0.04
737.818	0.04
738.131	0.04
738.445	0.05
738.758	0.05
739.072	0.05
739.385	0.05
739.698	0.05
740.012	0.05
740.325	0.05
740.638	0.05
740.951	0.05
741.264	0.05
741.577	0.05
741.89	0.05
742.203	0.04
742.515	0.05
742.828	0.05
743.141	0.05
743.453	0.05
743.766	0.05
744.078	0.05
744.391	0.04
744.703	0.04
745.015	0.04
745.327	0.04
745.639	0.04
745.952	0.04
746.264	0.03
746.575	0.03
746.887	0.03
747.199	0.03
747.511	0.03
747.823	0.03
748.134	0.03
748.446	0.03
748.757	0.03
749.069	0.03
749.38	0.03
749.692	0.03
750.003	0.03
750.314	0.03
750.625	0.03
750.936	0.03
751.248	0.03
751.559	0.03
751.869	0.03
752.18	0.03
752.491	0.04
752.802	0.04
753.112	0.04
753.423	0.03
753.734	0.03
754.044	0.03
754.355	0.03
754.665	0.04
754.975	0.04
755.285	0.04
755.596	0.03
755.906	0.03
756.216	0.03
756.526	0.03
756.836	0.03
757.146	0.03
757.455	0.03
757.765	0.03
758.075	0.03
758.385	0.03
758.694	0.03
759.004	0.03
759.313	0.03
759.622	0.03
759.932	0.03
760.241	0.03
760.55	0.03
760.859	0.03
761.168	0.03
761.477	0.03
761.786	0.03
762.095	0.03
762.404	0.02
762.713	0.02
763.021	0.02
763.33	0.02
763.639	0.02
763.947	0.02
764.256	0.02
764.564	0.02
764.872	0.02
765.181	0.02
765.489	0.02
765.797	0.02
766.105	0.02
766.413	0.02
766.721	0.02
767.029	0.03
767.337	0.03
767.644	0.03
767.952	0.02
768.26	0.02
768.567	0.02
768.875	0.02
769.182	0.03
769.49	0.03
769.797	0.02
770.104	0.03
770.411	0.03
770.718	0.03
771.026	0.03
771.333	0.02
771.639	0.02
771.946	0.02
772.253	0.02
772.56	0.02
772.867	0.02
773.173	0.02
773.48	0.02
773.786	0.02
774.093	0.02
774.399	0.02
774.705	0.02
775.012	0.03
775.318	0.03
775.624	0.03
775.93	0.03
776.236	0.03
776.542	0.03
776.848	0.03
777.154	0.02
777.459	0.02
777.765	0.02
778.071	0.02
778.376	0.02
778.682	0.02
778.987	0.03
779.292	0.03
779.598	0.02
779.903	0.02
780.208	0.03
780.513	0.02
780.818	0.02
781.123	0.02
781.428	0.02
781.733	0.02
782.038	0.03
782.343	0.03
782.647	0.03
782.952	0.03
783.256	0.03
783.561	0.03
783.865	0.03
784.17	0.03
784.474	0.03
784.778	0.03
785.082	0.03
785.386	0.03
785.69	0.03
785.994	0.03
786.298	0.03
786.602	0.03
786.906	0.03
787.209	0.03
787.513	0.02
787.817	0.02
788.12	0.03
788.424	0.03
788.727	0.03
789.03	0.02
789.333	0.02
789.637	0.02
789.94	0.02
790.243	0.02
790.546	0.03
790.849	0.03
791.152	0.03
791.454	0.02
791.757	0.02
792.06	0.02
792.362	0.02
792.665	0.02
792.967	0.03
793.27	0.02
793.572	0.03
793.874	0.03
794.177	0.03
794.479	0.03
794.781	0.03
795.083	0.02
795.385	0.02
795.687	0.02
795.989	0.02
796.29	0.02
796.592	0.02
796.894	0.02
797.195	0.02
797.497	0.02
797.798	0.02
798.1	0.02
798.401	0.01
798.702	0.01
799.003	0.01
799.304	0.01
799.605	0.02
799.906	0.02
800.207	0.02
800.508	0.02
800.809	0.03
801.11	0.03
801.41	0.02
801.711	0.03
802.011	0.03
802.312	0.02
802.612	0.02
802.913	0.02
803.213	0.02
803.513	0.02
803.813	0.02
804.113	0.02
804.413	0.03
804.713	0.03
805.013	0.04
805.313	0.03
805.613	0.03
805.912	0.04
806.212	0.03
806.511	0.03
806.811	0.03
807.11	0.03
807.41	0.02
807.709	0.02
808.008	0.03
808.307	0.03
808.606	0.03
808.905	0.02
809.204	0.03
809.503	0.02
809.802	0.02
810.101	0.03
810.399	0.02
810.698	0.02
810.997	0.02
811.295	0.02
811.593	0.02
811.892	0.02
812.19	0.02
812.488	0.02
812.786	0.03
813.084	0.03
813.383	0.03
813.68	0.03
813.978	0.03
814.276	0.03
814.574	0.03
814.872	0.04
815.169	0.04
815.467	0.04
815.764	0.04
816.062	0.04
816.359	0.04
816.656	0.03
816.954	0.03
817.251	0.03
817.548	0.04
817.845	0.03
818.142	0.03
818.439	0.03
818.735	0.03
819.032	0.03
819.329	0.03
819.626	0.03
819.922	0.04
820.219	0.04
820.515	0.04
820.811	0.04
821.108	0.03
821.404	0.03
821.7	0.04
821.996	0.04
822.292	0.04
822.588	0.04
822.884	0.04
823.18	0.04
823.475	0.03
823.771	0.03
824.067	0.02
824.362	0.03
824.658	0.03
824.953	0.03
825.249	0.03
825.544	0.03
825.839	0.04
826.134	0.03
826.429	0.04
826.724	0.03
827.019	0.03
827.314	0.03
827.609	0.03
827.904	0.03
828.198	0.04
828.493	0.04
828.787	0.03
829.082	0.03
829.376	0.04
829.671	0.03
829.965	0.03
830.259	0.03
830.553	0.04
830.847	0.04
831.141	0.03
831.435	0.03
831.729	0.04
832.023	0.03
832.317	0.03
832.61	0.02
832.904	0.03
833.197	0.03
833.491	0.04
833.784	0.03
834.077	0.04
834.371	0.04
834.664	0.04
834.957	0.04
835.25	0.03
835.543	0.04
835.836	0.03
836.129	0.03
836.421	0.03
836.714	0.03
837.007	0.03
837.299	0.04
837.592	0.04
837.884	0.04
838.177	0.04
838.469	0.04
838.761	0.03
839.053	0.05
839.345	0.04
839.637	0.05
839.929	0.04
840.221	0.04
840.513	0.04
840.805	0.03
841.096	0.04
841.388	0.04
841.68	0.04
841.971	0.04
842.262	0.03
842.554	0.04
842.845	0.03
843.136	0.04
843.427	0.03
843.718	0.03
844.009	0.04
844.3	0.04
844.591	0.04
844.882	0.05
845.173	0.05
845.463	0.05
845.754	0.05
846.044	0.04
846.335	0.03
846.625	0.05
846.915	0.04
847.206	0.03
847.496	0.02
847.786	0.03
848.076	0.03
848.366	0.03
848.656	0.04
848.945	0.04
849.235	0.04
849.525	0.05
849.814	0.03
850.104	0.04
850.393	0.03
850.683	0.03
850.972	0.02
851.261	0.02
851.551	0.04
851.84	0.03
852.129	0.04
852.418	0.02
852.707	0.03
852.995	0.03
853.284	0.03
853.573	0.04
853.862	0.04
854.15	0.04
854.439	0.05
854.727	0.05
855.015	0.05
855.304	0.04
855.592	0.05
855.88	0.03
856.168	0.02
856.456	0.04
856.744	0.03
857.032	0.03
857.32	0.05
857.607	0.04
857.895	0.04
858.183	0.03
858.47	0.03
858.757	0.05
859.045	0.03
859.332	0.04
859.619	0.04
859.907	0.03
860.194	0.04
860.481	0.04
860.768	0.03
861.054	0.04
861.341	0.03
861.628	0.05
861.915	0.05
862.201	0.04
862.488	0
862.774	0.02
863.061	0.02
863.347	0.03
863.633	0.01
863.919	0.02
864.205	0.02
864.491	0.03
864.777	0.01
865.063	0.01
865.349	0.02
865.635	0.02
865.92	0.03
866.206	0.03
866.492	0.03
866.777	0.04
867.062	0.02
867.348	0.03
867.633	0.04
867.918	0.02
868.203	0
868.488	0.06
868.773	0.03
869.058	0.02
869.343	0.02
869.628	0.03
869.912	0.01
870.197	-0.01
870.482	0.01
870.766	0.02
871.05	0.02
871.335	0.03
871.619	0.04
871.903	0.02
872.187	0.01
872.471	0.01
872.755	0.04
873.039	0.05
873.323	0.01
873.607	0.05
873.89	-0.04
874.174	0.01
874.458	0.05
874.741	0.02
875.024	-0.03
875.308	0.06
875.591	-0.06
875.874	0.03
876.157	-0
876.44	-0.05
876.723	-0.01
877.006	0.07
877.289	0.08
877.572	0.03
877.854	0.04
878.137	0.06
878.42	0.01
878.702	-0.02
878.984	0.02
879.267	0.01
879.549	-0.01
879.831	0.05
880.113	0.04
880.395	0.09
880.677	0.05
880.959	0.1
