Data from Rubpy_EV_900_EDTA_Absorbance_12-34-33-059.txt Node
Date: Mon Jun 29 12:34:33 BST 2026
User: fpm-admin
Spectrometer: OFX00224
Trigger mode: 0
Integration Time (sec): 7.000000E-2
Scans to average: 3
Nonlinearity correction enabled: false
Boxcar width: 0
Storing dark spectrum: false
XAxis mode: Wavelengths
Number of Pixels in Spectrum: 2136
>>>>>Begin Spectral Data<<<<<
154.91	0.12
155.289	-0
155.669	-0
156.048	-0
156.428	0.29
156.807	-0.43
157.186	-0
157.566	-0.24
157.945	0.38
158.325	-0.2
158.704	-0
159.083	-0
159.462	-0
159.842	-0.02
160.221	0.2
160.6	-0
160.979	0.18
161.359	0.9
161.738	-0
162.117	-0.75
162.496	-0
162.875	0.02
163.254	0.74
163.633	-0
164.012	-0.6
164.391	-0.18
164.77	-0
165.149	-0
165.528	0.1
165.907	-0.94
166.286	-0.02
166.665	0.12
167.044	0.33
167.423	-0.19
167.802	-0
168.181	-0
168.559	-0
168.938	-0
169.317	-0
169.696	-0.27
170.074	-0.02
170.453	-0
170.832	-1.18
171.21	-0.21
171.589	-0.23
171.968	1.34
172.346	0.12
172.725	-0.85
173.103	1.18
173.482	-0.07
173.861	-0.92
174.239	1.08
174.617	0.85
174.996	-0
175.374	0.45
175.753	-0
176.131	0.98
176.51	0.46
176.888	-0.15
177.266	-0.15
177.645	0
178.023	0.54
178.401	-0.27
178.779	0.11
179.158	0.2
179.536	-0.4
179.914	-0
180.292	0.95
180.67	0.02
181.048	-0.3
181.427	-1.24
181.805	0.17
182.183	-0
182.561	-0.27
182.939	-0
183.317	-0.24
183.695	-0.04
184.073	-0
184.451	-0.22
184.829	-0.96
185.206	-0
185.584	0.15
185.962	-0
186.34	-0
186.718	-1.21
187.096	-0
187.473	-0
187.851	0.15
188.229	-0
188.607	0.09
188.984	-0
189.362	0.09
189.74	0.02
190.117	0.09
190.495	0.03
190.872	0.1
191.25	0.14
191.627	0.09
192.005	-0.04
192.382	0.22
192.76	0.13
193.137	0.04
193.515	0.12
193.892	0.1
194.269	0.03
194.647	0.06
195.024	0.14
195.401	-0.03
195.779	0.14
196.156	-0.11
196.533	0.04
196.91	0.03
197.288	0.17
197.665	0.02
198.042	0.05
198.419	0.18
198.796	0.03
199.173	0.02
199.55	0.06
199.927	0.02
200.304	0.05
200.681	0.08
201.058	0.03
201.435	0.04
201.812	0.07
202.189	0.1
202.566	0.08
202.943	0.04
203.32	0.14
203.697	0.11
204.073	0.07
204.45	0.03
204.827	0.04
205.204	-0.03
205.58	0.07
205.957	0.09
206.334	0.05
206.71	0.17
207.087	0.02
207.464	0.12
207.84	-0
208.217	0.07
208.593	0.17
208.97	0.1
209.346	0.04
209.723	0.14
210.099	0.12
210.476	0.09
210.852	0.08
211.228	0.01
211.605	0.06
211.981	0.13
212.357	0.06
212.733	0.15
213.11	0.12
213.486	0.12
213.862	-0.05
214.238	0.11
214.614	0.1
214.991	0.04
215.367	0.06
215.743	0.07
216.119	0.03
216.495	0.13
216.871	-0.08
217.247	-0.02
217.623	0.02
217.999	0.08
218.375	0.12
218.751	-0
219.127	0.05
219.502	0.08
219.878	0.01
220.254	0.09
220.63	0.2
221.006	0.09
221.381	0.14
221.757	0.01
222.133	0.12
222.508	0
222.884	0.12
223.26	0.01
223.635	0.08
224.011	0.08
224.386	0.08
224.762	0.06
225.137	0.09
225.513	0.06
225.888	0.01
226.264	0.1
226.639	0.07
227.014	0.12
227.39	0.08
227.765	0.04
228.14	0.02
228.516	0.12
228.891	0.05
229.266	0.05
229.641	0.07
230.017	0.27
230.392	0.04
230.767	-0.01
231.142	0.03
231.517	0.14
231.892	-0.01
232.267	0.02
232.642	0.11
233.017	0.06
233.392	0.03
233.767	0.06
234.142	0.07
234.517	0.09
234.892	0.08
235.267	0.07
235.641	0.06
236.016	0.06
236.391	0.16
236.766	0.03
237.14	0.08
237.515	0.15
237.89	0.08
238.264	0.13
238.639	0.08
239.014	0.08
239.388	0.02
239.763	0.02
240.137	0.03
240.512	0.1
240.886	0.12
241.261	0.02
241.635	0.02
242.009	-0.03
242.384	0.05
242.758	0.12
243.132	0.2
243.507	0.13
243.881	0.08
244.255	0.07
244.629	0.03
245.004	0.18
245.378	0.16
245.752	-0.07
246.126	0.06
246.5	0.07
246.874	0.05
247.248	0.18
247.622	0.11
247.996	0.05
248.37	0.05
248.744	0.08
249.118	0.11
249.492	0.07
249.866	0.09
250.24	0.11
250.613	-0.02
250.987	0.01
251.361	0.03
251.735	0.05
252.108	0.04
252.482	0.02
252.856	0.11
253.229	0.04
253.603	0.14
253.977	0.06
254.35	0.03
254.724	0.1
255.097	0.1
255.471	-0.02
255.844	0.04
256.218	0.1
256.591	0.09
256.964	0.15
257.338	0.08
257.711	0.05
258.084	0.12
258.458	0.05
258.831	0.2
259.204	0.08
259.577	0.1
259.95	0.09
260.323	0.08
260.697	0.05
261.07	0.03
261.443	-0.01
261.816	0.03
262.189	0.11
262.562	0.05
262.935	-0.01
263.308	0.08
263.68	0.08
264.053	0.09
264.426	0.12
264.799	0.05
265.172	0.01
265.545	0.12
265.917	0
266.29	0.07
266.663	0.08
267.035	0.08
267.408	0.02
267.781	0.06
268.153	0.13
268.526	0.09
268.898	0.14
269.271	0.09
269.643	0.06
270.016	0.13
270.388	0.12
270.76	0.09
271.133	0.12
271.505	0.1
271.877	0.07
272.25	0.05
272.622	-0.01
272.994	0.1
273.366	0.1
273.739	0.07
274.111	0.11
274.483	0.08
274.855	0
275.227	0.06
275.599	0.16
275.971	0.03
276.343	0.15
276.715	0.07
277.087	0.13
277.459	0.09
277.831	0.09
278.203	0.12
278.574	0.04
278.946	0.03
279.318	-0.01
279.69	0.11
280.061	0.09
280.433	0.19
280.805	0.09
281.176	0.07
281.548	0.1
281.92	0.15
282.291	0.12
282.663	0.09
283.034	0.08
283.406	0.09
283.777	0.08
284.148	0.06
284.52	0.07
284.891	0.06
285.262	0.15
285.634	0.1
286.005	0.09
286.376	0.12
286.747	0.05
287.119	0.08
287.49	0.09
287.861	0.01
288.232	0.07
288.603	0.08
288.974	0.15
289.345	0.01
289.716	0.06
290.087	0.01
290.458	0.04
290.829	0.05
291.2	0.11
291.571	0.06
291.941	0.1
292.312	0.1
292.683	0.11
293.054	0.04
293.424	0.01
293.795	0.09
294.166	0.08
294.536	0.07
294.907	0.07
295.277	0.06
295.648	0.03
296.018	0.07
296.389	0.05
296.759	0.06
297.13	0.05
297.5	0.01
297.871	0.06
298.241	0.06
298.611	0.08
298.981	0.01
299.352	0.05
299.722	0.06
300.092	0.01
300.462	0.02
300.832	0.03
301.202	0.01
301.573	0.04
301.943	0.02
302.313	0.02
302.683	-0
303.053	0.02
303.422	0.01
303.792	0.04
304.162	0.03
304.532	0.02
304.902	0.01
305.272	0.01
305.641	0.02
306.011	0.02
306.381	0.01
306.75	0.03
307.12	0.03
307.49	0.03
307.859	0.03
308.229	0.03
308.598	0.02
308.968	0.02
309.337	0.03
309.707	0.03
310.076	0.03
310.445	0.05
310.815	0.04
311.184	0.03
311.553	0.05
311.923	0.04
312.292	0.04
312.661	0.04
313.03	0.03
313.399	0.04
313.768	0.04
314.137	0.04
314.506	0.04
314.875	0.04
315.244	0.04
315.613	0.05
315.982	0.04
316.351	0.04
316.72	0.04
317.089	0.03
317.458	0.04
317.826	0.04
318.195	0.04
318.564	0.04
318.933	0.04
319.301	0.03
319.67	0.03
320.038	0.04
320.407	0.04
320.775	0.04
321.144	0.04
321.512	0.03
321.881	0.03
322.249	0.04
322.618	0.04
322.986	0.04
323.354	0.04
323.723	0.04
324.091	0.04
324.459	0.04
324.827	0.03
325.195	0.03
325.564	0.03
325.932	0.03
326.3	0.03
326.668	0.04
327.036	0.03
327.404	0.03
327.772	0.03
328.14	0.03
328.508	0.03
328.875	0.03
329.243	0.03
329.611	0.03
329.979	0.04
330.346	0.04
330.714	0.04
331.082	0.04
331.449	0.04
331.817	0.03
332.185	0.04
332.552	0.04
332.92	0.03
333.287	0.03
333.655	0.03
334.022	0.03
334.389	0.03
334.757	0.04
335.124	0.04
335.491	0.04
335.859	0.05
336.226	0.04
336.593	0.04
336.96	0.04
337.327	0.04
337.695	0.04
338.062	0.05
338.429	0.05
338.796	0.05
339.163	0.05
339.53	0.05
339.897	0.05
340.263	0.05
340.63	0.05
340.997	0.06
341.364	0.06
341.731	0.06
342.097	0.06
342.464	0.06
342.831	0.06
343.197	0.06
343.564	0.06
343.931	0.06
344.297	0.06
344.664	0.06
345.03	0.07
345.396	0.07
345.763	0.07
346.129	0.07
346.496	0.07
346.862	0.07
347.228	0.07
347.594	0.07
347.961	0.07
348.327	0.08
348.693	0.08
349.059	0.08
349.425	0.08
349.791	0.08
350.157	0.08
350.523	0.09
350.889	0.09
351.255	0.09
351.621	0.09
351.987	0.1
352.353	0.1
352.719	0.1
353.084	0.1
353.45	0.1
353.816	0.1
354.181	0.11
354.547	0.1
354.913	0.11
355.278	0.11
355.644	0.12
356.009	0.12
356.375	0.12
356.74	0.13
357.106	0.13
357.471	0.13
357.836	0.13
358.202	0.13
358.567	0.14
358.932	0.14
359.297	0.15
359.663	0.15
360.028	0.15
360.393	0.15
360.758	0.15
361.123	0.16
361.488	0.16
361.853	0.16
362.218	0.16
362.583	0.16
362.948	0.17
363.312	0.17
363.677	0.17
364.042	0.17
364.407	0.18
364.772	0.18
365.136	0.18
365.501	0.19
365.865	0.19
366.23	0.2
366.595	0.2
366.959	0.21
367.324	0.21
367.688	0.22
368.052	0.22
368.417	0.23
368.781	0.23
369.145	0.23
369.51	0.23
369.874	0.23
370.238	0.23
370.602	0.24
370.967	0.24
371.331	0.23
371.695	0.24
372.059	0.23
372.423	0.23
372.787	0.23
373.151	0.23
373.515	0.23
373.878	0.23
374.242	0.23
374.606	0.23
374.97	0.23
375.334	0.23
375.697	0.23
376.061	0.24
376.425	0.24
376.788	0.24
377.152	0.24
377.515	0.25
377.879	0.25
378.242	0.25
378.606	0.25
378.969	0.26
379.333	0.26
379.696	0.27
380.059	0.27
380.422	0.27
380.786	0.28
381.149	0.28
381.512	0.29
381.875	0.3
382.238	0.31
382.601	0.31
382.964	0.32
383.327	0.33
383.69	0.34
384.053	0.35
384.416	0.36
384.779	0.36
385.142	0.37
385.504	0.38
385.867	0.38
386.23	0.39
386.593	0.39
386.955	0.39
387.318	0.39
387.68	0.39
388.043	0.39
388.405	0.39
388.768	0.38
389.13	0.39
389.493	0.38
389.855	0.38
390.217	0.38
390.58	0.38
390.942	0.38
391.304	0.38
391.666	0.38
392.028	0.39
392.391	0.4
392.753	0.42
393.115	0.43
393.477	0.44
393.839	0.46
394.201	0.47
394.563	0.49
394.924	0.52
395.286	0.53
395.648	0.55
396.01	0.57
396.371	0.59
396.733	0.6
397.095	0.61
397.456	0.62
397.818	0.62
398.18	0.61
398.541	0.61
398.903	0.6
399.264	0.58
399.625	0.56
399.987	0.54
400.348	0.51
400.709	0.48
401.071	0.47
401.432	0.43
401.793	0.41
402.154	0.39
402.515	0.36
402.876	0.33
403.238	0.31
403.599	0.29
403.96	0.28
404.32	0.25
404.681	0.24
405.042	0.22
405.403	0.2
405.764	0.19
406.125	0.18
406.485	0.17
406.846	0.16
407.207	0.15
407.567	0.15
407.928	0.13
408.288	0.13
408.649	0.12
409.009	0.11
409.37	0.11
409.73	0.1
410.091	0.1
410.451	0.09
410.811	0.09
411.171	0.09
411.532	0.08
411.892	0.08
412.252	0.08
412.612	0.07
412.972	0.07
413.332	0.07
413.692	0.07
414.052	0.07
414.412	0.07
414.772	0.06
415.132	0.06
415.492	0.06
415.851	0.06
416.211	0.06
416.571	0.06
416.931	0.06
417.29	0.06
417.65	0.06
418.009	0.06
418.369	0.05
418.728	0.06
419.088	0.05
419.447	0.05
419.807	0.05
420.166	0.06
420.525	0.04
420.884	0.04
421.244	0.05
421.603	0.05
421.962	0.04
422.321	0.05
422.68	0.04
423.039	0.04
423.398	0.04
423.757	0.04
424.116	0.04
424.475	0.05
424.834	0.04
425.193	0.04
425.551	0.04
425.91	0.04
426.269	0.05
426.628	0.03
426.986	0.04
427.345	0.04
427.703	0.03
428.062	0.04
428.42	0.04
428.779	0.03
429.137	0.04
429.496	0.03
429.854	0.04
430.212	0.04
430.57	0.04
430.929	0.04
431.287	0.03
431.645	0.04
432.003	0.03
432.361	0.04
432.719	0.04
433.077	0.03
433.435	0.04
433.793	0.04
434.151	0.04
434.509	0.03
434.866	0.04
435.224	0.03
435.582	0.03
435.94	0.04
436.297	0.04
436.655	0.04
437.012	0.03
437.37	0.04
437.727	0.03
438.085	0.03
438.442	0.03
438.8	0.04
439.157	0.04
439.514	0.04
439.872	0.04
440.229	0.03
440.586	0.03
440.943	0.03
441.3	0.03
441.657	0.03
442.014	0.03
442.371	0.03
442.728	0.03
443.085	0.03
443.442	0.03
443.799	0.03
444.156	0.03
444.513	0.03
444.869	0.02
445.226	0.03
445.583	0.03
445.939	0.03
446.296	0.03
446.652	0.03
447.009	0.03
447.365	0.02
447.722	0.03
448.078	0.02
448.434	0.02
448.791	0.02
449.147	0.03
449.503	0.02
449.859	0.02
450.215	0.03
450.571	0.02
450.928	0.02
451.284	0.02
451.64	0.02
451.995	0.01
452.351	0.01
452.707	0.02
453.063	0.01
453.419	0.01
453.775	0.02
454.13	0.01
454.486	0.01
454.842	0.01
455.197	0.01
455.553	0.01
455.908	0
456.264	0
456.619	0
456.975	0
457.33	-0
457.685	-0.01
458.04	-0
458.396	-0.01
458.751	-0.01
459.106	-0.01
459.461	-0.01
459.816	-0.02
460.171	-0.01
460.526	-0.02
460.881	-0.02
461.236	-0.03
461.591	-0.03
461.946	-0.03
462.301	-0.03
462.655	-0.03
463.01	-0.04
463.365	-0.04
463.719	-0.04
464.074	-0.04
464.428	-0.05
464.783	-0.05
465.137	-0.05
465.492	-0.05
465.846	-0.06
466.201	-0.06
466.555	-0.05
466.909	-0.06
467.263	-0.05
467.618	-0.05
467.972	-0.05
468.326	-0.05
468.68	-0.06
469.034	-0.06
469.388	-0.06
469.742	-0.06
470.096	-0.06
470.45	-0.06
470.804	-0.06
471.157	-0.06
471.511	-0.06
471.865	-0.06
472.218	-0.06
472.572	-0.05
472.926	-0.05
473.279	-0.05
473.633	-0.04
473.986	-0.05
474.34	-0.04
474.693	-0.04
475.046	-0.04
475.4	-0.03
475.753	-0.03
476.106	-0.03
476.459	-0.03
476.812	-0.02
477.165	-0.02
477.519	-0.02
477.872	-0.02
478.224	-0.01
478.577	-0.01
478.93	-0.01
479.283	-0
479.636	-0
479.989	-0
480.341	0
480.694	0
481.047	0
481.399	0
481.752	0.01
482.104	0.01
482.457	0.01
482.809	0.01
483.162	0.01
483.514	0.01
483.866	0.02
484.219	0.01
484.571	0.02
484.923	0.02
485.275	0.02
485.627	0.02
485.979	0.02
486.331	0.02
486.683	0.02
487.035	0.02
487.387	0.02
487.739	0.02
488.091	0.03
488.443	0.04
488.794	0.03
489.146	0.03
489.498	0.04
489.849	0.04
490.201	0.03
490.552	0.04
490.904	0.03
491.255	0.03
491.607	0.03
491.958	0.03
492.309	0.03
492.661	0.04
493.012	0.03
493.363	0.04
493.714	0.03
494.065	0.04
494.416	0.03
494.767	0.04
495.118	0.03
495.469	0.04
495.82	0.04
496.171	0.04
496.522	0.04
496.872	0.05
497.223	0.05
497.574	0.04
497.924	0.04
498.275	0.04
498.626	0.05
498.976	0.05
499.327	0.05
499.677	0.05
500.027	0.05
500.378	0.05
500.728	0.05
501.078	0.05
501.428	0.05
501.779	0.05
502.129	0.05
502.479	0.05
502.829	0.06
503.179	0.05
503.529	0.05
503.879	0.05
504.229	0.05
504.578	0.06
504.928	0.06
505.278	0.06
505.628	0.06
505.977	0.06
506.327	0.06
506.676	0.06
507.026	0.06
507.375	0.06
507.725	0.07
508.074	0.06
508.424	0.06
508.773	0.07
509.122	0.06
509.471	0.06
509.82	0.07
510.17	0.07
510.519	0.06
510.868	0.07
511.217	0.07
511.566	0.07
511.915	0.07
512.263	0.07
512.612	0.07
512.961	0.07
513.31	0.07
513.659	0.07
514.007	0.08
514.356	0.07
514.704	0.07
515.053	0.07
515.401	0.08
515.75	0.07
516.098	0.07
516.447	0.07
516.795	0.08
517.143	0.07
517.491	0.07
517.839	0.08
518.188	0.07
518.536	0.08
518.884	0.08
519.232	0.08
519.58	0.08
519.928	0.08
520.275	0.08
520.623	0.08
520.971	0.07
521.319	0.08
521.666	0.08
522.014	0.08
522.362	0.08
522.709	0.08
523.057	0.09
523.404	0.08
523.752	0.09
524.099	0.09
524.446	0.09
524.794	0.09
525.141	0.09
525.488	0.09
525.835	0.09
526.182	0.09
526.529	0.09
526.876	0.09
527.223	0.1
527.57	0.09
527.917	0.1
528.264	0.1
528.611	0.1
528.958	0.09
529.304	0.1
529.651	0.1
529.998	0.1
530.344	0.1
530.691	0.1
531.037	0.1
531.384	0.1
531.73	0.1
532.076	0.1
532.423	0.1
532.769	0.11
533.115	0.11
533.461	0.1
533.807	0.11
534.154	0.11
534.5	0.1
534.846	0.11
535.192	0.11
535.537	0.11
535.883	0.11
536.229	0.11
536.575	0.11
536.921	0.11
537.266	0.11
537.612	0.11
537.957	0.11
538.303	0.12
538.649	0.11
538.994	0.11
539.339	0.11
539.685	0.11
540.03	0.12
540.375	0.12
540.721	0.12
541.066	0.12
541.411	0.12
541.756	0.12
542.101	0.12
542.446	0.12
542.791	0.12
543.136	0.13
543.481	0.13
543.825	0.13
544.17	0.13
544.515	0.13
544.86	0.13
545.204	0.13
545.549	0.13
545.893	0.13
546.238	0.13
546.582	0.13
546.927	0.13
547.271	0.14
547.615	0.14
547.96	0.14
548.304	0.14
548.648	0.14
548.992	0.14
549.336	0.14
549.68	0.14
550.024	0.14
550.368	0.14
550.712	0.14
551.056	0.15
551.4	0.15
551.743	0.15
552.087	0.14
552.431	0.15
552.774	0.15
553.118	0.15
553.462	0.15
553.805	0.15
554.148	0.15
554.492	0.15
554.835	0.15
555.178	0.15
555.522	0.15
555.865	0.15
556.208	0.15
556.551	0.15
556.894	0.15
557.237	0.15
557.58	0.15
557.923	0.16
558.266	0.16
558.609	0.16
558.952	0.16
559.294	0.16
559.637	0.15
559.98	0.16
560.322	0.16
560.665	0.16
561.007	0.16
561.35	0.16
561.692	0.16
562.034	0.16
562.377	0.16
562.719	0.16
563.061	0.16
563.403	0.16
563.745	0.16
564.088	0.16
564.43	0.17
564.772	0.16
565.113	0.16
565.455	0.16
565.797	0.16
566.139	0.17
566.481	0.17
566.822	0.17
567.164	0.17
567.506	0.16
567.847	0.17
568.189	0.17
568.53	0.17
568.872	0.17
569.213	0.16
569.554	0.17
569.895	0.16
570.237	0.16
570.578	0.16
570.919	0.16
571.26	0.16
571.601	0.16
571.942	0.17
572.283	0.17
572.624	0.17
572.965	0.17
573.306	0.16
573.646	0.16
573.987	0.17
574.328	0.17
574.668	0.16
575.009	0.17
575.349	0.16
575.69	0.16
576.03	0.16
576.37	0.16
576.711	0.16
577.051	0.16
577.391	0.16
577.731	0.17
578.072	0.16
578.412	0.16
578.752	0.17
579.092	0.16
579.431	0.16
579.771	0.16
580.111	0.16
580.451	0.16
580.791	0.16
581.13	0.17
581.47	0.17
581.81	0.17
582.149	0.16
582.489	0.17
582.828	0.16
583.167	0.16
583.507	0.15
583.846	0.13
584.185	0.14
584.525	0.15
584.864	0.16
585.203	0.17
585.542	0.17
585.881	0.17
586.22	0.17
586.559	0.17
586.898	0.17
587.236	0.17
587.575	0.17
587.914	0.17
588.252	0.17
588.591	0.18
588.93	0.18
589.268	0.17
589.607	0.17
589.945	0.18
590.283	0.18
590.622	0.18
590.96	0.18
591.298	0.18
591.636	0.18
591.974	0.18
592.313	0.19
592.651	0.19
592.989	0.19
593.326	0.19
593.664	0.19
594.002	0.19
594.34	0.19
594.678	0.18
595.015	0.18
595.353	0.18
595.691	0.18
596.028	0.19
596.366	0.19
596.703	0.19
597.04	0.19
597.378	0.2
597.715	0.19
598.052	0.2
598.389	0.2
598.726	0.2
599.064	0.2
599.401	0.2
599.738	0.2
600.074	0.2
600.411	0.2
600.748	0.2
601.085	0.2
601.422	0.2
601.758	0.2
602.095	0.2
602.432	0.2
602.768	0.2
603.105	0.2
603.441	0.2
603.777	0.21
604.114	0.21
604.45	0.21
604.786	0.2
605.122	0.21
605.459	0.2
605.795	0.2
606.131	0.2
606.467	0.2
606.803	0.2
607.139	0.2
607.474	0.2
607.81	0.2
608.146	0.2
608.482	0.2
608.817	0.2
609.153	0.2
609.488	0.2
609.824	0.2
610.159	0.2
610.495	0.2
610.83	0.2
611.165	0.2
611.5	0.2
611.836	0.2
612.171	0.2
612.506	0.2
612.841	0.2
613.176	0.2
613.511	0.2
613.845	0.2
614.18	0.2
614.515	0.2
614.85	0.19
615.184	0.2
615.519	0.19
615.854	0.19
616.188	0.19
616.523	0.19
616.857	0.19
617.191	0.19
617.526	0.19
617.86	0.19
618.194	0.19
618.528	0.19
618.862	0.19
619.196	0.19
619.53	0.19
619.864	0.19
620.198	0.19
620.532	0.19
620.866	0.18
621.2	0.19
621.533	0.19
621.867	0.19
622.201	0.19
622.534	0.19
622.868	0.19
623.201	0.19
623.534	0.19
623.868	0.18
624.201	0.19
624.534	0.18
624.868	0.19
625.201	0.18
625.534	0.19
625.867	0.18
626.2	0.18
626.533	0.18
626.865	0.18
627.198	0.18
627.531	0.18
627.864	0.18
628.196	0.17
628.529	0.18
628.862	0.18
629.194	0.17
629.527	0.17
629.859	0.17
630.191	0.17
630.524	0.17
630.856	0.17
631.188	0.17
631.52	0.17
631.852	0.16
632.184	0.17
632.516	0.16
632.848	0.16
633.18	0.16
633.512	0.16
633.844	0.16
634.175	0.16
634.507	0.16
634.839	0.16
635.17	0.15
635.502	0.16
635.833	0.15
636.165	0.16
636.496	0.15
636.827	0.15
637.159	0.16
637.49	0.15
637.821	0.15
638.152	0.15
638.483	0.15
638.814	0.14
639.145	0.14
639.476	0.14
639.807	0.14
640.137	0.14
640.468	0.14
640.799	0.14
641.129	0.14
641.46	0.14
641.791	0.14
642.121	0.14
642.451	0.13
642.782	0.13
643.112	0.13
643.442	0.14
643.773	0.13
644.103	0.13
644.433	0.13
644.763	0.13
645.093	0.12
645.423	0.13
645.753	0.13
646.082	0.13
646.412	0.12
646.742	0.13
647.072	0.12
647.401	0.12
647.731	0.12
648.06	0.12
648.39	0.12
648.719	0.12
649.048	0.12
649.378	0.12
649.707	0.12
650.036	0.12
650.365	0.12
650.694	0.12
651.023	0.12
651.352	0.13
651.681	0.13
652.01	0.13
652.339	0.13
652.668	0.13
652.996	0.13
653.325	0.12
653.654	0.13
653.982	0.13
654.311	0.12
654.639	0.12
654.967	0.12
655.296	0.12
655.624	0.12
655.952	0.12
656.28	0.12
656.609	0.12
656.937	0.12
657.265	0.11
657.593	0.1
657.92	0.04
658.248	0
658.576	0
658.904	0.02
659.231	0.07
659.559	0.12
659.887	0.12
660.214	0.12
660.542	0.12
660.869	0.12
661.196	0.12
661.524	0.12
661.851	0.12
662.178	0.12
662.505	0.12
662.832	0.12
663.159	0.12
663.486	0.12
663.813	0.12
664.14	0.12
664.467	0.12
664.794	0.12
665.12	0.12
665.447	0.12
665.774	0.12
666.1	0.12
666.427	0.12
666.753	0.12
667.079	0.12
667.406	0.12
667.732	0.12
668.058	0.11
668.384	0.12
668.71	0.12
669.036	0.12
669.362	0.12
669.688	0.12
670.014	0.11
670.34	0.12
670.666	0.11
670.991	0.11
671.317	0.11
671.643	0.11
671.968	0.11
672.294	0.11
672.619	0.11
672.945	0.11
673.27	0.11
673.595	0.11
673.92	0.11
674.246	0.11
674.571	0.11
674.896	0.11
675.221	0.11
675.546	0.1
675.87	0.1
676.195	0.1
676.52	0.1
676.845	0.1
677.169	0.1
677.494	0.1
677.819	0.1
678.143	0.1
678.468	0.1
678.792	0.1
679.116	0.1
679.44	0.1
679.765	0.1
680.089	0.1
680.413	0.09
680.737	0.1
681.061	0.1
681.385	0.1
681.709	0.09
682.033	0.09
682.356	0.1
682.68	0.09
683.004	0.09
683.327	0.09
683.651	0.09
683.974	0.08
684.298	0.08
684.621	0.08
684.944	0.08
685.268	0.08
685.591	0.09
685.914	0.08
686.237	0.08
686.56	0.08
686.883	0.08
687.206	0.08
687.529	0.08
687.852	0.08
688.175	0.08
688.497	0.08
688.82	0.08
689.142	0.08
689.465	0.08
689.787	0.08
690.11	0.08
690.432	0.07
690.755	0.07
691.077	0.07
691.399	0.07
691.721	0.07
692.043	0.07
692.365	0.07
692.687	0.07
693.009	0.06
693.331	0.06
693.653	0.06
693.974	0.06
694.296	0.06
694.618	0.06
694.939	0.06
695.261	0.06
695.582	0.06
695.904	0.06
696.225	0.06
696.546	0.06
696.868	0.06
697.189	0.06
697.51	0.06
697.831	0.07
698.152	0.07
698.473	0.06
698.794	0.06
699.114	0.06
699.435	0.06
699.756	0.06
700.077	0.06
700.397	0.06
700.718	0.06
701.038	0.06
701.359	0.06
701.679	0.06
701.999	0.06
702.32	0.06
702.64	0.05
702.96	0.05
703.28	0.05
703.6	0.06
703.92	0.06
704.24	0.06
704.56	0.06
704.879	0.06
705.199	0.06
705.519	0.06
705.838	0.06
706.158	0.06
706.478	0.05
706.797	0.05
707.116	0.06
707.436	0.06
707.755	0.05
708.074	0.05
708.393	0.05
708.712	0.05
709.031	0.05
709.35	0.05
709.669	0.05
709.988	0.05
710.307	0.05
710.626	0.05
710.944	0.05
711.263	0.05
711.582	0.05
711.9	0.05
712.219	0.05
712.537	0.05
712.855	0.05
713.174	0.05
713.492	0.05
713.81	0.05
714.128	0.05
714.446	0.05
714.764	0.05
715.082	0.05
715.4	0.05
715.718	0.05
716.035	0.05
716.353	0.05
716.671	0.05
716.988	0.05
717.306	0.05
717.623	0.05
717.941	0.05
718.258	0.05
718.575	0.05
718.893	0.05
719.21	0.05
719.527	0.05
719.844	0.05
720.161	0.05
720.478	0.05
720.795	0.05
721.112	0.05
721.428	0.05
721.745	0.05
722.062	0.05
722.378	0.05
722.695	0.05
723.011	0.05
723.328	0.05
723.644	0.05
723.96	0.05
724.276	0.05
724.593	0.06
724.909	0.06
725.225	0.06
725.541	0.06
725.857	0.05
726.173	0.05
726.488	0.05
726.804	0.05
727.12	0.05
727.435	0.05
727.751	0.05
728.067	0.05
728.382	0.05
728.697	0.05
729.013	0.05
729.328	0.05
729.643	0.05
729.958	0.05
730.273	0.05
730.588	0.05
730.903	0.05
731.218	0.05
731.533	0.05
731.848	0.05
732.163	0.05
732.477	0.05
732.792	0.05
733.107	0.05
733.421	0.06
733.736	0.05
734.05	0.05
734.364	0.05
734.678	0.05
734.993	0.05
735.307	0.05
735.621	0.05
735.935	0.06
736.249	0.05
736.563	0.05
736.877	0.05
737.19	0.05
737.504	0.05
737.818	0.05
738.131	0.06
738.445	0.06
738.758	0.06
739.072	0.06
739.385	0.06
739.698	0.06
740.012	0.06
740.325	0.06
740.638	0.06
740.951	0.06
741.264	0.06
741.577	0.06
741.89	0.06
742.203	0.06
742.515	0.06
742.828	0.06
743.141	0.06
743.453	0.06
743.766	0.06
744.078	0.06
744.391	0.06
744.703	0.05
745.015	0.06
745.327	0.05
745.639	0.05
745.952	0.05
746.264	0.04
746.575	0.04
746.887	0.04
747.199	0.04
747.511	0.04
747.823	0.04
748.134	0.04
748.446	0.04
748.757	0.04
749.069	0.04
749.38	0.04
749.692	0.04
750.003	0.04
750.314	0.04
750.625	0.04
750.936	0.04
751.248	0.04
751.559	0.04
751.869	0.04
752.18	0.04
752.491	0.04
752.802	0.04
753.112	0.04
753.423	0.04
753.734	0.04
754.044	0.04
754.355	0.04
754.665	0.04
754.975	0.04
755.285	0.04
755.596	0.04
755.906	0.04
756.216	0.03
756.526	0.04
756.836	0.03
757.146	0.04
757.455	0.03
757.765	0.03
758.075	0.04
758.385	0.03
758.694	0.04
759.004	0.03
759.313	0.03
759.622	0.04
759.932	0.04
760.241	0.03
760.55	0.03
760.859	0.03
761.168	0.03
761.477	0.03
761.786	0.03
762.095	0.03
762.404	0.03
762.713	0.03
763.021	0.02
763.33	0.02
763.639	0.02
763.947	0.02
764.256	0.02
764.564	0.02
764.872	0.02
765.181	0.02
765.489	0.02
765.797	0.02
766.105	0.02
766.413	0.02
766.721	0.02
767.029	0.02
767.337	0.03
767.644	0.03
767.952	0.02
768.26	0.03
768.567	0.02
768.875	0.02
769.182	0.02
769.49	0.02
769.797	0.02
770.104	0.02
770.411	0.03
770.718	0.03
771.026	0.03
771.333	0.02
771.639	0.02
771.946	0.02
772.253	0.02
772.56	0.03
772.867	0.02
773.173	0.02
773.48	0.02
773.786	0.02
774.093	0.02
774.399	0.02
774.705	0.02
775.012	0.03
775.318	0.03
775.624	0.03
775.93	0.03
776.236	0.03
776.542	0.03
776.848	0.03
777.154	0.02
777.459	0.02
777.765	0.02
778.071	0.02
778.376	0.02
778.682	0.02
778.987	0.02
779.292	0.02
779.598	0.02
779.903	0.02
780.208	0.03
780.513	0.02
780.818	0.02
781.123	0.03
781.428	0.02
781.733	0.02
782.038	0.03
782.343	0.03
782.647	0.03
782.952	0.03
783.256	0.02
783.561	0.03
783.865	0.03
784.17	0.03
784.474	0.03
784.778	0.03
785.082	0.03
785.386	0.03
785.69	0.03
785.994	0.03
786.298	0.03
786.602	0.03
786.906	0.03
787.209	0.03
787.513	0.02
787.817	0.03
788.12	0.03
788.424	0.02
788.727	0.03
789.03	0.02
789.333	0.02
789.637	0.02
789.94	0.02
790.243	0.02
790.546	0.03
790.849	0.02
791.152	0.02
791.454	0.02
791.757	0.02
792.06	0.02
792.362	0.02
792.665	0.03
792.967	0.02
793.27	0.02
793.572	0.03
793.874	0.03
794.177	0.03
794.479	0.03
794.781	0.03
795.083	0.02
795.385	0.02
795.687	0.02
795.989	0.02
796.29	0.02
796.592	0.02
796.894	0.02
797.195	0.02
797.497	0.02
797.798	0.02
798.1	0.01
798.401	0.01
798.702	0.01
799.003	0.01
799.304	0.01
799.605	0.02
799.906	0.03
800.207	0.02
800.508	0.02
800.809	0.02
801.11	0.03
801.41	0.02
801.711	0.03
802.011	0.03
802.312	0.03
802.612	0.02
802.913	0.01
803.213	0.01
803.513	0.02
803.813	0.02
804.113	0.02
804.413	0.02
804.713	0.03
805.013	0.03
805.313	0.03
805.613	0.03
805.912	0.03
806.212	0.03
806.511	0.03
806.811	0.03
807.11	0.02
807.41	0.02
807.709	0.02
808.008	0.03
808.307	0.02
808.606	0.02
808.905	0.02
809.204	0.02
809.503	0.02
809.802	0.02
810.101	0.02
810.399	0.02
810.698	0.02
810.997	0.02
811.295	0.02
811.593	0.02
811.892	0.02
812.19	0.02
812.488	0.02
812.786	0.02
813.084	0.02
813.383	0.03
813.68	0.03
813.978	0.03
814.276	0.03
814.574	0.03
814.872	0.04
815.169	0.03
815.467	0.03
815.764	0.04
816.062	0.03
816.359	0.03
816.656	0.03
816.954	0.03
817.251	0.02
817.548	0.03
817.845	0.03
818.142	0.03
818.439	0.03
818.735	0.03
819.032	0.02
819.329	0.02
819.626	0.03
819.922	0.03
820.219	0.03
820.515	0.04
820.811	0.03
821.108	0.03
821.404	0.03
821.7	0.04
821.996	0.03
822.292	0.04
822.588	0.04
822.884	0.03
823.18	0.03
823.475	0.03
823.771	0.03
824.067	0.03
824.362	0.02
824.658	0.03
824.953	0.03
825.249	0.03
825.544	0.04
825.839	0.04
826.134	0.03
826.429	0.03
826.724	0.02
827.019	0.03
827.314	0.02
827.609	0.03
827.904	0.02
828.198	0.04
828.493	0.03
828.787	0.03
829.082	0.03
829.376	0.03
829.671	0.03
829.965	0.03
830.259	0.03
830.553	0.04
830.847	0.03
831.141	0.03
831.435	0.03
831.729	0.04
832.023	0.02
832.317	0.03
832.61	0.02
832.904	0.02
833.197	0.03
833.491	0.04
833.784	0.03
834.077	0.04
834.371	0.03
834.664	0.04
834.957	0.04
835.25	0.03
835.543	0.04
835.836	0.03
836.129	0.03
836.421	0.02
836.714	0.03
837.007	0.03
837.299	0.04
837.592	0.03
837.884	0.03
838.177	0.03
838.469	0.03
838.761	0.03
839.053	0.04
839.345	0.04
839.637	0.05
839.929	0.04
840.221	0.05
840.513	0.04
840.805	0.03
841.096	0.04
841.388	0.04
841.68	0.04
841.971	0.03
842.262	0.02
842.554	0.04
842.845	0.03
843.136	0.04
843.427	0.02
843.718	0.04
844.009	0.04
844.3	0.04
844.591	0.04
844.882	0.04
845.173	0.04
845.463	0.05
845.754	0.06
846.044	0.04
846.335	0.03
846.625	0.04
846.915	0.03
847.206	0.02
847.496	0.03
847.786	0.02
848.076	0.02
848.366	0.04
848.656	0.04
848.945	0.03
849.235	0.04
849.525	0.05
849.814	0.03
850.104	0.03
850.393	0.03
850.683	0.03
850.972	0.01
851.261	0.03
851.551	0.02
851.84	0.03
852.129	0.02
852.418	0.02
852.707	0.02
852.995	0.02
853.284	0.03
853.573	0.04
853.862	0.03
854.15	0.04
854.439	0.03
854.727	0.03
855.015	0.03
855.304	0.03
855.592	0.04
855.88	0.03
856.168	0.02
856.456	0.03
856.744	0.04
857.032	0.04
857.32	0.04
857.607	0.03
857.895	0.04
858.183	0.03
858.47	0.02
858.757	0.03
859.045	0.03
859.332	0.04
859.619	0.03
859.907	0.02
860.194	0.04
860.481	0.03
860.768	0.04
861.054	0.02
861.341	0.04
861.628	0.04
861.915	0.04
862.201	0.03
862.488	0.02
862.774	0.01
863.061	0.02
863.347	0.03
863.633	0.01
863.919	0.03
864.205	0.02
864.491	0.03
864.777	0
865.063	0
865.349	-0
865.635	0.04
865.92	0.01
866.206	0.04
866.492	0.04
866.777	0.03
867.062	0.01
867.348	0.05
867.633	0.05
867.918	0.03
868.203	0.02
868.488	0.04
868.773	0
869.058	0.02
869.343	0.03
869.628	0.01
869.912	0.02
870.197	0.01
870.482	0.02
870.766	0.05
871.05	-0.01
871.335	0.04
871.619	0.03
871.903	0.02
872.187	-0
872.471	-0.02
872.755	0.05
873.039	0.02
873.323	0.01
873.607	0.03
873.89	0.02
874.174	0.03
874.458	0.01
874.741	0.01
875.024	-0.03
875.308	-0.01
875.591	-0.02
875.874	0.02
876.157	-0.02
876.44	-0.02
876.723	-0.04
877.006	0.03
877.289	0.04
877.572	0.05
877.854	0.01
878.137	0.02
878.42	-0.03
878.702	-0.1
878.984	0.01
879.267	0.02
879.549	-0.06
879.831	0.04
880.113	-0.02
880.395	0.03
880.677	-0.01
880.959	0.11
