Data from Rubpy_EV_900_EDTA_Absorbance_12-21-10-948.txt Node
Date: Mon Jun 29 12:21:10 BST 2026
User: fpm-admin
Spectrometer: OFX00224
Trigger mode: 0
Integration Time (sec): 7.000000E-2
Scans to average: 3
Nonlinearity correction enabled: false
Boxcar width: 0
Storing dark spectrum: false
XAxis mode: Wavelengths
Number of Pixels in Spectrum: 2136
>>>>>Begin Spectral Data<<<<<
154.91	-0
155.289	-0
155.669	-0
156.048	1.01
156.428	0.15
156.807	-0
157.186	0.28
157.566	-0
157.945	0.58
158.325	0.52
158.704	-0.48
159.083	-0.65
159.462	-0
159.842	0.11
160.221	0.27
160.6	-0
160.979	-0.11
161.359	0.3
161.738	-0
162.117	-0
162.496	0.06
162.875	0.68
163.254	-0
163.633	-0
164.012	-0.6
164.391	-0.32
164.77	-0
165.149	-0
165.528	-0.6
165.907	-0.51
166.286	0.2
166.665	-0
167.044	0.13
167.423	0.1
167.802	-0
168.181	-0.37
168.559	-0.1
168.938	-0.02
169.317	-0
169.696	0.39
170.074	0.43
170.453	0.08
170.832	-1.18
171.21	-0
171.589	-0.25
171.968	-0.27
172.346	-0.09
172.725	-1
173.103	-0
173.482	0.06
173.861	-0
174.239	-0
174.617	-0.37
174.996	-0
175.374	1.49
175.753	0.6
176.131	-0
176.51	-0
176.888	0.06
177.266	0.11
177.645	-0.05
178.023	-0.09
178.401	-0.21
178.779	0.57
179.158	-0.18
179.536	-0.95
179.914	-0
180.292	-0
180.67	-0.23
181.048	-0
181.427	-1.28
181.805	-0.08
182.183	-0
182.561	-0
182.939	-0.7
183.317	-0.35
183.695	0.06
184.073	-0
184.451	-0.33
184.829	-0.76
185.206	-0
185.584	-0.03
185.962	0.7
186.34	-0.02
186.718	-1.01
187.096	0.5
187.473	-0
187.851	0.01
188.229	-0
188.607	0.07
188.984	-0.1
189.362	0.03
189.74	-0.06
190.117	0.01
190.495	-0.08
190.872	0.03
191.25	0.07
191.627	-0.04
192.005	-0.05
192.382	0.07
192.76	0.07
193.137	-0.05
193.515	0.02
193.892	0.06
194.269	0.03
194.647	-0
195.024	0.05
195.401	-0.07
195.779	-0.06
196.156	-0.2
196.533	0.03
196.91	-0.1
197.288	-0.03
197.665	-0.12
198.042	-0
198.419	0.03
198.796	-0.05
199.173	-0.05
199.55	0.06
199.927	0.05
200.304	0.03
200.681	-0.06
201.058	-0.01
201.435	0.05
201.812	0.02
202.189	-0.06
202.566	-0
202.943	-0.02
203.32	-0.02
203.697	0.01
204.073	-0.02
204.45	-0.05
204.827	-0.03
205.204	-0.07
205.58	-0.13
205.957	-0
206.334	-0.06
206.71	0.08
207.087	-0.1
207.464	0.09
207.84	0.03
208.217	0.02
208.593	0.05
208.97	0.03
209.346	-0.03
209.723	0.07
210.099	0.03
210.476	-0.04
210.852	-0.04
211.228	-0.02
211.605	0.06
211.981	-0
212.357	-0.03
212.733	0.1
213.11	0.06
213.486	0.06
213.862	-0.12
214.238	-0.07
214.614	-0.03
214.991	0.03
215.367	-0.03
215.743	-0.02
216.119	-0.08
216.495	0.01
216.871	-0.03
217.247	-0.08
217.623	-0.04
217.999	-0.08
218.375	-0.01
218.751	-0.07
219.127	0.04
219.502	-0.02
219.878	-0.1
220.254	-0.02
220.63	0.08
221.006	0.03
221.381	0.01
221.757	-0.05
222.133	-0.01
222.508	-0.06
222.884	-0
223.26	-0.06
223.635	-0.01
224.011	-0.04
224.386	-0.03
224.762	0.01
225.137	-0.03
225.513	-0.01
225.888	-0
226.264	0.06
226.639	0.07
227.014	-0.02
227.39	-0.05
227.765	-0
228.14	-0.09
228.516	0.01
228.891	-0.07
229.266	-0.08
229.641	0.01
230.017	0.09
230.392	0.08
230.767	0.03
231.142	0
231.517	0.03
231.892	-0.05
232.267	-0.03
232.642	0.01
233.017	0.01
233.392	-0.02
233.767	-0.08
234.142	-0.02
234.517	-0.05
234.892	0
235.267	0.01
235.641	-0.01
236.016	-0.07
236.391	0.05
236.766	-0.09
237.14	-0.06
237.515	-0.01
237.89	-0.03
238.264	0.05
238.639	-0.03
239.014	0.03
239.388	-0.08
239.763	-0.06
240.137	-0.02
240.512	0.02
240.886	0.02
241.261	-0.02
241.635	0.03
242.009	-0.02
242.384	-0.03
242.758	0.05
243.132	0.03
243.507	0.04
243.881	0.01
244.255	0.1
244.629	-0.04
245.004	-0
245.378	0.06
245.752	-0.1
246.126	-0
246.5	-0.04
246.874	-0.03
247.248	-0.01
247.622	-0.07
247.996	-0.08
248.37	-0.04
248.744	-0.02
249.118	-0.13
249.492	-0.11
249.866	-0.06
250.24	0.06
250.613	-0.09
250.987	-0.03
251.361	0.01
251.735	-0.05
252.108	0.01
252.482	-0.01
252.856	0.08
253.229	0.03
253.603	0.09
253.977	0.01
254.35	-0
254.724	-0.03
255.097	0.02
255.471	-0.03
255.844	-0.01
256.218	0.13
256.591	0.02
256.964	-0.03
257.338	-0.04
257.711	-0.02
258.084	-0.04
258.458	-0.06
258.831	0.03
259.204	-0.01
259.577	-0.01
259.95	0.03
260.323	0.02
260.697	0.11
261.07	0.04
261.443	-0.08
261.816	0.02
262.189	-0.01
262.562	0.02
262.935	0.01
263.308	0.02
263.68	-0
264.053	0.07
264.426	0.04
264.799	-0.08
265.172	-0.03
265.545	0.02
265.917	-0.02
266.29	0.02
266.663	-0
267.035	-0.08
267.408	0.02
267.781	-0
268.153	0.02
268.526	0.01
268.898	0.04
269.271	0
269.643	-0.01
270.016	0.02
270.388	0.03
270.76	-0.06
271.133	-0
271.505	-0.01
271.877	-0.04
272.25	-0.06
272.622	-0.01
272.994	0.03
273.366	0.03
273.739	0.04
274.111	-0.01
274.483	0.02
274.855	-0.01
275.227	0.02
275.599	-0
275.971	-0.03
276.343	0.06
276.715	0.02
277.087	0.06
277.459	0.02
277.831	0.07
278.203	0
278.574	0.06
278.946	-0.07
279.318	-0.04
279.69	0.02
280.061	0.07
280.433	0.02
280.805	0.02
281.176	0
281.548	-0
281.92	0.02
282.291	0.06
282.663	-0.04
283.034	0.01
283.406	0.02
283.777	-0.01
284.148	-0.06
284.52	-0.01
284.891	-0.01
285.262	0
285.634	-0.01
286.005	-0.01
286.376	0.04
286.747	-0.01
287.119	0.03
287.49	-0.02
287.861	-0.01
288.232	0.03
288.603	-0
288.974	0.06
289.345	-0
289.716	-0.03
290.087	-0.05
290.458	-0.06
290.829	0.05
291.2	0.01
291.571	0
291.941	0.06
292.312	0.05
292.683	-0.02
293.054	-0.07
293.424	-0.02
293.795	-0
294.166	0.03
294.536	0.02
294.907	0
295.277	0.03
295.648	-0.03
296.018	-0.01
296.389	0.01
296.759	-0.01
297.13	-0
297.5	-0.02
297.871	-0.01
298.241	0
298.611	0.01
298.981	0.02
299.352	-0.04
299.722	0.01
300.092	-0.02
300.462	-0.02
300.832	0
301.202	-0.01
301.573	-0.01
301.943	-0.03
302.313	-0.01
302.683	-0.03
303.053	-0.03
303.422	-0.02
303.792	-0
304.162	-0
304.532	-0.01
304.902	-0.02
305.272	-0.01
305.641	-0.02
306.011	-0
306.381	-0.02
306.75	-0.01
307.12	-0.02
307.49	-0.02
307.859	-0.02
308.229	-0.02
308.598	-0.02
308.968	-0.01
309.337	-0.01
309.707	-0.01
310.076	-0.01
310.445	-0.01
310.815	-0.01
311.184	-0.01
311.553	-0
311.923	-0.01
312.292	-0.01
312.661	-0.01
313.03	-0.02
313.399	-0.01
313.768	-0.01
314.137	-0.01
314.506	-0.01
314.875	-0.01
315.244	-0.01
315.613	-0
315.982	-0.01
316.351	-0.01
316.72	-0.01
317.089	-0.01
317.458	-0.01
317.826	-0.02
318.195	-0.01
318.564	-0.01
318.933	-0.01
319.301	-0.01
319.67	-0.01
320.038	-0.01
320.407	-0.01
320.775	-0.01
321.144	-0
321.512	-0.01
321.881	-0.01
322.249	-0
322.618	-0
322.986	-0
323.354	-0
323.723	-0.01
324.091	-0
324.459	-0.01
324.827	-0.01
325.195	0
325.564	-0
325.932	-0
326.3	-0
326.668	0
327.036	-0
327.404	-0.01
327.772	-0
328.14	-0
328.508	-0.01
328.875	-0.01
329.243	-0.01
329.611	-0
329.979	0
330.346	0
330.714	0
331.082	-0
331.449	-0
331.817	-0
332.185	-0
332.552	-0
332.92	-0
333.287	-0.01
333.655	-0.01
334.022	-0.01
334.389	-0.01
334.757	-0
335.124	0
335.491	-0
335.859	0
336.226	0
336.593	-0
336.96	0
337.327	-0
337.695	-0
338.062	-0
338.429	-0
338.796	0
339.163	0
339.53	0
339.897	-0
340.263	0
340.63	0
340.997	0
341.364	0
341.731	0
342.097	0
342.464	0
342.831	-0
343.197	0
343.564	0
343.931	0
344.297	0
344.664	0
345.03	0
345.396	0
345.763	0
346.129	-0
346.496	-0
346.862	-0
347.228	0
347.594	0
347.961	0
348.327	0
348.693	0
349.059	0
349.425	0
349.791	0
350.157	-0
350.523	0
350.889	0
351.255	0
351.621	0
351.987	0.01
352.353	0.01
352.719	0.01
353.084	0
353.45	0
353.816	0
354.181	0
354.547	0
354.913	0.01
355.278	0
355.644	0
356.009	0
356.375	0.01
356.74	0.01
357.106	0.01
357.471	0
357.836	0
358.202	0
358.567	0.01
358.932	0
359.297	0.01
359.663	0
360.028	0.01
360.393	0.01
360.758	0.01
361.123	0
361.488	0
361.853	0.01
362.218	0
362.583	0.01
362.948	0.01
363.312	0
363.677	0
364.042	0.01
364.407	0.01
364.772	0.01
365.136	0.01
365.501	0.01
365.865	0.01
366.23	0.01
366.595	0.01
366.959	0.01
367.324	0.01
367.688	0.01
368.052	0.01
368.417	0.01
368.781	0.01
369.145	0.01
369.51	0.01
369.874	0.01
370.238	0.01
370.602	0.01
370.967	0.01
371.331	0.01
371.695	0.01
372.059	0.01
372.423	0.01
372.787	0.01
373.151	0.01
373.515	0.01
373.878	0.01
374.242	0.01
374.606	0.01
374.97	0.01
375.334	0.01
375.697	0.01
376.061	0.01
376.425	0.01
376.788	0.01
377.152	0.01
377.515	0.01
377.879	0.01
378.242	0.01
378.606	0.01
378.969	0.01
379.333	0.01
379.696	0.02
380.059	0.02
380.422	0.01
380.786	0.01
381.149	0.01
381.512	0.01
381.875	0.01
382.238	0.01
382.601	0.01
382.964	0.01
383.327	0.01
383.69	0.01
384.053	0.01
384.416	0.01
384.779	0.01
385.142	0.01
385.504	0.01
385.867	0.01
386.23	0.01
386.593	0.01
386.955	0.01
387.318	0.01
387.68	0.01
388.043	0.01
388.405	0.01
388.768	0.01
389.13	0.01
389.493	0.01
389.855	0.01
390.217	0.01
390.58	0.01
390.942	0.01
391.304	0.02
391.666	0.01
392.028	0.01
392.391	0.01
392.753	0.01
393.115	0.01
393.477	0.01
393.839	0.01
394.201	0.01
394.563	0.01
394.924	0.01
395.286	0.02
395.648	0.01
396.01	0.01
396.371	0.02
396.733	0.01
397.095	0.01
397.456	0.02
397.818	0.01
398.18	0.02
398.541	0.02
398.903	0.01
399.264	0.01
399.625	0.01
399.987	0.01
400.348	0.01
400.709	0.01
401.071	0.02
401.432	0.01
401.793	0.01
402.154	0.02
402.515	0.02
402.876	0.01
403.238	0.02
403.599	0.01
403.96	0.02
404.32	0.02
404.681	0.02
405.042	0.02
405.403	0.02
405.764	0.02
406.125	0.01
406.485	0.02
406.846	0.02
407.207	0.02
407.567	0.02
407.928	0.02
408.288	0.02
408.649	0.02
409.009	0.02
409.37	0.02
409.73	0.02
410.091	0.02
410.451	0.01
410.811	0.01
411.171	0.02
411.532	0.02
411.892	0.02
412.252	0.02
412.612	0.01
412.972	0.02
413.332	0.02
413.692	0.02
414.052	0.02
414.412	0.02
414.772	0.02
415.132	0.02
415.492	0.02
415.851	0.02
416.211	0.02
416.571	0.02
416.931	0.02
417.29	0.02
417.65	0.02
418.009	0.01
418.369	0.02
418.728	0.02
419.088	0.01
419.447	0.02
419.807	0.02
420.166	0.02
420.525	0.02
420.884	0.02
421.244	0.01
421.603	0.02
421.962	0.02
422.321	0.02
422.68	0.02
423.039	0.02
423.398	0.01
423.757	0.02
424.116	0.02
424.475	0.02
424.834	0.02
425.193	0.02
425.551	0.02
425.91	0.02
426.269	0.02
426.628	0.01
426.986	0.02
427.345	0.02
427.703	0.02
428.062	0.02
428.42	0.02
428.779	0.01
429.137	0.02
429.496	0.02
429.854	0.02
430.212	0.03
430.57	0.02
430.929	0.02
431.287	0.02
431.645	0.02
432.003	0.01
432.361	0.02
432.719	0.02
433.077	0.02
433.435	0.02
433.793	0.02
434.151	0.02
434.509	0.02
434.866	0.02
435.224	0.02
435.582	0.02
435.94	0.02
436.297	0.02
436.655	0.02
437.012	0.02
437.37	0.02
437.727	0.02
438.085	0.02
438.442	0.02
438.8	0.02
439.157	0.03
439.514	0.02
439.872	0.02
440.229	0.02
440.586	0.02
440.943	0.02
441.3	0.02
441.657	0.01
442.014	0.02
442.371	0.02
442.728	0.02
443.085	0.02
443.442	0.02
443.799	0.02
444.156	0.02
444.513	0.02
444.869	0.01
445.226	0.01
445.583	0.01
445.939	0.02
446.296	0.02
446.652	0.01
447.009	0.01
447.365	0.01
447.722	0.02
448.078	0.01
448.434	0.01
448.791	0.01
449.147	0.02
449.503	0.02
449.859	0.01
450.215	0.02
450.571	0.01
450.928	0.01
451.284	0.01
451.64	0.01
451.995	0.01
452.351	0.01
452.707	0.01
453.063	0.01
453.419	0
453.775	0.01
454.13	0
454.486	0
454.842	0
455.197	0
455.553	-0
455.908	-0
456.264	-0.01
456.619	0
456.975	-0.01
457.33	-0.01
457.685	-0.01
458.04	-0.01
458.396	-0.02
458.751	-0.01
459.106	-0.02
459.461	-0.02
459.816	-0.02
460.171	-0.02
460.526	-0.02
460.881	-0.04
461.236	-0.03
461.591	-0.03
461.946	-0.04
462.301	-0.04
462.655	-0.03
463.01	-0.05
463.365	-0.04
463.719	-0.05
464.074	-0.05
464.428	-0.06
464.783	-0.06
465.137	-0.06
465.492	-0.06
465.846	-0.07
466.201	-0.07
466.555	-0.06
466.909	-0.06
467.263	-0.06
467.618	-0.06
467.972	-0.06
468.326	-0.05
468.68	-0.07
469.034	-0.07
469.388	-0.07
469.742	-0.07
470.096	-0.07
470.45	-0.07
470.804	-0.06
471.157	-0.07
471.511	-0.07
471.865	-0.07
472.218	-0.07
472.572	-0.07
472.926	-0.06
473.279	-0.06
473.633	-0.06
473.986	-0.05
474.34	-0.06
474.693	-0.05
475.046	-0.05
475.4	-0.04
475.753	-0.04
476.106	-0.04
476.459	-0.04
476.812	-0.04
477.165	-0.03
477.519	-0.03
477.872	-0.02
478.224	-0.03
478.577	-0.02
478.93	-0.02
479.283	-0.02
479.636	-0.01
479.989	-0.02
480.341	-0.01
480.694	-0.01
481.047	-0.01
481.399	-0.01
481.752	-0.01
482.104	-0
482.457	-0
482.809	-0
483.162	-0
483.514	-0
483.866	-0
484.219	-0
484.571	-0
484.923	-0
485.275	-0
485.627	0
485.979	0
486.331	0.01
486.683	0.01
487.035	0.01
487.387	0
487.739	0.01
488.091	0.01
488.443	0.01
488.794	0.01
489.146	0.01
489.498	0.02
489.849	0.01
490.201	0.01
490.552	0.01
490.904	0.01
491.255	0.01
491.607	0.01
491.958	0.01
492.309	0.01
492.661	0.01
493.012	0.01
493.363	0.01
493.714	0.01
494.065	0.01
494.416	0.01
494.767	0.02
495.118	0.01
495.469	0.02
495.82	0.02
496.171	0.02
496.522	0.02
496.872	0.02
497.223	0.02
497.574	0.01
497.924	0.02
498.275	0.02
498.626	0.02
498.976	0.02
499.327	0.02
499.677	0.02
500.027	0.02
500.378	0.02
500.728	0.02
501.078	0.02
501.428	0.02
501.779	0.02
502.129	0.02
502.479	0.02
502.829	0.02
503.179	0.02
503.529	0.02
503.879	0.02
504.229	0.02
504.578	0.02
504.928	0.02
505.278	0.02
505.628	0.02
505.977	0.03
506.327	0.02
506.676	0.02
507.026	0.02
507.375	0.02
507.725	0.02
508.074	0.02
508.424	0.02
508.773	0.03
509.122	0.02
509.471	0.02
509.82	0.03
510.17	0.02
510.519	0.02
510.868	0.03
511.217	0.03
511.566	0.03
511.915	0.02
512.263	0.02
512.612	0.02
512.961	0.02
513.31	0.02
513.659	0.03
514.007	0.03
514.356	0.02
514.704	0.02
515.053	0.02
515.401	0.03
515.75	0.02
516.098	0.02
516.447	0.02
516.795	0.03
517.143	0.03
517.491	0.02
517.839	0.02
518.188	0.02
518.536	0.03
518.884	0.03
519.232	0.02
519.58	0.03
519.928	0.02
520.275	0.02
520.623	0.02
520.971	0.02
521.319	0.03
521.666	0.02
522.014	0.03
522.362	0.02
522.709	0.03
523.057	0.02
523.404	0.02
523.752	0.02
524.099	0.02
524.446	0.03
524.794	0.03
525.141	0.02
525.488	0.03
525.835	0.02
526.182	0.02
526.529	0.02
526.876	0.02
527.223	0.03
527.57	0.03
527.917	0.02
528.264	0.03
528.611	0.03
528.958	0.03
529.304	0.03
529.651	0.02
529.998	0.03
530.344	0.02
530.691	0.02
531.037	0.02
531.384	0.03
531.73	0.03
532.076	0.03
532.423	0.03
532.769	0.03
533.115	0.02
533.461	0.02
533.807	0.03
534.154	0.03
534.5	0.03
534.846	0.03
535.192	0.03
535.537	0.02
535.883	0.03
536.229	0.03
536.575	0.02
536.921	0.03
537.266	0.03
537.612	0.03
537.957	0.03
538.303	0.03
538.649	0.02
538.994	0.02
539.339	0.03
539.685	0.02
540.03	0.03
540.375	0.03
540.721	0.03
541.066	0.02
541.411	0.03
541.756	0.02
542.101	0.03
542.446	0.03
542.791	0.03
543.136	0.03
543.481	0.03
543.825	0.03
544.17	0.03
544.515	0.03
544.86	0.03
545.204	0.03
545.549	0.03
545.893	0.03
546.238	0.03
546.582	0.03
546.927	0.03
547.271	0.03
547.615	0.03
547.96	0.02
548.304	0.03
548.648	0.03
548.992	0.02
549.336	0.02
549.68	0.02
550.024	0.03
550.368	0.03
550.712	0.03
551.056	0.03
551.4	0.03
551.743	0.03
552.087	0.03
552.431	0.03
552.774	0.03
553.118	0.03
553.462	0.03
553.805	0.03
554.148	0.03
554.492	0.03
554.835	0.02
555.178	0.03
555.522	0.02
555.865	0.03
556.208	0.03
556.551	0.03
556.894	0.03
557.237	0.03
557.58	0.03
557.923	0.03
558.266	0.02
558.609	0.03
558.952	0.03
559.294	0.03
559.637	0.02
559.98	0.03
560.322	0.03
560.665	0.03
561.007	0.03
561.35	0.02
561.692	0.03
562.034	0.02
562.377	0.02
562.719	0.02
563.061	0.03
563.403	0.03
563.745	0.02
564.088	0.03
564.43	0.03
564.772	0.02
565.113	0.03
565.455	0.02
565.797	0.03
566.139	0.03
566.481	0.03
566.822	0.03
567.164	0.03
567.506	0.03
567.847	0.03
568.189	0.03
568.53	0.03
568.872	0.03
569.213	0.02
569.554	0.02
569.895	0.02
570.237	0.02
570.578	0.02
570.919	0.02
571.26	0.02
571.601	0.02
571.942	0.03
572.283	0.03
572.624	0.02
572.965	0.02
573.306	0.02
573.646	0.02
573.987	0.02
574.328	0.02
574.668	0.02
575.009	0.02
575.349	0.02
575.69	0.02
576.03	0.02
576.37	0.02
576.711	0.02
577.051	0.02
577.391	0.02
577.731	0.02
578.072	0.02
578.412	0.02
578.752	0.02
579.092	0.02
579.431	0.02
579.771	0.02
580.111	0.02
580.451	0.02
580.791	0.02
581.13	0.03
581.47	0.02
581.81	0.02
582.149	0.02
582.489	0.02
582.828	0.02
583.167	0.02
583.507	0.01
583.846	0.01
584.185	0.01
584.525	0.02
584.864	0.02
585.203	0.02
585.542	0.02
585.881	0.02
586.22	0.02
586.559	0.02
586.898	0.02
587.236	0.02
587.575	0.02
587.914	0.02
588.252	0.02
588.591	0.02
588.93	0.02
589.268	0.02
589.607	0.02
589.945	0.02
590.283	0.02
590.622	0.02
590.96	0.03
591.298	0.02
591.636	0.02
591.974	0.02
592.313	0.02
592.651	0.03
592.989	0.03
593.326	0.02
593.664	0.02
594.002	0.02
594.34	0.02
594.678	0.02
595.015	0.02
595.353	0.02
595.691	0.02
596.028	0.02
596.366	0.02
596.703	0.02
597.04	0.02
597.378	0.02
597.715	0.02
598.052	0.02
598.389	0.02
598.726	0.03
599.064	0.02
599.401	0.02
599.738	0.02
600.074	0.02
600.411	0.02
600.748	0.02
601.085	0.02
601.422	0.02
601.758	0.02
602.095	0.02
602.432	0.02
602.768	0.02
603.105	0.02
603.441	0.02
603.777	0.03
604.114	0.02
604.45	0.03
604.786	0.02
605.122	0.02
605.459	0.02
605.795	0.02
606.131	0.02
606.467	0.02
606.803	0.03
607.139	0.03
607.474	0.02
607.81	0.02
608.146	0.02
608.482	0.02
608.817	0.02
609.153	0.02
609.488	0.02
609.824	0.02
610.159	0.02
610.495	0.02
610.83	0.02
611.165	0.02
611.5	0.02
611.836	0.02
612.171	0.02
612.506	0.02
612.841	0.02
613.176	0.02
613.511	0.02
613.845	0.02
614.18	0.02
614.515	0.02
614.85	0.02
615.184	0.02
615.519	0.02
615.854	0.02
616.188	0.02
616.523	0.02
616.857	0.02
617.191	0.02
617.526	0.02
617.86	0.02
618.194	0.02
618.528	0.02
618.862	0.02
619.196	0.02
619.53	0.02
619.864	0.02
620.198	0.02
620.532	0.02
620.866	0.02
621.2	0.02
621.533	0.02
621.867	0.02
622.201	0.02
622.534	0.03
622.868	0.02
623.201	0.02
623.534	0.02
623.868	0.02
624.201	0.02
624.534	0.02
624.868	0.03
625.201	0.03
625.534	0.02
625.867	0.03
626.2	0.02
626.533	0.02
626.865	0.02
627.198	0.02
627.531	0.03
627.864	0.02
628.196	0.02
628.529	0.02
628.862	0.02
629.194	0.02
629.527	0.02
629.859	0.02
630.191	0.02
630.524	0.02
630.856	0.03
631.188	0.02
631.52	0.02
631.852	0.02
632.184	0.02
632.516	0.03
632.848	0.02
633.18	0.02
633.512	0.02
633.844	0.02
634.175	0.02
634.507	0.02
634.839	0.02
635.17	0.02
635.502	0.02
635.833	0.02
636.165	0.03
636.496	0.03
636.827	0.03
637.159	0.03
637.49	0.03
637.821	0.02
638.152	0.02
638.483	0.02
638.814	0.02
639.145	0.02
639.476	0.02
639.807	0.02
640.137	0.02
640.468	0.02
640.799	0.02
641.129	0.02
641.46	0.02
641.791	0.02
642.121	0.02
642.451	0.02
642.782	0.02
643.112	0.02
643.442	0.03
643.773	0.02
644.103	0.02
644.433	0.03
644.763	0.02
645.093	0.02
645.423	0.02
645.753	0.02
646.082	0.02
646.412	0.02
646.742	0.02
647.072	0.02
647.401	0.02
647.731	0.02
648.06	0.02
648.39	0.02
648.719	0.02
649.048	0.02
649.378	0.02
649.707	0.03
650.036	0.02
650.365	0.02
650.694	0.02
651.023	0.03
651.352	0.03
651.681	0.03
652.01	0.03
652.339	0.03
652.668	0.03
652.996	0.03
653.325	0.03
653.654	0.03
653.982	0.03
654.311	0.03
654.639	0.03
654.967	0.03
655.296	0.02
655.624	0.02
655.952	0.02
656.28	0.03
656.609	0.02
656.937	0.03
657.265	0.02
657.593	0.01
657.92	-0
658.248	0
658.576	0
658.904	0
659.231	0
659.559	0.03
659.887	0.03
660.214	0.02
660.542	0.02
660.869	0.02
661.196	0.02
661.524	0.03
661.851	0.02
662.178	0.02
662.505	0.02
662.832	0.03
663.159	0.03
663.486	0.02
663.813	0.02
664.14	0.03
664.467	0.02
664.794	0.03
665.12	0.03
665.447	0.03
665.774	0.03
666.1	0.03
666.427	0.02
666.753	0.02
667.079	0.03
667.406	0.03
667.732	0.03
668.058	0.02
668.384	0.03
668.71	0.02
669.036	0.03
669.362	0.02
669.688	0.03
670.014	0.03
670.34	0.03
670.666	0.03
670.991	0.03
671.317	0.03
671.643	0.02
671.968	0.02
672.294	0.02
672.619	0.02
672.945	0.03
673.27	0.03
673.595	0.03
673.92	0.02
674.246	0.02
674.571	0.03
674.896	0.02
675.221	0.03
675.546	0.02
675.87	0.02
676.195	0.02
676.52	0.02
676.845	0.02
677.169	0.02
677.494	0.03
677.819	0.03
678.143	0.03
678.468	0.03
678.792	0.03
679.116	0.02
679.44	0.03
679.765	0.02
680.089	0.03
680.413	0.03
680.737	0.03
681.061	0.03
681.385	0.03
681.709	0.03
682.033	0.03
682.356	0.03
682.68	0.03
683.004	0.02
683.327	0.02
683.651	0.02
683.974	0.02
684.298	0.02
684.621	0.02
684.944	0.02
685.268	0.02
685.591	0.02
685.914	0.02
686.237	0.02
686.56	0.03
686.883	0.03
687.206	0.03
687.529	0.03
687.852	0.03
688.175	0.03
688.497	0.03
688.82	0.02
689.142	0.02
689.465	0.02
689.787	0.03
690.11	0.02
690.432	0.02
690.755	0.02
691.077	0.02
691.399	0.02
691.721	0.02
692.043	0.02
692.365	0.02
692.687	0.02
693.009	0.02
693.331	0.02
693.653	0.02
693.974	0.02
694.296	0.02
694.618	0.02
694.939	0.02
695.261	0.02
695.582	0.02
695.904	0.02
696.225	0.02
696.546	0.02
696.868	0.03
697.189	0.03
697.51	0.03
697.831	0.03
698.152	0.03
698.473	0.02
698.794	0.02
699.114	0.02
699.435	0.02
699.756	0.02
700.077	0.02
700.397	0.03
700.718	0.03
701.038	0.02
701.359	0.03
701.679	0.02
701.999	0.02
702.32	0.02
702.64	0.02
702.96	0.03
703.28	0.02
703.6	0.03
703.92	0.03
704.24	0.03
704.56	0.03
704.879	0.03
705.199	0.03
705.519	0.03
705.838	0.03
706.158	0.03
706.478	0.03
706.797	0.03
707.116	0.02
707.436	0.03
707.755	0.03
708.074	0.02
708.393	0.02
708.712	0.02
709.031	0.02
709.35	0.02
709.669	0.02
709.988	0.02
710.307	0.02
710.626	0.02
710.944	0.02
711.263	0.02
711.582	0.02
711.9	0.02
712.219	0.02
712.537	0.02
712.855	0.02
713.174	0.02
713.492	0.02
713.81	0.03
714.128	0.03
714.446	0.02
714.764	0.02
715.082	0.02
715.4	0.02
715.718	0.02
716.035	0.02
716.353	0.02
716.671	0.02
716.988	0.02
717.306	0.02
717.623	0.02
717.941	0.02
718.258	0.02
718.575	0.02
718.893	0.02
719.21	0.02
719.527	0.02
719.844	0.02
720.161	0.02
720.478	0.02
720.795	0.02
721.112	0.02
721.428	0.02
721.745	0.02
722.062	0.02
722.378	0.02
722.695	0.02
723.011	0.02
723.328	0.02
723.644	0.03
723.96	0.02
724.276	0.02
724.593	0.02
724.909	0.03
725.225	0.03
725.541	0.03
725.857	0.02
726.173	0.02
726.488	0.02
726.804	0.02
727.12	0.02
727.435	0.02
727.751	0.02
728.067	0.02
728.382	0.02
728.697	0.02
729.013	0.02
729.328	0.02
729.643	0.02
729.958	0.02
730.273	0.02
730.588	0.02
730.903	0.02
731.218	0.02
731.533	0.02
731.848	0.02
732.163	0.02
732.477	0.02
732.792	0.02
733.107	0.03
733.421	0.02
733.736	0.02
734.05	0.02
734.364	0.02
734.678	0.02
734.993	0.02
735.307	0.02
735.621	0.02
735.935	0.02
736.249	0.02
736.563	0.02
736.877	0.02
737.19	0.02
737.504	0.02
737.818	0.02
738.131	0.03
738.445	0.03
738.758	0.03
739.072	0.03
739.385	0.03
739.698	0.03
740.012	0.03
740.325	0.03
740.638	0.03
740.951	0.03
741.264	0.03
741.577	0.03
741.89	0.03
742.203	0.03
742.515	0.03
742.828	0.03
743.141	0.03
743.453	0.04
743.766	0.03
744.078	0.03
744.391	0.03
744.703	0.03
745.015	0.03
745.327	0.03
745.639	0.03
745.952	0.02
746.264	0.02
746.575	0.02
746.887	0.02
747.199	0.02
747.511	0.02
747.823	0.02
748.134	0.02
748.446	0.02
748.757	0.02
749.069	0.02
749.38	0.02
749.692	0.02
750.003	0.02
750.314	0.02
750.625	0.02
750.936	0.02
751.248	0.02
751.559	0.02
751.869	0.02
752.18	0.03
752.491	0.03
752.802	0.03
753.112	0.03
753.423	0.02
753.734	0.02
754.044	0.03
754.355	0.02
754.665	0.03
754.975	0.03
755.285	0.03
755.596	0.03
755.906	0.03
756.216	0.02
756.526	0.02
756.836	0.02
757.146	0.02
757.455	0.02
757.765	0.03
758.075	0.03
758.385	0.03
758.694	0.03
759.004	0.03
759.313	0.03
759.622	0.03
759.932	0.03
760.241	0.03
760.55	0.02
760.859	0.02
761.168	0.02
761.477	0.02
761.786	0.03
762.095	0.02
762.404	0.02
762.713	0.02
763.021	0.02
763.33	0.02
763.639	0.02
763.947	0.02
764.256	0.02
764.564	0.02
764.872	0.02
765.181	0.02
765.489	0.02
765.797	0.02
766.105	0.02
766.413	0.02
766.721	0.03
767.029	0.03
767.337	0.03
767.644	0.03
767.952	0.02
768.26	0.02
768.567	0.02
768.875	0.02
769.182	0.03
769.49	0.02
769.797	0.02
770.104	0.02
770.411	0.02
770.718	0.03
771.026	0.03
771.333	0.03
771.639	0.02
771.946	0.02
772.253	0.02
772.56	0.02
772.867	0.02
773.173	0.02
773.48	0.02
773.786	0.02
774.093	0.02
774.399	0.02
774.705	0.02
775.012	0.03
775.318	0.02
775.624	0.03
775.93	0.03
776.236	0.03
776.542	0.03
776.848	0.03
777.154	0.02
777.459	0.02
777.765	0.02
778.071	0.02
778.376	0.02
778.682	0.02
778.987	0.02
779.292	0.03
779.598	0.02
779.903	0.02
780.208	0.03
780.513	0.03
780.818	0.03
781.123	0.03
781.428	0.03
781.733	0.02
782.038	0.03
782.343	0.03
782.647	0.03
782.952	0.03
783.256	0.03
783.561	0.03
783.865	0.03
784.17	0.03
784.474	0.03
784.778	0.03
785.082	0.03
785.386	0.04
785.69	0.03
785.994	0.03
786.298	0.03
786.602	0.03
786.906	0.03
787.209	0.03
787.513	0.03
787.817	0.03
788.12	0.03
788.424	0.03
788.727	0.03
789.03	0.03
789.333	0.02
789.637	0.02
789.94	0.03
790.243	0.02
790.546	0.03
790.849	0.02
791.152	0.03
791.454	0.03
791.757	0.03
792.06	0.03
792.362	0.03
792.665	0.03
792.967	0.03
793.27	0.03
793.572	0.03
793.874	0.03
794.177	0.04
794.479	0.03
794.781	0.03
795.083	0.03
795.385	0.02
795.687	0.02
795.989	0.03
796.29	0.02
796.592	0.03
796.894	0.02
797.195	0.02
797.497	0.02
797.798	0.02
798.1	0.01
798.401	0.01
798.702	0.01
799.003	0.01
799.304	0.02
799.605	0.02
799.906	0.03
800.207	0.03
800.508	0.03
800.809	0.03
801.11	0.03
801.41	0.03
801.711	0.03
802.011	0.03
802.312	0.03
802.612	0.03
802.913	0.02
803.213	0.02
803.513	0.02
803.813	0.02
804.113	0.03
804.413	0.03
804.713	0.03
805.013	0.04
805.313	0.04
805.613	0.04
805.912	0.03
806.212	0.03
806.511	0.04
806.811	0.03
807.11	0.03
807.41	0.02
807.709	0.03
808.008	0.03
808.307	0.03
808.606	0.03
808.905	0.03
809.204	0.03
809.503	0.03
809.802	0.03
810.101	0.03
810.399	0.02
810.698	0.03
810.997	0.03
811.295	0.02
811.593	0.02
811.892	0.02
812.19	0.03
812.488	0.03
812.786	0.03
813.084	0.03
813.383	0.03
813.68	0.03
813.978	0.04
814.276	0.04
814.574	0.04
814.872	0.04
815.169	0.04
815.467	0.03
815.764	0.04
816.062	0.04
816.359	0.04
816.656	0.04
816.954	0.03
817.251	0.03
817.548	0.04
817.845	0.03
818.142	0.03
818.439	0.04
818.735	0.03
819.032	0.03
819.329	0.03
819.626	0.03
819.922	0.04
820.219	0.03
820.515	0.04
820.811	0.04
821.108	0.04
821.404	0.04
821.7	0.04
821.996	0.04
822.292	0.04
822.588	0.04
822.884	0.04
823.18	0.04
823.475	0.04
823.771	0.03
824.067	0.03
824.362	0.03
824.658	0.03
824.953	0.04
825.249	0.03
825.544	0.04
825.839	0.04
826.134	0.03
826.429	0.04
826.724	0.03
827.019	0.03
827.314	0.03
827.609	0.03
827.904	0.03
828.198	0.04
828.493	0.04
828.787	0.04
829.082	0.04
829.376	0.04
829.671	0.03
829.965	0.04
830.259	0.04
830.553	0.04
830.847	0.04
831.141	0.04
831.435	0.04
831.729	0.04
832.023	0.03
832.317	0.03
832.61	0.03
832.904	0.03
833.197	0.03
833.491	0.04
833.784	0.03
834.077	0.04
834.371	0.04
834.664	0.04
834.957	0.04
835.25	0.04
835.543	0.04
835.836	0.03
836.129	0.04
836.421	0.03
836.714	0.03
837.007	0.04
837.299	0.03
837.592	0.04
837.884	0.03
838.177	0.04
838.469	0.04
838.761	0.03
839.053	0.05
839.345	0.04
839.637	0.05
839.929	0.04
840.221	0.04
840.513	0.05
840.805	0.03
841.096	0.04
841.388	0.04
841.68	0.05
841.971	0.04
842.262	0.03
842.554	0.04
842.845	0.03
843.136	0.05
843.427	0.02
843.718	0.03
844.009	0.04
844.3	0.04
844.591	0.04
844.882	0.05
845.173	0.05
845.463	0.05
845.754	0.05
846.044	0.04
846.335	0.04
846.625	0.04
846.915	0.04
847.206	0.04
847.496	0.03
847.786	0.04
848.076	0.03
848.366	0.03
848.656	0.03
848.945	0.04
849.235	0.04
849.525	0.05
849.814	0.04
850.104	0.04
850.393	0.04
850.683	0.04
850.972	0.02
851.261	0.01
851.551	0.03
851.84	0.02
852.129	0.04
852.418	0.02
852.707	0.03
852.995	0.03
853.284	0.02
853.573	0.04
853.862	0.04
854.15	0.04
854.439	0.04
854.727	0.04
855.015	0.03
855.304	0.04
855.592	0.04
855.88	0.03
856.168	0.03
856.456	0.02
856.744	0.04
857.032	0.02
857.32	0.04
857.607	0.03
857.895	0.03
858.183	0.04
858.47	0.02
858.757	0.03
859.045	0.04
859.332	0.04
859.619	0.03
859.907	0.04
860.194	0.03
860.481	0.02
860.768	0.03
861.054	0.03
861.341	0.02
861.628	0.05
861.915	0.05
862.201	0.04
862.488	0.01
862.774	0.02
863.061	0.03
863.347	0.04
863.633	0.02
863.919	-0
864.205	0.01
864.491	0.04
864.777	0.03
865.063	0.02
865.349	0
865.635	0.02
865.92	0.02
866.206	0.02
866.492	0
866.777	0.04
867.062	0.03
867.348	0.04
867.633	0.04
867.918	0.03
868.203	0.01
868.488	0.05
868.773	0.04
869.058	0.04
869.343	0.01
869.628	0.03
869.912	0.01
870.197	0
870.482	-0
870.766	0.02
871.05	0.01
871.335	0.04
871.619	0.03
871.903	0.01
872.187	0
872.471	-0
872.755	0.02
873.039	0.03
873.323	0.02
873.607	0.05
873.89	0
874.174	0.01
874.458	0.01
874.741	0.02
875.024	0.03
875.308	-0.01
875.591	-0.03
875.874	-0
876.157	-0.02
876.44	-0.05
876.723	-0.01
877.006	0.04
877.289	0.02
877.572	0.04
877.854	0.01
878.137	0.07
878.42	0.02
878.702	-0
878.984	0.06
879.267	0.02
879.549	-0.02
879.831	0.06
880.113	-0.02
880.395	0.06
880.677	0.03
880.959	0.08
