Data from Rubpy_EV_900_EDTA_Absorbance_12-33-56-065.txt Node
Date: Mon Jun 29 12:33:56 BST 2026
User: fpm-admin
Spectrometer: OFX00224
Trigger mode: 0
Integration Time (sec): 7.000000E-2
Scans to average: 3
Nonlinearity correction enabled: false
Boxcar width: 0
Storing dark spectrum: false
XAxis mode: Wavelengths
Number of Pixels in Spectrum: 2136
>>>>>Begin Spectral Data<<<<<
154.91	-0
155.289	-0
155.669	-0
156.048	1.19
156.428	-0
156.807	-0.15
157.186	-0
157.566	-0.33
157.945	0.98
158.325	-0.04
158.704	-0.37
159.083	-0.52
159.462	-0
159.842	-0.17
160.221	0.29
160.6	1.02
160.979	0.15
161.359	-0.1
161.738	-0
162.117	0.3
162.496	-0
162.875	0.28
163.254	-0
163.633	-0.52
164.012	-0
164.391	0.38
164.77	-0.26
165.149	-0
165.528	0.4
165.907	-0.6
166.286	-0.21
166.665	-0
167.044	0.04
167.423	-0.32
167.802	-0
168.181	-0.78
168.559	0.08
168.938	0.27
169.317	-0
169.696	-0.26
170.074	0.43
170.453	-0.18
170.832	-0.85
171.21	-0.12
171.589	-0.32
171.968	-0.23
172.346	0.62
172.725	-0
173.103	0.27
173.482	1.06
173.861	-0.12
174.239	0.28
174.617	-0
174.996	0.3
175.374	1.01
175.753	-0.3
176.131	-0.12
176.51	-0.07
176.888	-0.24
177.266	-0.25
177.645	0.02
178.023	0.46
178.401	-0.27
178.779	-0.06
179.158	-0.3
179.536	-0
179.914	-0
180.292	-0
180.67	0.11
181.048	-0
181.427	-0.95
181.805	-0
182.183	-0
182.561	-0
182.939	-0.83
183.317	-0.16
183.695	0.06
184.073	1.3
184.451	0.03
184.829	-0.5
185.206	-0
185.584	-0.02
185.962	-0
186.34	0.05
186.718	-0.8
187.096	-0
187.473	0.7
187.851	-0
188.229	-0
188.607	0.07
188.984	0.04
189.362	0.03
189.74	-0.02
190.117	0.09
190.495	-0
190.872	0.04
191.25	0.07
191.627	0.02
192.005	-0.02
192.382	0.1
192.76	0.13
193.137	0.04
193.515	0.04
193.892	0.08
194.269	0.07
194.647	0.08
195.024	-0.01
195.401	-0.07
195.779	0.01
196.156	-0
196.533	0.19
196.91	0.01
197.288	0.16
197.665	-0.05
198.042	0.11
198.419	0.08
198.796	-0.02
199.173	-0.05
199.55	0.14
199.927	0.05
200.304	0.1
200.681	-0.01
201.058	0.17
201.435	0.06
201.812	0.2
202.189	0.09
202.566	0.06
202.943	0.12
203.32	0.06
203.697	-0.01
204.073	-0.05
204.45	-0.03
204.827	-0.03
205.204	0.03
205.58	0.16
205.957	0.09
206.334	0.05
206.71	0.1
207.087	-0.01
207.464	0.03
207.84	0.07
208.217	-0.03
208.593	0.05
208.97	0.07
209.346	0.12
209.723	0.17
210.099	0.06
210.476	0.05
210.852	0.08
211.228	0.09
211.605	-0.05
211.981	0.11
212.357	0.09
212.733	0.11
213.11	0.05
213.486	0.06
213.862	0.02
214.238	0.01
214.614	0.07
214.991	0.05
215.367	0.14
215.743	0.1
216.119	0.07
216.495	0.03
216.871	0.08
217.247	-0.02
217.623	-0.03
217.999	0.13
218.375	0.06
218.751	-0.01
219.127	-0
219.502	0.09
219.878	-0.05
220.254	0.02
220.63	0.19
221.006	0.14
221.381	0.02
221.757	0.03
222.133	-0.02
222.508	0.08
222.884	0.06
223.26	-0.03
223.635	0.09
224.011	0.06
224.386	-0.01
224.762	0.04
225.137	0.04
225.513	0.05
225.888	0.04
226.264	0.08
226.639	0.01
227.014	0.06
227.39	-0.01
227.765	0.01
228.14	0.04
228.516	0.07
228.891	0
229.266	0.1
229.641	0.04
230.017	0.26
230.392	-0.02
230.767	-0.03
231.142	-0
231.517	0.11
231.892	0.08
232.267	0.03
232.642	0.11
233.017	0.08
233.392	-0
233.767	0.02
234.142	0.01
234.517	0.03
234.892	0.02
235.267	0.11
235.641	0.02
236.016	0.09
236.391	0.12
236.766	0.05
237.14	0.06
237.515	0.06
237.89	0.09
238.264	0.19
238.639	0.01
239.014	0.02
239.388	0.04
239.763	-0.06
240.137	0.03
240.512	0.01
240.886	0.11
241.261	0.04
241.635	0.1
242.009	0.01
242.384	0.05
242.758	0.17
243.132	0.07
243.507	0.05
243.881	0.09
244.255	0.15
244.629	0.1
245.004	0.14
245.378	0.09
245.752	0.02
246.126	-0.04
246.5	0.11
246.874	0.07
247.248	0.04
247.622	0.09
247.996	0.05
248.37	-0.01
248.744	0
249.118	0.05
249.492	0
249.866	-0
250.24	0.14
250.613	-0.02
250.987	0.04
251.361	0.1
251.735	0.08
252.108	0.03
252.482	0.06
252.856	0.03
253.229	0.11
253.603	0.11
253.977	-0.02
254.35	0.01
254.724	0.06
255.097	0.01
255.471	0.02
255.844	0.09
256.218	0.1
256.591	0.05
256.964	0.05
257.338	0.07
257.711	0.05
258.084	0.07
258.458	0.01
258.831	0.09
259.204	-0.01
259.577	0.07
259.95	0.04
260.323	0.08
260.697	0.07
261.07	0.08
261.443	0.07
261.816	0.09
262.189	0.07
262.562	0.05
262.935	0.01
263.308	0.06
263.68	0.13
264.053	0.12
264.426	0.07
264.799	-0.04
265.172	0.04
265.545	0.11
265.917	0
266.29	0.11
266.663	0.02
267.035	0.04
267.408	0.02
267.781	0.02
268.153	0.16
268.526	0.07
268.898	0.11
269.271	0.06
269.643	0.04
270.016	0.07
270.388	0.1
270.76	0.04
271.133	0.08
271.505	0.08
271.877	-0.01
272.25	-0.02
272.622	0.04
272.994	0.09
273.366	0.04
273.739	0.1
274.111	0.06
274.483	0.1
274.855	-0.01
275.227	0.02
275.599	0.08
275.971	0.12
276.343	0.09
276.715	0.11
277.087	0.13
277.459	0.04
277.831	0.08
278.203	0.06
278.574	0.11
278.946	0.06
279.318	0.02
279.69	0.05
280.061	0.09
280.433	0.1
280.805	0.13
281.176	0.05
281.548	0.13
281.92	0.14
282.291	0.11
282.663	0.04
283.034	0.07
283.406	0.09
283.777	0.08
284.148	0.07
284.52	0.02
284.891	0.07
285.262	0.08
285.634	0.04
286.005	0.08
286.376	0.06
286.747	0.07
287.119	0.12
287.49	0.1
287.861	0.06
288.232	0.1
288.603	0.05
288.974	0.14
289.345	0.04
289.716	0.04
290.087	0.01
290.458	-0.01
290.829	0.04
291.2	0.07
291.571	0.04
291.941	0.12
292.312	0.12
292.683	0.07
293.054	-0.01
293.424	-0.04
293.795	0.06
294.166	0.05
294.536	0.08
294.907	0.09
295.277	0.07
295.648	0.02
296.018	0.03
296.389	0.06
296.759	0.02
297.13	0.03
297.5	-0
297.871	0.04
298.241	0.05
298.611	0.05
298.981	-0.01
299.352	0.05
299.722	0.05
300.092	0.01
300.462	0.02
300.832	0.03
301.202	0.02
301.573	0.02
301.943	0.01
302.313	0.01
302.683	-0.01
303.053	-0
303.422	0.01
303.792	0.02
304.162	0.02
304.532	0.02
304.902	0.01
305.272	0.02
305.641	0.01
306.011	0.01
306.381	0.01
306.75	0.02
307.12	0.02
307.49	0.02
307.859	0.02
308.229	0.03
308.598	0.03
308.968	0.03
309.337	0.03
309.707	0.03
310.076	0.03
310.445	0.04
310.815	0.03
311.184	0.03
311.553	0.04
311.923	0.03
312.292	0.03
312.661	0.04
313.03	0.03
313.399	0.03
313.768	0.03
314.137	0.04
314.506	0.04
314.875	0.03
315.244	0.03
315.613	0.04
315.982	0.03
316.351	0.04
316.72	0.03
317.089	0.03
317.458	0.04
317.826	0.03
318.195	0.03
318.564	0.04
318.933	0.03
319.301	0.03
319.67	0.03
320.038	0.03
320.407	0.03
320.775	0.03
321.144	0.04
321.512	0.03
321.881	0.03
322.249	0.04
322.618	0.03
322.986	0.03
323.354	0.03
323.723	0.03
324.091	0.03
324.459	0.03
324.827	0.03
325.195	0.03
325.564	0.04
325.932	0.03
326.3	0.03
326.668	0.04
327.036	0.03
327.404	0.03
327.772	0.03
328.14	0.03
328.508	0.03
328.875	0.03
329.243	0.03
329.611	0.03
329.979	0.03
330.346	0.04
330.714	0.04
331.082	0.04
331.449	0.03
331.817	0.03
332.185	0.03
332.552	0.03
332.92	0.03
333.287	0.03
333.655	0.03
334.022	0.03
334.389	0.03
334.757	0.04
335.124	0.04
335.491	0.04
335.859	0.04
336.226	0.04
336.593	0.04
336.96	0.04
337.327	0.04
337.695	0.04
338.062	0.04
338.429	0.04
338.796	0.04
339.163	0.04
339.53	0.05
339.897	0.05
340.263	0.05
340.63	0.05
340.997	0.05
341.364	0.05
341.731	0.05
342.097	0.05
342.464	0.05
342.831	0.05
343.197	0.06
343.564	0.06
343.931	0.06
344.297	0.06
344.664	0.06
345.03	0.06
345.396	0.06
345.763	0.06
346.129	0.06
346.496	0.06
346.862	0.06
347.228	0.07
347.594	0.07
347.961	0.07
348.327	0.07
348.693	0.07
349.059	0.07
349.425	0.07
349.791	0.07
350.157	0.08
350.523	0.08
350.889	0.08
351.255	0.08
351.621	0.09
351.987	0.09
352.353	0.09
352.719	0.09
353.084	0.09
353.45	0.09
353.816	0.1
354.181	0.1
354.547	0.1
354.913	0.1
355.278	0.1
355.644	0.11
356.009	0.11
356.375	0.11
356.74	0.12
357.106	0.12
357.471	0.12
357.836	0.13
358.202	0.12
358.567	0.13
358.932	0.13
359.297	0.14
359.663	0.13
360.028	0.14
360.393	0.14
360.758	0.14
361.123	0.14
361.488	0.14
361.853	0.15
362.218	0.15
362.583	0.15
362.948	0.16
363.312	0.15
363.677	0.15
364.042	0.16
364.407	0.17
364.772	0.17
365.136	0.17
365.501	0.18
365.865	0.18
366.23	0.18
366.595	0.19
366.959	0.19
367.324	0.19
367.688	0.2
368.052	0.21
368.417	0.21
368.781	0.21
369.145	0.21
369.51	0.22
369.874	0.22
370.238	0.22
370.602	0.22
370.967	0.22
371.331	0.22
371.695	0.22
372.059	0.22
372.423	0.21
372.787	0.22
373.151	0.22
373.515	0.22
373.878	0.22
374.242	0.22
374.606	0.22
374.97	0.22
375.334	0.22
375.697	0.22
376.061	0.22
376.425	0.23
376.788	0.22
377.152	0.23
377.515	0.23
377.879	0.23
378.242	0.24
378.606	0.23
378.969	0.24
379.333	0.24
379.696	0.25
380.059	0.25
380.422	0.26
380.786	0.26
381.149	0.27
381.512	0.27
381.875	0.28
382.238	0.28
382.601	0.29
382.964	0.3
383.327	0.31
383.69	0.31
384.053	0.32
384.416	0.33
384.779	0.34
385.142	0.35
385.504	0.35
385.867	0.36
386.23	0.36
386.593	0.36
386.955	0.37
387.318	0.37
387.68	0.37
388.043	0.37
388.405	0.36
388.768	0.36
389.13	0.36
389.493	0.36
389.855	0.35
390.217	0.35
390.58	0.35
390.942	0.35
391.304	0.36
391.666	0.36
392.028	0.36
392.391	0.37
392.753	0.38
393.115	0.4
393.477	0.41
393.839	0.42
394.201	0.44
394.563	0.46
394.924	0.48
395.286	0.5
395.648	0.51
396.01	0.53
396.371	0.55
396.733	0.56
397.095	0.57
397.456	0.58
397.818	0.57
398.18	0.58
398.541	0.57
398.903	0.56
399.264	0.54
399.625	0.52
399.987	0.5
400.348	0.48
400.709	0.46
401.071	0.44
401.432	0.41
401.793	0.38
402.154	0.36
402.515	0.34
402.876	0.31
403.238	0.29
403.599	0.27
403.96	0.26
404.32	0.24
404.681	0.22
405.042	0.21
405.403	0.19
405.764	0.18
406.125	0.17
406.485	0.16
406.846	0.15
407.207	0.14
407.567	0.13
407.928	0.13
408.288	0.12
408.649	0.11
409.009	0.11
409.37	0.11
409.73	0.1
410.091	0.1
410.451	0.09
410.811	0.09
411.171	0.08
411.532	0.08
411.892	0.08
412.252	0.07
412.612	0.07
412.972	0.07
413.332	0.06
413.692	0.07
414.052	0.06
414.412	0.06
414.772	0.06
415.132	0.06
415.492	0.05
415.851	0.05
416.211	0.05
416.571	0.06
416.931	0.06
417.29	0.05
417.65	0.05
418.009	0.05
418.369	0.05
418.728	0.05
419.088	0.05
419.447	0.05
419.807	0.05
420.166	0.05
420.525	0.05
420.884	0.04
421.244	0.05
421.603	0.04
421.962	0.04
422.321	0.04
422.68	0.04
423.039	0.04
423.398	0.04
423.757	0.04
424.116	0.04
424.475	0.04
424.834	0.05
425.193	0.04
425.551	0.04
425.91	0.04
426.269	0.04
426.628	0.03
426.986	0.03
427.345	0.04
427.703	0.04
428.062	0.04
428.42	0.03
428.779	0.03
429.137	0.04
429.496	0.03
429.854	0.03
430.212	0.04
430.57	0.04
430.929	0.03
431.287	0.04
431.645	0.04
432.003	0.03
432.361	0.04
432.719	0.03
433.077	0.04
433.435	0.03
433.793	0.03
434.151	0.04
434.509	0.04
434.866	0.04
435.224	0.04
435.582	0.03
435.94	0.03
436.297	0.03
436.655	0.04
437.012	0.03
437.37	0.04
437.727	0.03
438.085	0.03
438.442	0.03
438.8	0.03
439.157	0.03
439.514	0.04
439.872	0.04
440.229	0.03
440.586	0.03
440.943	0.03
441.3	0.03
441.657	0.03
442.014	0.03
442.371	0.03
442.728	0.03
443.085	0.03
443.442	0.03
443.799	0.03
444.156	0.03
444.513	0.03
444.869	0.02
445.226	0.03
445.583	0.02
445.939	0.03
446.296	0.03
446.652	0.03
447.009	0.02
447.365	0.03
447.722	0.03
448.078	0.02
448.434	0.02
448.791	0.02
449.147	0.03
449.503	0.02
449.859	0.02
450.215	0.02
450.571	0.02
450.928	0.02
451.284	0.02
451.64	0.01
451.995	0.02
452.351	0.01
452.707	0.02
453.063	0.01
453.419	0.01
453.775	0.02
454.13	0.01
454.486	0.01
454.842	0.01
455.197	0.01
455.553	0
455.908	0
456.264	0
456.619	0
456.975	-0
457.33	-0
457.685	-0
458.04	-0.01
458.396	-0.01
458.751	-0.01
459.106	-0.01
459.461	-0.01
459.816	-0.02
460.171	-0.01
460.526	-0.01
460.881	-0.03
461.236	-0.02
461.591	-0.02
461.946	-0.04
462.301	-0.03
462.655	-0.03
463.01	-0.04
463.365	-0.04
463.719	-0.04
464.074	-0.05
464.428	-0.05
464.783	-0.06
465.137	-0.05
465.492	-0.05
465.846	-0.06
466.201	-0.06
466.555	-0.05
466.909	-0.05
467.263	-0.05
467.618	-0.06
467.972	-0.05
468.326	-0.05
468.68	-0.06
469.034	-0.06
469.388	-0.06
469.742	-0.06
470.096	-0.06
470.45	-0.06
470.804	-0.05
471.157	-0.06
471.511	-0.05
471.865	-0.06
472.218	-0.06
472.572	-0.06
472.926	-0.05
473.279	-0.05
473.633	-0.05
473.986	-0.05
474.34	-0.04
474.693	-0.04
475.046	-0.04
475.4	-0.03
475.753	-0.03
476.106	-0.03
476.459	-0.03
476.812	-0.03
477.165	-0.02
477.519	-0.02
477.872	-0.01
478.224	-0.01
478.577	-0.01
478.93	-0.01
479.283	-0.01
479.636	-0.01
479.989	-0
480.341	-0
480.694	0
481.047	0
481.399	0
481.752	0
482.104	0.01
482.457	0.01
482.809	0.01
483.162	0.01
483.514	0.01
483.866	0.02
484.219	0.01
484.571	0.02
484.923	0.02
485.275	0.01
485.627	0.02
485.979	0.02
486.331	0.02
486.683	0.02
487.035	0.02
487.387	0.02
487.739	0.02
488.091	0.03
488.443	0.03
488.794	0.03
489.146	0.03
489.498	0.03
489.849	0.03
490.201	0.03
490.552	0.03
490.904	0.03
491.255	0.03
491.607	0.03
491.958	0.03
492.309	0.03
492.661	0.03
493.012	0.03
493.363	0.03
493.714	0.03
494.065	0.03
494.416	0.04
494.767	0.04
495.118	0.03
495.469	0.04
495.82	0.04
496.171	0.04
496.522	0.04
496.872	0.04
497.223	0.04
497.574	0.04
497.924	0.04
498.275	0.04
498.626	0.04
498.976	0.05
499.327	0.04
499.677	0.05
500.027	0.05
500.378	0.05
500.728	0.05
501.078	0.05
501.428	0.05
501.779	0.05
502.129	0.05
502.479	0.05
502.829	0.05
503.179	0.05
503.529	0.05
503.879	0.05
504.229	0.05
504.578	0.06
504.928	0.06
505.278	0.05
505.628	0.06
505.977	0.06
506.327	0.06
506.676	0.06
507.026	0.06
507.375	0.06
507.725	0.06
508.074	0.06
508.424	0.06
508.773	0.06
509.122	0.06
509.471	0.06
509.82	0.06
510.17	0.06
510.519	0.06
510.868	0.07
511.217	0.06
511.566	0.07
511.915	0.06
512.263	0.06
512.612	0.07
512.961	0.07
513.31	0.06
513.659	0.07
514.007	0.07
514.356	0.07
514.704	0.07
515.053	0.06
515.401	0.07
515.75	0.07
516.098	0.07
516.447	0.07
516.795	0.07
517.143	0.07
517.491	0.07
517.839	0.08
518.188	0.07
518.536	0.08
518.884	0.07
519.232	0.07
519.58	0.08
519.928	0.07
520.275	0.08
520.623	0.08
520.971	0.08
521.319	0.08
521.666	0.08
522.014	0.08
522.362	0.08
522.709	0.08
523.057	0.08
523.404	0.08
523.752	0.08
524.099	0.08
524.446	0.08
524.794	0.08
525.141	0.08
525.488	0.09
525.835	0.08
526.182	0.08
526.529	0.09
526.876	0.09
527.223	0.09
527.57	0.09
527.917	0.09
528.264	0.09
528.611	0.09
528.958	0.09
529.304	0.09
529.651	0.09
529.998	0.09
530.344	0.09
530.691	0.09
531.037	0.09
531.384	0.09
531.73	0.09
532.076	0.1
532.423	0.09
532.769	0.1
533.115	0.1
533.461	0.1
533.807	0.11
534.154	0.1
534.5	0.1
534.846	0.1
535.192	0.1
535.537	0.1
535.883	0.11
536.229	0.11
536.575	0.1
536.921	0.1
537.266	0.11
537.612	0.11
537.957	0.1
538.303	0.11
538.649	0.11
538.994	0.11
539.339	0.11
539.685	0.11
540.03	0.11
540.375	0.11
540.721	0.11
541.066	0.11
541.411	0.12
541.756	0.11
542.101	0.12
542.446	0.12
542.791	0.12
543.136	0.12
543.481	0.12
543.825	0.12
544.17	0.12
544.515	0.12
544.86	0.12
545.204	0.12
545.549	0.13
545.893	0.13
546.238	0.13
546.582	0.13
546.927	0.13
547.271	0.13
547.615	0.13
547.96	0.13
548.304	0.13
548.648	0.13
548.992	0.13
549.336	0.13
549.68	0.13
550.024	0.13
550.368	0.14
550.712	0.14
551.056	0.14
551.4	0.14
551.743	0.14
552.087	0.14
552.431	0.14
552.774	0.14
553.118	0.14
553.462	0.14
553.805	0.14
554.148	0.14
554.492	0.14
554.835	0.14
555.178	0.14
555.522	0.14
555.865	0.14
556.208	0.15
556.551	0.14
556.894	0.14
557.237	0.15
557.58	0.14
557.923	0.15
558.266	0.14
558.609	0.15
558.952	0.15
559.294	0.15
559.637	0.15
559.98	0.15
560.322	0.15
560.665	0.15
561.007	0.15
561.35	0.15
561.692	0.15
562.034	0.14
562.377	0.15
562.719	0.15
563.061	0.15
563.403	0.15
563.745	0.15
564.088	0.15
564.43	0.16
564.772	0.15
565.113	0.15
565.455	0.15
565.797	0.15
566.139	0.16
566.481	0.16
566.822	0.15
567.164	0.16
567.506	0.16
567.847	0.16
568.189	0.16
568.53	0.16
568.872	0.15
569.213	0.15
569.554	0.16
569.895	0.15
570.237	0.15
570.578	0.16
570.919	0.15
571.26	0.15
571.601	0.16
571.942	0.16
572.283	0.16
572.624	0.16
572.965	0.15
573.306	0.15
573.646	0.15
573.987	0.16
574.328	0.15
574.668	0.16
575.009	0.15
575.349	0.15
575.69	0.16
576.03	0.15
576.37	0.15
576.711	0.15
577.051	0.15
577.391	0.15
577.731	0.15
578.072	0.15
578.412	0.15
578.752	0.16
579.092	0.15
579.431	0.15
579.771	0.14
580.111	0.15
580.451	0.15
580.791	0.15
581.13	0.16
581.47	0.16
581.81	0.15
582.149	0.16
582.489	0.16
582.828	0.15
583.167	0.15
583.507	0.14
583.846	0.12
584.185	0.13
584.525	0.14
584.864	0.15
585.203	0.16
585.542	0.16
585.881	0.16
586.22	0.16
586.559	0.16
586.898	0.16
587.236	0.16
587.575	0.16
587.914	0.16
588.252	0.16
588.591	0.17
588.93	0.17
589.268	0.16
589.607	0.16
589.945	0.17
590.283	0.17
590.622	0.17
590.96	0.18
591.298	0.17
591.636	0.17
591.974	0.17
592.313	0.18
592.651	0.18
592.989	0.18
593.326	0.18
593.664	0.18
594.002	0.18
594.34	0.18
594.678	0.17
595.015	0.17
595.353	0.17
595.691	0.17
596.028	0.18
596.366	0.18
596.703	0.18
597.04	0.18
597.378	0.18
597.715	0.18
598.052	0.19
598.389	0.19
598.726	0.19
599.064	0.19
599.401	0.18
599.738	0.19
600.074	0.19
600.411	0.19
600.748	0.19
601.085	0.19
601.422	0.18
601.758	0.18
602.095	0.18
602.432	0.19
602.768	0.19
603.105	0.19
603.441	0.19
603.777	0.19
604.114	0.2
604.45	0.2
604.786	0.19
605.122	0.2
605.459	0.19
605.795	0.19
606.131	0.19
606.467	0.19
606.803	0.19
607.139	0.19
607.474	0.19
607.81	0.19
608.146	0.18
608.482	0.19
608.817	0.19
609.153	0.18
609.488	0.18
609.824	0.19
610.159	0.19
610.495	0.19
610.83	0.19
611.165	0.19
611.5	0.19
611.836	0.19
612.171	0.19
612.506	0.18
612.841	0.19
613.176	0.19
613.511	0.19
613.845	0.18
614.18	0.18
614.515	0.19
614.85	0.18
615.184	0.18
615.519	0.18
615.854	0.18
616.188	0.18
616.523	0.18
616.857	0.17
617.191	0.17
617.526	0.18
617.86	0.18
618.194	0.18
618.528	0.18
618.862	0.18
619.196	0.18
619.53	0.18
619.864	0.18
620.198	0.18
620.532	0.18
620.866	0.17
621.2	0.18
621.533	0.17
621.867	0.18
622.201	0.17
622.534	0.18
622.868	0.18
623.201	0.18
623.534	0.17
623.868	0.17
624.201	0.17
624.534	0.17
624.868	0.17
625.201	0.17
625.534	0.17
625.867	0.17
626.2	0.17
626.533	0.17
626.865	0.17
627.198	0.17
627.531	0.17
627.864	0.16
628.196	0.16
628.529	0.17
628.862	0.16
629.194	0.16
629.527	0.16
629.859	0.16
630.191	0.16
630.524	0.16
630.856	0.16
631.188	0.16
631.52	0.16
631.852	0.16
632.184	0.15
632.516	0.15
632.848	0.14
633.18	0.15
633.512	0.15
633.844	0.15
634.175	0.15
634.507	0.14
634.839	0.14
635.17	0.15
635.502	0.15
635.833	0.15
636.165	0.15
636.496	0.15
636.827	0.15
637.159	0.15
637.49	0.14
637.821	0.14
638.152	0.14
638.483	0.13
638.814	0.13
639.145	0.13
639.476	0.13
639.807	0.13
640.137	0.13
640.468	0.13
640.799	0.13
641.129	0.13
641.46	0.13
641.791	0.13
642.121	0.13
642.451	0.13
642.782	0.13
643.112	0.12
643.442	0.13
643.773	0.13
644.103	0.12
644.433	0.12
644.763	0.12
645.093	0.12
645.423	0.12
645.753	0.12
646.082	0.12
646.412	0.12
646.742	0.12
647.072	0.11
647.401	0.11
647.731	0.12
648.06	0.11
648.39	0.11
648.719	0.11
649.048	0.12
649.378	0.11
649.707	0.12
650.036	0.11
650.365	0.11
650.694	0.11
651.023	0.12
651.352	0.12
651.681	0.12
652.01	0.12
652.339	0.12
652.668	0.12
652.996	0.12
653.325	0.12
653.654	0.12
653.982	0.12
654.311	0.12
654.639	0.11
654.967	0.11
655.296	0.11
655.624	0.11
655.952	0.11
656.28	0.11
656.609	0.11
656.937	0.11
657.265	0.1
657.593	0.09
657.92	0.04
658.248	0
658.576	0
658.904	0.01
659.231	0.07
659.559	0.11
659.887	0.12
660.214	0.11
660.542	0.11
660.869	0.11
661.196	0.11
661.524	0.11
661.851	0.11
662.178	0.11
662.505	0.11
662.832	0.11
663.159	0.11
663.486	0.11
663.813	0.11
664.14	0.11
664.467	0.11
664.794	0.11
665.12	0.11
665.447	0.11
665.774	0.11
666.1	0.11
666.427	0.11
666.753	0.11
667.079	0.11
667.406	0.11
667.732	0.11
668.058	0.11
668.384	0.11
668.71	0.11
669.036	0.11
669.362	0.11
669.688	0.11
670.014	0.11
670.34	0.11
670.666	0.11
670.991	0.11
671.317	0.11
671.643	0.1
671.968	0.1
672.294	0.1
672.619	0.1
672.945	0.11
673.27	0.1
673.595	0.1
673.92	0.1
674.246	0.1
674.571	0.1
674.896	0.1
675.221	0.1
675.546	0.1
675.87	0.1
676.195	0.09
676.52	0.09
676.845	0.09
677.169	0.09
677.494	0.1
677.819	0.1
678.143	0.1
678.468	0.09
678.792	0.09
679.116	0.09
679.44	0.1
679.765	0.09
680.089	0.09
680.413	0.09
680.737	0.1
681.061	0.1
681.385	0.1
681.709	0.09
682.033	0.09
682.356	0.09
682.68	0.09
683.004	0.08
683.327	0.08
683.651	0.08
683.974	0.08
684.298	0.08
684.621	0.08
684.944	0.08
685.268	0.08
685.591	0.08
685.914	0.07
686.237	0.08
686.56	0.08
686.883	0.08
687.206	0.07
687.529	0.08
687.852	0.07
688.175	0.08
688.497	0.08
688.82	0.08
689.142	0.07
689.465	0.07
689.787	0.07
690.11	0.07
690.432	0.07
690.755	0.07
691.077	0.07
691.399	0.07
691.721	0.07
692.043	0.07
692.365	0.06
692.687	0.06
693.009	0.06
693.331	0.06
693.653	0.06
693.974	0.06
694.296	0.06
694.618	0.06
694.939	0.06
695.261	0.06
695.582	0.06
695.904	0.06
696.225	0.06
696.546	0.06
696.868	0.06
697.189	0.06
697.51	0.06
697.831	0.06
698.152	0.06
698.473	0.06
698.794	0.06
699.114	0.06
699.435	0.06
699.756	0.05
700.077	0.06
700.397	0.06
700.718	0.06
701.038	0.06
701.359	0.06
701.679	0.05
701.999	0.05
702.32	0.05
702.64	0.05
702.96	0.05
703.28	0.05
703.6	0.05
703.92	0.05
704.24	0.06
704.56	0.06
704.879	0.06
705.199	0.06
705.519	0.06
705.838	0.05
706.158	0.05
706.478	0.05
706.797	0.05
707.116	0.05
707.436	0.05
707.755	0.05
708.074	0.05
708.393	0.05
708.712	0.05
709.031	0.05
709.35	0.05
709.669	0.05
709.988	0.05
710.307	0.05
710.626	0.05
710.944	0.05
711.263	0.05
711.582	0.05
711.9	0.04
712.219	0.05
712.537	0.04
712.855	0.05
713.174	0.05
713.492	0.05
713.81	0.05
714.128	0.05
714.446	0.05
714.764	0.05
715.082	0.05
715.4	0.05
715.718	0.05
716.035	0.04
716.353	0.04
716.671	0.05
716.988	0.05
717.306	0.05
717.623	0.05
717.941	0.05
718.258	0.05
718.575	0.04
718.893	0.04
719.21	0.05
719.527	0.04
719.844	0.05
720.161	0.05
720.478	0.05
720.795	0.05
721.112	0.05
721.428	0.05
721.745	0.05
722.062	0.05
722.378	0.05
722.695	0.05
723.011	0.05
723.328	0.05
723.644	0.05
723.96	0.05
724.276	0.05
724.593	0.05
724.909	0.06
725.225	0.06
725.541	0.05
725.857	0.05
726.173	0.05
726.488	0.05
726.804	0.05
727.12	0.05
727.435	0.05
727.751	0.05
728.067	0.05
728.382	0.05
728.697	0.05
729.013	0.05
729.328	0.05
729.643	0.05
729.958	0.05
730.273	0.05
730.588	0.05
730.903	0.05
731.218	0.05
731.533	0.05
731.848	0.05
732.163	0.05
732.477	0.05
732.792	0.05
733.107	0.05
733.421	0.05
733.736	0.05
734.05	0.05
734.364	0.05
734.678	0.05
734.993	0.05
735.307	0.05
735.621	0.05
735.935	0.05
736.249	0.05
736.563	0.05
736.877	0.05
737.19	0.05
737.504	0.05
737.818	0.05
738.131	0.06
738.445	0.05
738.758	0.05
739.072	0.06
739.385	0.06
739.698	0.06
740.012	0.05
740.325	0.05
740.638	0.06
740.951	0.06
741.264	0.06
741.577	0.06
741.89	0.06
742.203	0.05
742.515	0.05
742.828	0.06
743.141	0.06
743.453	0.06
743.766	0.06
744.078	0.06
744.391	0.05
744.703	0.05
745.015	0.05
745.327	0.05
745.639	0.04
745.952	0.04
746.264	0.04
746.575	0.04
746.887	0.04
747.199	0.04
747.511	0.04
747.823	0.03
748.134	0.04
748.446	0.04
748.757	0.04
749.069	0.03
749.38	0.03
749.692	0.04
750.003	0.04
750.314	0.04
750.625	0.04
750.936	0.04
751.248	0.04
751.559	0.04
751.869	0.04
752.18	0.04
752.491	0.04
752.802	0.04
753.112	0.04
753.423	0.04
753.734	0.03
754.044	0.04
754.355	0.04
754.665	0.04
754.975	0.04
755.285	0.04
755.596	0.04
755.906	0.04
756.216	0.03
756.526	0.04
756.836	0.03
757.146	0.03
757.455	0.03
757.765	0.04
758.075	0.04
758.385	0.03
758.694	0.04
759.004	0.03
759.313	0.04
759.622	0.04
759.932	0.04
760.241	0.03
760.55	0.03
760.859	0.03
761.168	0.03
761.477	0.03
761.786	0.03
762.095	0.03
762.404	0.03
762.713	0.03
763.021	0.02
763.33	0.02
763.639	0.02
763.947	0.02
764.256	0.02
764.564	0.02
764.872	0.02
765.181	0.02
765.489	0.02
765.797	0.02
766.105	0.02
766.413	0.02
766.721	0.03
767.029	0.02
767.337	0.03
767.644	0.03
767.952	0.02
768.26	0.02
768.567	0.02
768.875	0.02
769.182	0.03
769.49	0.02
769.797	0.03
770.104	0.03
770.411	0.03
770.718	0.03
771.026	0.02
771.333	0.03
771.639	0.02
771.946	0.02
772.253	0.02
772.56	0.02
772.867	0.02
773.173	0.02
773.48	0.02
773.786	0.02
774.093	0.03
774.399	0.02
774.705	0.02
775.012	0.02
775.318	0.02
775.624	0.03
775.93	0.02
776.236	0.02
776.542	0.03
776.848	0.02
777.154	0.02
777.459	0.02
777.765	0.02
778.071	0.02
778.376	0.02
778.682	0.02
778.987	0.02
779.292	0.02
779.598	0.03
779.903	0.02
780.208	0.03
780.513	0.02
780.818	0.02
781.123	0.03
781.428	0.02
781.733	0.02
782.038	0.03
782.343	0.03
782.647	0.03
782.952	0.03
783.256	0.02
783.561	0.03
783.865	0.03
784.17	0.03
784.474	0.02
784.778	0.03
785.082	0.03
785.386	0.03
785.69	0.03
785.994	0.03
786.298	0.03
786.602	0.03
786.906	0.03
787.209	0.03
787.513	0.02
787.817	0.02
788.12	0.02
788.424	0.02
788.727	0.03
789.03	0.02
789.333	0.02
789.637	0.02
789.94	0.02
790.243	0.02
790.546	0.02
790.849	0.02
791.152	0.03
791.454	0.02
791.757	0.02
792.06	0.02
792.362	0.02
792.665	0.02
792.967	0.03
793.27	0.02
793.572	0.03
793.874	0.03
794.177	0.03
794.479	0.03
794.781	0.03
795.083	0.02
795.385	0.02
795.687	0.02
795.989	0.02
796.29	0.02
796.592	0.02
796.894	0.02
797.195	0.02
797.497	0.02
797.798	0.02
798.1	0.02
798.401	0.01
798.702	0.01
799.003	0.01
799.304	0.01
799.605	0.01
799.906	0.02
800.207	0.02
800.508	0.02
800.809	0.02
801.11	0.03
801.41	0.03
801.711	0.03
802.011	0.03
802.312	0.02
802.612	0.02
802.913	0.01
803.213	0.02
803.513	0.02
803.813	0.02
804.113	0.02
804.413	0.03
804.713	0.03
805.013	0.03
805.313	0.03
805.613	0.04
805.912	0.03
806.212	0.03
806.511	0.03
806.811	0.03
807.11	0.03
807.41	0.02
807.709	0.02
808.008	0.03
808.307	0.02
808.606	0.03
808.905	0.02
809.204	0.02
809.503	0.02
809.802	0.02
810.101	0.02
810.399	0.02
810.698	0.02
810.997	0.02
811.295	0.02
811.593	0.02
811.892	0.02
812.19	0.02
812.488	0.02
812.786	0.02
813.084	0.02
813.383	0.03
813.68	0.03
813.978	0.03
814.276	0.03
814.574	0.04
814.872	0.04
815.169	0.03
815.467	0.03
815.764	0.04
816.062	0.03
816.359	0.03
816.656	0.03
816.954	0.03
817.251	0.03
817.548	0.03
817.845	0.03
818.142	0.02
818.439	0.03
818.735	0.02
819.032	0.02
819.329	0.02
819.626	0.03
819.922	0.03
820.219	0.03
820.515	0.03
820.811	0.03
821.108	0.03
821.404	0.03
821.7	0.03
821.996	0.04
822.292	0.04
822.588	0.03
822.884	0.03
823.18	0.03
823.475	0.03
823.771	0.03
824.067	0.03
824.362	0.03
824.658	0.03
824.953	0.03
825.249	0.02
825.544	0.03
825.839	0.03
826.134	0.03
826.429	0.03
826.724	0.03
827.019	0.03
827.314	0.02
827.609	0.03
827.904	0.02
828.198	0.04
828.493	0.03
828.787	0.02
829.082	0.03
829.376	0.04
829.671	0.03
829.965	0.03
830.259	0.03
830.553	0.03
830.847	0.03
831.141	0.03
831.435	0.03
831.729	0.02
832.023	0.02
832.317	0.02
832.61	0.03
832.904	0.02
833.197	0.03
833.491	0.04
833.784	0.02
834.077	0.03
834.371	0.03
834.664	0.03
834.957	0.03
835.25	0.03
835.543	0.03
835.836	0.03
836.129	0.03
836.421	0.03
836.714	0.03
837.007	0.04
837.299	0.04
837.592	0.04
837.884	0.03
838.177	0.03
838.469	0.03
838.761	0.03
839.053	0.04
839.345	0.04
839.637	0.04
839.929	0.04
840.221	0.03
840.513	0.05
840.805	0.03
841.096	0.04
841.388	0.04
841.68	0.04
841.971	0.04
842.262	0.03
842.554	0.03
842.845	0.03
843.136	0.03
843.427	0.02
843.718	0.03
844.009	0.03
844.3	0.04
844.591	0.04
844.882	0.05
845.173	0.04
845.463	0.04
845.754	0.05
846.044	0.04
846.335	0.04
846.625	0.04
846.915	0.04
847.206	0.03
847.496	0.02
847.786	0.02
848.076	0.02
848.366	0.03
848.656	0.04
848.945	0.03
849.235	0.04
849.525	0.05
849.814	0.03
850.104	0.03
850.393	0.03
850.683	0.03
850.972	0.02
851.261	0.02
851.551	0.02
851.84	0.03
852.129	0.03
852.418	0.02
852.707	0.03
852.995	0.03
853.284	0.02
853.573	0.03
853.862	0.04
854.15	0.04
854.439	0.04
854.727	0.05
855.015	0.04
855.304	0.04
855.592	0.04
855.88	0.03
856.168	0.01
856.456	0.03
856.744	0.03
857.032	0.04
857.32	0.03
857.607	0.03
857.895	0.04
858.183	0.03
858.47	0.03
858.757	0.04
859.045	0.03
859.332	0.04
859.619	0.02
859.907	0.02
860.194	0.03
860.481	0.04
860.768	0.03
861.054	0.03
861.341	0.01
861.628	0.05
861.915	0.05
862.201	0.03
862.488	0.02
862.774	0.02
863.061	0.01
863.347	0.02
863.633	-0
863.919	0.02
864.205	0.01
864.491	0.03
864.777	0.02
865.063	0.01
865.349	0.01
865.635	0.03
865.92	0.02
866.206	0.03
866.492	0.02
866.777	0.02
867.062	0.02
867.348	0.02
867.633	0.05
867.918	0.03
868.203	0.01
868.488	0.04
868.773	0.01
869.058	0.01
869.343	0.01
869.628	0.01
869.912	0.02
870.197	0.01
870.482	-0
870.766	0.03
871.05	-0.01
871.335	0.02
871.619	0.02
871.903	0.01
872.187	-0.03
872.471	-0.02
872.755	0.04
873.039	0.03
873.323	-0.02
873.607	0.02
873.89	-0.01
874.174	-0.01
874.458	-0.01
874.741	0
875.024	-0.03
875.308	0.02
875.591	-0.03
875.874	0.01
876.157	-0.05
876.44	-0.03
876.723	0
877.006	0.04
877.289	0.06
877.572	0.06
877.854	-0.04
878.137	0.05
878.42	0.02
878.702	-0.03
878.984	0.01
879.267	-0
879.549	0.01
879.831	0.13
880.113	-0
880.395	-0.01
880.677	0.02
880.959	0.09
