Data from Rubpy_BV_EDTA_Blank_Green_StopFlow_Absorbance__12__16-04-54-018.txt Node

Date: Mon Jul 20 16:04:54 BST 2026
User: fpm-admin
Spectrometer: SR600986
Trigger mode: 0
Integration Time (sec): 2.000000E-2
Scans to average: 3
Nonlinearity correction enabled: true
Boxcar width: 0
Storing dark spectrum: false
XAxis mode: Wavelengths
Number of Pixels in Spectrum: 2048
>>>>>Begin Spectral Data<<<<<
188.613	0.06
189.078	0.06
189.542	0.06
190.007	0.07
190.472	0.08
190.936	0.07
191.401	0.08
191.865	0.07
192.33	0.07
192.794	0.06
193.258	0.05
193.723	0.07
194.187	0.07
194.651	0.09
195.115	0.06
195.579	0.09
196.043	0.05
196.507	0.07
196.971	0.06
197.435	0.06
197.899	0.08
198.363	0.07
198.827	0.07
199.29	0.08
199.754	0.07
200.218	0.09
200.681	0.07
201.145	0.07
201.608	0.09
202.072	0.05
202.535	0.04
202.998	0.06
203.462	0.08
203.925	0.07
204.388	0.07
204.851	0.06
205.314	0.05
205.777	0.05
206.24	0.08
206.703	0.06
207.166	0.06
207.629	0.03
208.092	0.06
208.555	0.07
209.018	0.06
209.48	0.06
209.943	0.08
210.406	0.06
210.868	0.05
211.331	0.07
211.793	0.05
212.256	0.07
212.718	0.08
213.18	0.07
213.643	0.05
214.105	0.07
214.567	0.07
215.029	0.07
215.491	0.07
215.953	0.05
216.415	0.05
216.877	0.05
217.339	0.05
217.801	0.08
218.263	0.06
218.725	0.09
219.186	0.03
219.648	0.07
220.11	0.06
220.571	0.08
221.033	0.07
221.494	0.06
221.956	0.06
222.417	0.09
222.878	0.08
223.34	0.04
223.801	0.06
224.262	0.06
224.723	0.07
225.185	0.05
225.646	0.07
226.107	0.1
226.568	0.06
227.029	0.07
227.489	0.05
227.95	0.06
228.411	0.05
228.872	0.08
229.332	0.06
229.793	0.08
230.254	0.07
230.714	0.07
231.175	0.06
231.635	0.06
232.096	0.07
232.556	0.07
233.016	0.07
233.477	0.04
233.937	0.06
234.397	0.06
234.857	0.09
235.317	0.05
235.777	0.08
236.237	0.06
236.697	0.06
237.157	0.08
237.617	0.05
238.077	0.07
238.537	0.08
238.996	0.06
239.456	0.05
239.916	0.08
240.375	0.08
240.835	0.06
241.294	0.07
241.754	0.07
242.213	0.09
242.672	0.08
243.132	0.08
243.591	0.07
244.05	0.06
244.509	0.05
244.968	0.06
245.427	0.06
245.886	0.07
246.345	0.06
246.804	0.09
247.263	0.06
247.722	0.07
248.181	0.08
248.639	0.08
249.098	0.07
249.557	0.06
250.015	0.08
250.474	0.07
250.932	0.07
251.391	0.07
251.849	0.05
252.308	0.08
252.766	0.09
253.224	0.06
253.682	0.07
254.14	0.05
254.599	0.07
255.057	0.04
255.515	0.06
255.973	0.08
256.431	0.08
256.888	0.07
257.346	0.06
257.804	0.06
258.262	0.05
258.719	0.05
259.177	0.06
259.635	0.07
260.092	0.07
260.55	0.06
261.007	0.07
261.465	0.05
261.922	0.07
262.379	0.07
262.836	0.06
263.294	0.06
263.751	0.08
264.208	0.09
264.665	0.05
265.122	0.06
265.579	0.08
266.036	0.08
266.493	0.09
266.95	0.07
267.406	0.05
267.863	0.07
268.32	0.08
268.777	0.07
269.233	0.07
269.69	0.06
270.146	0.03
270.603	0.07
271.059	0.07
271.515	0.05
271.972	0.06
272.428	0.07
272.884	0.08
273.34	0.04
273.796	0.07
274.253	0.05
274.709	0.08
275.165	0.07
275.62	0.07
276.076	0.05
276.532	0.05
276.988	0.08
277.444	0.07
277.899	0.07
278.355	0.08
278.811	0.06
279.266	0.09
279.722	0.07
280.177	0.07
280.633	0.07
281.088	0.06
281.543	0.07
281.998	0.07
282.454	0.08
282.909	0.06
283.364	0.08
283.819	0.08
284.274	0.06
284.729	0.04
285.184	0.06
285.639	0.05
286.094	0.06
286.548	0.06
287.003	0.05
287.458	0.08
287.913	0.07
288.367	0.05
288.822	0.07
289.276	0.07
289.731	0.06
290.185	0.09
290.639	0.08
291.094	0.06
291.548	0.08
292.002	0.07
292.456	0.09
292.91	0.07
293.365	0.07
293.819	0.06
294.273	0.06
294.726	0.05
295.18	0.06
295.634	0.05
296.088	0.06
296.542	0.06
296.995	0.11
297.449	0.08
297.903	0.06
298.356	0.09
298.81	0.08
299.263	0.07
299.716	0.09
300.17	0.07
300.623	0.08
301.076	0.07
301.53	0.07
301.983	0.07
302.436	0.06
302.889	0.08
303.342	0.08
303.795	0.07
304.248	0.06
304.701	0.08
305.153	0.1
305.606	0.09
306.059	0.07
306.512	0.11
306.964	0.09
307.417	0.08
307.869	0.07
308.322	0.1
308.774	0.09
309.227	0.09
309.679	0.09
310.131	0.06
310.584	0.07
311.036	0.08
311.488	0.09
311.94	0.08
312.392	0.08
312.844	0.06
313.296	0.08
313.748	0.07
314.2	0.07
314.652	0.1
315.103	0.09
315.555	0.09
316.007	0.08
316.458	0.09
316.91	0.08
317.361	0.1
317.813	0.09
318.264	0.08
318.716	0.09
319.167	0.09
319.618	0.1
320.07	0.08
320.521	0.1
320.972	0.11
321.423	0.1
321.874	0.1
322.325	0.1
322.776	0.1
323.227	0.12
323.678	0.11
324.128	0.11
324.579	0.11
325.03	0.11
325.48	0.11
325.931	0.13
326.382	0.13
326.832	0.13
327.283	0.13
327.733	0.13
328.183	0.13
328.634	0.14
329.084	0.15
329.534	0.14
329.984	0.14
330.434	0.15
330.884	0.15
331.334	0.16
331.784	0.16
332.234	0.16
332.684	0.16
333.134	0.16
333.584	0.18
334.034	0.18
334.483	0.18
334.933	0.18
335.382	0.19
335.832	0.19
336.281	0.19
336.731	0.2
337.18	0.2
337.63	0.2
338.079	0.2
338.528	0.21
338.977	0.22
339.426	0.22
339.876	0.23
340.325	0.22
340.774	0.23
341.223	0.24
341.671	0.24
342.12	0.25
342.569	0.25
343.018	0.25
343.467	0.26
343.915	0.27
344.364	0.27
344.812	0.27
345.261	0.28
345.709	0.28
346.158	0.28
346.606	0.28
347.054	0.29
347.503	0.29
347.951	0.3
348.399	0.3
348.847	0.31
349.295	0.31
349.743	0.31
350.191	0.32
350.639	0.32
351.087	0.32
351.535	0.33
351.983	0.34
352.43	0.34
352.878	0.34
353.326	0.35
353.773	0.36
354.221	0.36
354.668	0.36
355.116	0.37
355.563	0.37
356.01	0.38
356.458	0.39
356.905	0.39
357.352	0.4
357.799	0.4
358.246	0.41
358.693	0.41
359.14	0.42
359.587	0.43
360.034	0.44
360.481	0.44
360.928	0.45
361.375	0.45
361.821	0.46
362.268	0.46
362.714	0.47
363.161	0.47
363.608	0.48
364.054	0.49
364.5	0.49
364.947	0.49
365.393	0.5
365.839	0.5
366.285	0.5
366.732	0.51
367.178	0.51
367.624	0.51
368.07	0.51
368.516	0.51
368.962	0.52
369.408	0.52
369.853	0.52
370.299	0.52
370.745	0.51
371.19	0.51
371.636	0.51
372.082	0.51
372.527	0.51
372.973	0.5
373.418	0.5
373.863	0.49
374.309	0.48
374.754	0.47
375.199	0.47
375.644	0.46
376.09	0.46
376.535	0.45
376.98	0.44
377.425	0.43
377.87	0.42
378.314	0.41
378.759	0.41
379.204	0.4
379.649	0.39
380.093	0.38
380.538	0.37
380.983	0.37
381.427	0.36
381.872	0.35
382.316	0.34
382.76	0.34
383.205	0.33
383.649	0.32
384.093	0.32
384.537	0.31
384.982	0.31
385.426	0.3
385.87	0.3
386.314	0.29
386.758	0.29
387.201	0.28
387.645	0.28
388.089	0.27
388.533	0.27
388.976	0.26
389.42	0.26
389.864	0.25
390.307	0.25
390.751	0.24
391.194	0.24
391.638	0.23
392.081	0.23
392.524	0.23
392.967	0.22
393.411	0.22
393.854	0.23
394.297	0.22
394.74	0.23
395.183	0.22
395.626	0.23
396.069	0.23
396.512	0.23
396.954	0.23
397.397	0.23
397.84	0.24
398.282	0.24
398.725	0.24
399.168	0.24
399.61	0.24
400.052	0.24
400.495	0.24
400.937	0.24
401.38	0.23
401.822	0.23
402.264	0.22
402.706	0.21
403.148	0.21
403.59	0.2
404.032	0.19
404.474	0.18
404.916	0.18
405.358	0.16
405.8	0.16
406.241	0.15
406.683	0.14
407.125	0.13
407.566	0.13
408.008	0.12
408.449	0.11
408.891	0.12
409.332	0.1
409.774	0.1
410.215	0.1
410.656	0.09
411.097	0.09
411.539	0.08
411.98	0.08
412.421	0.08
412.862	0.08
413.303	0.07
413.744	0.07
414.184	0.07
414.625	0.06
415.066	0.06
415.507	0.07
415.947	0.06
416.388	0.06
416.828	0.06
417.269	0.06
417.709	0.05
418.15	0.05
418.59	0.05
419.03	0.05
419.471	0.04
419.911	0.05
420.351	0.04
420.791	0.04
421.231	0.05
421.671	0.06
422.111	0.05
422.551	0.04
422.991	0.04
423.431	0.04
423.87	0.04
424.31	0.04
424.75	0.04
425.189	0.05
425.629	0.04
426.068	0.05
426.508	0.05
426.947	0.04
427.386	0.04
427.826	0.04
428.265	0.04
428.704	0.04
429.143	0.04
429.582	0.04
430.021	0.04
430.46	0.05
430.899	0.04
431.338	0.03
431.777	0.04
432.216	0.03
432.655	0.04
433.093	0.03
433.532	0.04
433.971	0.04
434.409	0.03
434.848	0.05
435.286	0.04
435.724	0.04
436.163	0.03
436.601	0.04
437.039	0.04
437.477	0.05
437.916	0.05
438.354	0.03
438.792	0.03
439.23	0.03
439.668	0.04
440.105	0.04
440.543	0.03
440.981	0.03
441.419	0.04
441.856	0.04
442.294	0.05
442.732	0.04
443.169	0.04
443.607	0.05
444.044	0.05
444.481	0.05
444.919	0.05
445.356	0.04
445.793	0.05
446.23	0.05
446.668	0.05
447.105	0.05
447.542	0.05
447.979	0.04
448.416	0.05
448.852	0.05
449.289	0.06
449.726	0.05
450.163	0.06
450.599	0.04
451.036	0.05
451.473	0.06
451.909	0.05
452.346	0.07
452.782	0.05
453.218	0.06
453.655	0.06
454.091	0.06
454.527	0.05
454.963	0.06
455.399	0.06
455.835	0.05
456.271	0.05
456.707	0.06
457.143	0.07
457.579	0.06
458.015	0.06
458.451	0.06
458.886	0.07
459.322	0.05
459.758	0.04
460.193	0.07
460.629	0.06
461.064	0.05
461.5	0.07
461.935	0.07
462.37	0.06
462.805	0.07
463.241	0.07
463.676	0.07
464.111	0.07
464.546	0.07
464.981	0.07
465.416	0.08
465.851	0.07
466.286	0.08
466.72	0.08
467.155	0.07
467.59	0.07
468.024	0.08
468.459	0.07
468.893	0.08
469.328	0.08
469.762	0.1
470.197	0.08
470.631	0.08
471.065	0.08
471.5	0.09
471.934	0.09
472.368	0.09
472.802	0.09
473.236	0.09
473.67	0.09
474.104	0.1
474.538	0.09
474.972	0.1
475.405	0.1
475.839	0.09
476.273	0.1
476.706	0.1
477.14	0.1
477.573	0.1
478.007	0.1
478.44	0.11
478.874	0.11
479.307	0.11
479.74	0.11
480.173	0.11
480.606	0.11
481.04	0.11
481.473	0.11
481.906	0.12
482.339	0.12
482.771	0.12
483.204	0.12
483.637	0.12
484.07	0.12
484.502	0.12
484.935	0.12
485.368	0.12
485.8	0.13
486.233	0.13
486.665	0.13
487.098	0.13
487.53	0.13
487.962	0.13
488.394	0.13
488.827	0.13
489.259	0.13
489.691	0.13
490.123	0.14
490.555	0.13
490.987	0.14
491.418	0.14
491.85	0.14
492.282	0.14
492.714	0.14
493.145	0.14
493.577	0.15
494.009	0.15
494.44	0.15
494.872	0.15
495.303	0.15
495.734	0.15
496.166	0.15
496.597	0.15
497.028	0.16
497.459	0.16
497.89	0.16
498.321	0.16
498.752	0.16
499.183	0.16
499.614	0.16
500.045	0.17
500.476	0.17
500.906	0.17
501.337	0.17
501.768	0.17
502.198	0.17
502.629	0.17
503.059	0.17
503.49	0.17
503.92	0.18
504.35	0.18
504.781	0.18
505.211	0.18
505.641	0.18
506.071	0.18
506.501	0.18
506.931	0.18
507.361	0.19
507.791	0.18
508.221	0.18
508.651	0.18
509.081	0.19
509.51	0.19
509.94	0.19
510.37	0.19
510.799	0.19
511.229	0.19
511.658	0.2
512.087	0.19
512.517	0.19
512.946	0.2
513.375	0.2
513.804	0.2
514.234	0.2
514.663	0.2
515.092	0.2
515.521	0.2
515.95	0.2
516.378	0.2
516.807	0.21
517.236	0.21
517.665	0.2
518.093	0.21
518.522	0.21
518.951	0.21
519.379	0.21
519.807	0.21
520.236	0.21
520.664	0.22
521.093	0.21
521.521	0.22
521.949	0.21
522.377	0.21
522.805	0.22
523.233	0.22
523.661	0.22
524.089	0.22
524.517	0.22
524.945	0.22
525.373	0.22
525.8	0.22
526.228	0.22
526.656	0.23
527.083	0.22
527.511	0.23
527.938	0.22
528.366	0.23
528.793	0.22
529.22	0.22
529.648	0.23
530.075	0.23
530.502	0.23
530.929	0.23
531.356	0.23
531.783	0.23
532.21	0.23
532.637	0.23
533.064	0.23
533.49	0.23
533.917	0.23
534.344	0.23
534.771	0.23
535.197	0.23
535.624	0.23
536.05	0.23
536.477	0.23
536.903	0.23
537.329	0.23
537.755	0.23
538.182	0.23
538.608	0.23
539.034	0.23
539.46	0.23
539.886	0.23
540.312	0.23
540.738	0.23
541.164	0.23
541.589	0.23
542.015	0.23
542.441	0.23
542.867	0.23
543.292	0.23
543.718	0.23
544.143	0.23
544.569	0.23
544.994	0.23
545.419	0.23
545.845	0.23
546.27	0.23
546.695	0.23
547.12	0.23
547.545	0.23
547.97	0.23
548.395	0.23
548.82	0.23
549.245	0.23
549.67	0.23
550.094	0.23
550.519	0.23
550.944	0.23
551.368	0.23
551.793	0.23
552.217	0.23
552.642	0.23
553.066	0.23
553.49	0.23
553.915	0.23
554.339	0.23
554.763	0.23
555.187	0.23
555.611	0.23
556.035	0.23
556.459	0.23
556.883	0.23
557.307	0.23
557.731	0.23
558.154	0.22
558.578	0.23
559.002	0.22
559.425	0.22
559.849	0.22
560.272	0.22
560.696	0.22
561.119	0.22
561.543	0.22
561.966	0.22
562.389	0.22
562.812	0.22
563.235	0.22
563.658	0.22
564.081	0.22
564.504	0.22
564.927	0.22
565.35	0.22
565.773	0.22
566.196	0.21
566.618	0.22
567.041	0.22
567.463	0.22
567.886	0.21
568.309	0.21
568.731	0.21
569.153	0.21
569.576	0.21
569.998	0.21
570.42	0.21
570.842	0.21
571.264	0.21
571.686	0.21
572.108	0.21
572.53	0.21
572.952	0.21
573.374	0.21
573.796	0.21
574.218	0.2
574.639	0.2
575.061	0.2
575.483	0.2
575.904	0.2
576.326	0.2
576.747	0.2
577.168	0.2
577.59	0.2
578.011	0.2
578.432	0.2
578.853	0.2
579.274	0.2
579.695	0.2
580.116	0.2
580.537	0.2
580.958	0.2
581.379	0.2
581.8	0.2
582.221	0.2
582.641	0.19
583.062	0.19
583.482	0.19
583.903	0.19
584.323	0.19
584.744	0.19
585.164	0.19
585.584	0.19
586.005	0.19
586.425	0.19
586.845	0.19
587.265	0.19
587.685	0.19
588.105	0.19
588.525	0.18
588.945	0.18
589.365	0.18
589.785	0.18
590.204	0.18
590.624	0.18
591.044	0.18
591.463	0.18
591.883	0.18
592.302	0.18
592.721	0.18
593.141	0.18
593.56	0.18
593.979	0.18
594.399	0.18
594.818	0.18
595.237	0.18
595.656	0.18
596.075	0.18
596.494	0.18
596.913	0.18
597.331	0.18
597.75	0.18
598.169	0.18
598.587	0.18
599.006	0.18
599.425	0.17
599.843	0.18
600.262	0.17
600.68	0.17
601.098	0.17
601.517	0.17
601.935	0.17
602.353	0.17
602.771	0.17
603.189	0.17
603.607	0.17
604.025	0.17
604.443	0.17
604.861	0.17
605.279	0.17
605.696	0.17
606.114	0.17
606.532	0.16
606.949	0.16
607.367	0.16
607.784	0.16
608.202	0.16
608.619	0.16
609.036	0.16
609.454	0.16
609.871	0.16
610.288	0.16
610.705	0.16
611.122	0.16
611.539	0.16
611.956	0.15
612.373	0.16
612.79	0.15
613.207	0.15
613.623	0.15
614.04	0.15
614.457	0.15
614.873	0.15
615.29	0.15
615.706	0.15
616.122	0.15
616.539	0.15
616.955	0.15
617.371	0.15
617.788	0.15
618.204	0.14
618.62	0.15
619.036	0.14
619.452	0.14
619.868	0.14
620.284	0.14
620.699	0.14
621.115	0.14
621.531	0.14
621.946	0.14
622.362	0.14
622.778	0.14
623.193	0.14
623.608	0.14
624.024	0.13
624.439	0.13
624.854	0.13
625.27	0.13
625.685	0.13
626.1	0.13
626.515	0.13
626.93	0.13
627.345	0.13
627.76	0.13
628.175	0.13
628.589	0.12
629.004	0.12
629.419	0.12
629.833	0.12
630.248	0.12
630.663	0.12
631.077	0.12
631.491	0.12
631.906	0.12
632.32	0.12
632.734	0.12
633.148	0.12
633.563	0.11
633.977	0.11
634.391	0.11
634.805	0.11
635.219	0.11
635.632	0.11
636.046	0.11
636.46	0.11
636.874	0.11
637.287	0.11
637.701	0.11
638.115	0.11
638.528	0.11
638.941	0.1
639.355	0.1
639.768	0.1
640.181	0.1
640.595	0.1
641.008	0.1
641.421	0.1
641.834	0.1
642.247	0.1
642.66	0.1
643.073	0.1
643.486	0.1
643.898	0.09
644.311	0.09
644.724	0.09
645.136	0.09
645.549	0.09
645.961	0.09
646.374	0.09
646.786	0.09
647.199	0.09
647.611	0.09
648.023	0.09
648.435	0.09
648.847	0.09
649.26	0.09
649.672	0.09
650.084	0.09
650.495	0.09
650.907	0.09
651.319	0.09
651.731	0.08
652.143	0.09
652.554	0.08
652.966	0.08
653.377	0.08
653.789	0.08
654.2	0.09
654.612	0.06
655.023	0.02
655.434	0
655.845	0.01
656.256	0.05
656.668	0.09
657.079	0.08
657.49	0.08
657.901	0.08
658.311	0.08
658.722	0.08
659.133	0.08
659.544	0.08
659.954	0.08
660.365	0.08
660.775	0.07
661.186	0.07
661.596	0.08
662.007	0.07
662.417	0.07
662.827	0.07
663.238	0.07
663.648	0.07
664.058	0.07
664.468	0.07
664.878	0.07
665.288	0.07
665.698	0.07
666.108	0.07
666.517	0.07
666.927	0.07
667.337	0.07
667.746	0.07
668.156	0.07
668.565	0.06
668.975	0.07
669.384	0.06
669.794	0.06
670.203	0.06
670.612	0.06
671.021	0.06
671.43	0.06
671.84	0.06
672.249	0.06
672.658	0.06
673.066	0.06
673.475	0.06
673.884	0.06
674.293	0.06
674.702	0.06
675.11	0.06
675.519	0.06
675.927	0.05
676.336	0.05
676.744	0.05
677.152	0.05
677.561	0.05
677.969	0.05
678.377	0.05
678.785	0.05
679.193	0.05
679.601	0.05
680.009	0.05
680.417	0.05
680.825	0.05
681.233	0.05
681.641	0.05
682.048	0.05
682.456	0.05
682.864	0.05
683.271	0.04
683.679	0.05
684.086	0.05
684.493	0.04
684.901	0.04
685.308	0.04
685.715	0.04
686.122	0.04
686.529	0.04
686.936	0.04
687.343	0.04
687.75	0.04
688.157	0.04
688.564	0.04
688.971	0.04
689.378	0.04
689.784	0.04
690.191	0.04
690.597	0.04
691.004	0.03
691.41	0.04
691.817	0.04
692.223	0.03
692.629	0.03
693.035	0.04
693.442	0.03
693.848	0.03
694.254	0.03
694.66	0.03
695.066	0.03
695.471	0.03
695.877	0.03
696.283	0.03
696.689	0.03
697.094	0.03
697.5	0.03
697.906	0.03
698.311	0.03
698.716	0.03
699.122	0.03
699.527	0.03
699.932	0.03
700.338	0.03
700.743	0.03
701.148	0.03
701.553	0.03
701.958	0.03
702.363	0.03
702.768	0.03
703.173	0.03
703.577	0.03
703.982	0.03
704.387	0.03
704.791	0.03
705.196	0.03
705.6	0.03
706.005	0.03
706.409	0.03
706.814	0.03
707.218	0.03
707.622	0.03
708.026	0.03
708.43	0.02
708.834	0.03
709.238	0.03
709.642	0.03
710.046	0.03
710.45	0.03
710.854	0.03
711.257	0.03
711.661	0.03
712.065	0.03
712.468	0.03
712.872	0.03
713.275	0.03
713.679	0.03
714.082	0.03
714.485	0.03
714.888	0.03
715.291	0.03
715.695	0.03
716.098	0.03
716.501	0.03
716.904	0.03
717.306	0.02
717.709	0.02
718.112	0.02
718.515	0.03
718.917	0.03
719.32	0.03
719.723	0.02
720.125	0.02
720.527	0.02
720.93	0.02
721.332	0.03
721.734	0.03
722.137	0.03
722.539	0.03
722.941	0.03
723.343	0.03
723.745	0.03
724.147	0.03
724.549	0.03
724.95	0.03
725.352	0.03
725.754	0.03
726.156	0.03
726.557	0.03
726.959	0.03
727.36	0.03
727.762	0.03
728.163	0.03
728.564	0.02
728.966	0.03
729.367	0.02
729.768	0.02
730.169	0.02
730.57	0.02
730.971	0.03
731.372	0.02
731.773	0.02
732.174	0.03
732.574	0.02
732.975	0.03
733.376	0.02
733.776	0.02
734.177	0.03
734.577	0.02
734.978	0.02
735.378	0.03
735.778	0.02
736.179	0.02
736.579	0.02
736.979	0.03
737.379	0.02
737.779	0.02
738.179	0.02
738.579	0.02
738.979	0.02
739.379	0.02
739.778	0.02
740.178	0.02
740.578	0.02
740.977	0.02
741.377	0.02
741.776	0.02
742.176	0.02
742.575	0.02
742.974	0.02
743.374	0.02
743.773	0.02
744.172	0.02
744.571	0.02
744.97	0.02
745.369	0.02
745.768	0.02
746.167	0.02
746.565	0.02
746.964	0.02
747.363	0.02
747.761	0.02
748.16	0.02
748.559	0.02
748.957	0.02
749.355	0.02
749.754	0.02
750.152	0.02
750.55	0.02
750.948	0.02
751.347	0.02
751.745	0.02
752.143	0.02
752.541	0.02
752.938	0.02
753.336	0.02
753.734	0.02
754.132	0.02
754.529	0.02
754.927	0.02
755.325	0.02
755.722	0.02
756.119	0.02
756.517	0.02
756.914	0.02
757.311	0.02
757.709	0.01
758.106	0.02
758.503	0.01
758.9	0.02
759.297	0.02
759.694	0.02
760.091	0.02
760.488	0.02
760.884	0.02
761.281	0.01
761.678	0.01
762.074	0.02
762.471	0.02
762.867	0.01
763.264	0.01
763.66	0.01
764.056	0.01
764.453	0.02
764.849	0.01
765.245	0.02
765.641	0.02
766.037	0.01
766.433	0.01
766.829	0.01
767.225	0.01
767.621	0.02
768.016	0.02
768.412	0.02
768.808	0.02
769.203	0.02
769.599	0.02
769.994	0.01
770.389	0.02
770.785	0.02
771.18	0.02
771.575	0.02
771.971	0.02
772.366	0.02
772.761	0.02
773.156	0.02
773.551	0.02
773.945	0.02
774.34	0.01
774.735	0.02
775.13	0.02
775.524	0.02
775.919	0.02
776.314	0.02
776.708	0.02
777.103	0.02
777.497	0.02
777.891	0.02
778.285	0.02
778.68	0.02
779.074	0.02
779.468	0.02
779.862	0.02
780.256	0.02
780.65	0.02
781.044	0.02
781.438	0.02
781.831	0.02
782.225	0.02
782.619	0.02
783.012	0.02
783.406	0.02
783.799	0.02
784.193	0.02
784.586	0.02
784.979	0.02
785.372	0.02
785.766	0.02
786.159	0.02
786.552	0.02
786.945	0.02
787.338	0.02
787.731	0.02
788.123	0.02
788.516	0.02
788.909	0.02
789.302	0.02
789.694	0.02
790.087	0.02
790.479	0.02
790.872	0.02
791.264	0.02
791.656	0.02
792.049	0.02
792.441	0.02
792.833	0.02
793.225	0.02
793.617	0.02
794.009	0.02
794.401	0.02
794.793	0.02
795.185	0.02
795.576	0.02
795.968	0.02
796.36	0.02
796.751	0.02
797.143	0.02
797.534	0.02
797.926	0.02
798.317	0.02
798.708	0.02
799.1	0.02
799.491	0.02
799.882	0.02
800.273	0.02
800.664	0.02
801.055	0.02
801.446	0.02
801.837	0.02
802.227	0.02
802.618	0.02
803.009	0.02
803.399	0.02
803.79	0.02
804.18	0.02
804.571	0.02
804.961	0.02
805.351	0.02
805.742	0.02
806.132	0.03
806.522	0.02
806.912	0.02
807.302	0.02
807.692	0.02
808.082	0.02
808.472	0.03
808.862	0.02
809.251	0.03
809.641	0.02
810.031	0.03
810.42	0.03
810.81	0.02
811.199	0.03
811.589	0.02
811.978	0.02
812.367	0.03
812.756	0.03
813.146	0.02
813.535	0.03
813.924	0.03
814.313	0.03
814.702	0.03
815.091	0.03
815.479	0.03
815.868	0.03
816.257	0.03
816.645	0.02
817.034	0.03
817.423	0.03
817.811	0.03
818.199	0.03
818.588	0.03
818.976	0.03
819.364	0.03
819.753	0.03
820.141	0.03
820.529	0.03
820.917	0.03
821.305	0.03
821.693	0.03
822.08	0.03
822.468	0.03
822.856	0.03
823.244	0.03
823.631	0.03
824.019	0.03
824.406	0.03
824.794	0.03
825.181	0.03
825.568	0.03
825.956	0.03
826.343	0.03
826.73	0.03
827.117	0.03
827.504	0.03
827.891	0.03
828.278	0.03
828.665	0.03
829.052	0.03
829.438	0.03
829.825	0.04
830.212	0.04
830.598	0.03
830.985	0.03
831.371	0.04
831.757	0.03
832.144	0.04
832.53	0.03
832.916	0.04
833.302	0.03
833.688	0.04
834.075	0.04
834.461	0.04
834.846	0.04
835.232	0.04
835.618	0.04
836.004	0.04
836.39	0.04
836.775	0.04
837.161	0.04
837.546	0.04
837.932	0.04
838.317	0.04
838.702	0.04
839.088	0.04
839.473	0.04
839.858	0.04
840.243	0.04
840.628	0.04
841.013	0.04
841.398	0.04
841.783	0.04
842.168	0.04
842.553	0.04
842.937	0.04
843.322	0.04
843.707	0.04
844.091	0.04
844.476	0.04
844.86	0.04
845.244	0.04
845.629	0.04
846.013	0.04
846.397	0.04
846.781	0.04
847.165	0.04
847.549	0.04
847.933	0.04
848.317	0.04
848.701	0.04
849.085	0.04
849.468	0.04
849.852	0.04
850.236	0.04
850.619	0.04
851.003	0.04
851.386	0.04
851.769	0.04
852.153	0.04
852.536	0.05
852.919	0.04
853.302	0.04
853.685	0.04
854.068	0.04
854.451	0.04
854.834	0.04
855.217	0.05
855.6	0.04
855.982	0.05
856.365	0.05
856.748	0.04
857.13	0.04
857.513	0.05
857.895	0.04
858.277	0.05
858.66	0.05
859.042	0.04
859.424	0.05
859.806	0.05
860.188	0.05
860.57	0.05
860.952	0.05
861.334	0.05
861.716	0.05
862.098	0.05
862.48	0.05
862.861	0.05
863.243	0.05
863.624	0.05
864.006	0.05
864.387	0.05
864.769	0.05
865.15	0.05
865.531	0.05
865.912	0.05
866.294	0.05
866.675	0.05
867.056	0.05
867.437	0.05
867.818	0.05
868.198	0.05
868.579	0.05
868.96	0.05
869.341	0.05
869.721	0.05
870.102	0.05
870.482	0.05
870.863	0.05
871.243	0.05
871.623	0.05
872.003	0.05
872.384	0.05
872.764	0.05
873.144	0.05
873.524	0.05
873.904	0.05
874.284	0.05
874.664	0.05
875.043	0.05
875.423	0.05
875.803	0.05
876.182	0.05
876.562	0.05
876.941	0.05
877.321	0.05
877.7	0.05
878.079	0.05
878.459	0.05
878.838	0.05
879.217	0.05
879.596	0.05
879.975	0.06
880.354	0.05
880.733	0.05
881.112	0.06
881.491	0.06
881.869	0.06
882.248	0.05
882.627	0.05
883.005	0.06
883.384	0.06
883.762	0.06
884.14	0.06
884.519	0.06
884.897	0.05
885.275	0.06
885.653	0.06
886.031	0.06
886.409	0.06
886.787	0.06
887.165	0.06
887.543	0.06
887.921	0.06
888.298	0.06
888.676	0.06
889.054	0.06
889.431	0.06
889.809	0.06
890.186	0.06
890.563	0.06
890.941	0.06
891.318	0.06
891.695	0.06
892.072	0.06
892.449	0.06
892.826	0.06
893.203	0.06
893.58	0.06
893.957	0.06
894.334	0.06
894.71	0.06
895.087	0.06
895.464	0.06
895.84	0.06
896.217	0.06
896.593	0.06
896.969	0.06
897.346	0.06
897.722	0.06
898.098	0.06
898.474	0.06
898.85	0.06
899.226	0.06
899.602	0.06
899.978	0.06
900.354	0.06
900.73	0.06
901.105	0.06
901.481	0.06
901.857	0.06
902.232	0.06
902.608	0.06
902.983	0.06
903.358	0.06
903.734	0.06
904.109	0.06
904.484	0.06
904.859	0.06
905.234	0.06
905.609	0.06
905.984	0.06
906.359	0.06
906.734	0.06
907.108	0.06
907.483	0.06
907.858	0.06
908.232	0.06
908.607	0.06
908.981	0.06
909.356	0.06
909.73	0.07
910.104	0.06
910.478	0.06
910.853	0.06
911.227	0.06
911.601	0.06
911.975	0.06
912.349	0.06
912.722	0.06
913.096	0.06
913.47	0.06
913.844	0.06
914.217	0.06
914.591	0.06
914.964	0.06
915.338	0.06
915.711	0.06
916.084	0.06
916.458	0.06
916.831	0.06
917.204	0.07
917.577	0.06
917.95	0.06
918.323	0.06
918.696	0.06
919.069	0.06
919.441	0.06
919.814	0.06
920.187	0.06
920.559	0.06
920.932	0.06
921.304	0.06
921.677	0.06
922.049	0.06
922.421	0.06
922.794	0.06
923.166	0.06
923.538	0.06
923.91	0.06
924.282	0.06
924.654	0.06
925.026	0.06
925.398	0.06
925.769	0.06
926.141	0.06
926.513	0.06
926.884	0.06
927.256	0.06
927.627	0.06
927.999	0.06
928.37	0.06
928.741	0.07
929.113	0.06
929.484	0.06
929.855	0.06
930.226	0.06
930.597	0.06
930.968	0.06
931.339	0.06
931.709	0.06
932.08	0.06
932.451	0.06
932.821	0.06
933.192	0.06
933.562	0.07
933.933	0.06
934.303	0.06
934.673	0.06
935.044	0.06
935.414	0.06
935.784	0.07
936.154	0.06
936.524	0.07
936.894	0.06
937.264	0.06
937.634	0.06
938.004	0.06
938.373	0.06
938.743	0.06
939.113	0.07
939.482	0.06
939.852	0.06
940.221	0.07
940.59	0.07
940.96	0.06
941.329	0.06
941.698	0.06
942.067	0.06
942.436	0.07
942.805	0.07
943.174	0.06
943.543	0.07
943.912	0.07
944.28	0.06
944.649	0.06
945.018	0.07
945.386	0.07
945.755	0.06
946.123	0.07
946.492	0.06
946.86	0.07
947.228	0.07
947.596	0.06
947.965	0.06
948.333	0.06
948.701	0.06
949.069	0.06
949.437	0.06
949.804	0.06
950.172	0.06
950.54	0.06
950.908	0.06
951.275	0.06
951.643	0.06
952.01	0.06
952.378	0.06
952.745	0.06
953.112	0.06
953.479	0.06
953.847	0.06
954.214	0.07
954.581	0.06
954.948	0.07
955.315	0.06
955.682	0.06
956.048	0.06
956.415	0.06
956.782	0.06
957.148	0.06
957.515	0.06
957.881	0.06
958.248	0.06
958.614	0.06
958.981	0.06
959.347	0.06
959.713	0.06
960.079	0.06
960.445	0.06
960.811	0.06
961.177	0.06
961.543	0.06
961.909	0.06
962.275	0.06
962.641	0.06
963.006	0.06
963.372	0.06
963.737	0.06
964.103	0.06
964.468	0.06
964.834	0.06
965.199	0.06
965.564	0.06
965.929	0.06
966.294	0.06
966.659	0.06
967.024	0.06
967.389	0.06
967.754	0.06
968.119	0.06
968.484	0.06
968.848	0.06
969.213	0.06
969.578	0.06
969.942	0.06
970.307	0.06
970.671	0.06
971.035	0.06
971.399	0.06
971.764	0.06
972.128	0.06
972.492	0.06
972.856	0.06
973.22	0.06
973.584	0.06
973.948	0.06
974.311	0.06
974.675	0.06
975.039	0.06
975.402	0.06
975.766	0.06
976.129	0.06
976.493	0.05
976.856	0.06
977.219	0.05
977.582	0.05
977.946	0.06
978.309	0.06
978.672	0.06
979.035	0.05
979.398	0.06
979.761	0.06
980.123	0.06
980.486	0.06
980.849	0.06
981.211	0.06
981.574	0.06
981.936	0.06
982.299	0.05
982.661	0.06
983.023	0.06
983.386	0.06
983.748	0.06
984.11	0.06
984.472	0.06
984.834	0.05
985.196	0.06
985.558	0.06
985.92	0.05
986.281	0.05
986.643	0.06
987.005	0.06
987.366	0.05
987.728	0.06
988.089	0.06
988.451	0.05
988.812	0.06
989.173	0.06
989.534	0.05
989.895	0.05
990.257	0.05
990.618	0.05
990.979	0.05
991.339	0.05
991.7	0.05
992.061	0.05
992.422	0.05
992.782	0.05
993.143	0.05
993.503	0.05
993.864	0.05
994.224	0.06
994.585	0.05
994.945	0.05
995.305	0.06
995.665	0.06
996.025	0.06
996.385	0.05
996.745	0.06
997.105	0.05
997.465	0.05
997.825	0.05
998.185	0.06
998.544	0.05
998.904	0.06
999.263	0.06
999.623	0.05
999.982	0.05
1000.342	0.06
1000.701	0.05
1001.06	0.05
1001.419	0.06
1001.778	0.05
1002.138	0.05
1002.497	0.06
1002.855	0.05
1003.214	0.05
1003.573	0.06
1003.932	0.05
1004.29	0.05
1004.649	0.05
1005.008	0.05
1005.366	0.05
1005.725	0.05
1006.083	0.05
1006.441	0.05
1006.799	0.05
1007.158	0.05
1007.516	0.05
1007.874	0.05
1008.232	0.05
1008.59	0.05
1008.948	0.05
1009.305	0.05
1009.663	0.05
1010.021	0.05
1010.379	0.05
1010.736	0.05
1011.094	0.05
1011.451	0.05
1011.808	0.05
1012.166	0.05
1012.523	0.05
1012.88	0.05
1013.237	0.05
1013.594	0.05
1013.951	0.05
1014.308	0.05
1014.665	0.05
1015.022	0.06
1015.379	0.05
1015.735	0.05
1016.092	0.05
1016.449	0.05
1016.805	0.05
1017.162	0.05
1017.518	0.05
1017.874	0.05
1018.231	0.05
1018.587	0.05
1018.943	0.05
1019.299	0.05
1019.655	0.05
1020.011	0.04
1020.367	0.05
1020.723	0.05
1021.078	0.05
1021.434	0.05
1021.79	0.05
1022.145	0.05
1022.501	0.05
1022.856	0.05
1023.212	0.04
1023.567	0.05
1023.922	0.05
1024.278	0.05
1024.633	0.05
1024.988	0.05
1025.343	0.05
1025.698	0.05
1026.053	0.05
1026.408	0.05
1026.762	0.05
1027.117	0.04
1027.472	0.04
1027.826	0.05
1028.181	0.05
1028.535	0.05
1028.89	0.04
1029.244	0.05
1029.598	0.05
1029.952	0.04
1030.307	0.04
1030.661	0.05
1031.015	0.04
1031.369	0.05
1031.723	0.04
1032.076	0.05
