Data from Rubpy_EV_EDTA_TU(3000)_Blank_Blue_Flow_Absorbance__3203__11-49-16-565.txt Node

Date: Mon Aug 03 11:49:16 BST 2026
User: fpm-admin
Spectrometer: SR600986
Trigger mode: 0
Integration Time (sec): 8.000000E-3
Scans to average: 3
Nonlinearity correction enabled: true
Boxcar width: 0
Storing dark spectrum: false
XAxis mode: Wavelengths
Number of Pixels in Spectrum: 2048
>>>>>Begin Spectral Data<<<<<
188.613	0.29
189.078	0.27
189.542	0.28
190.007	0.26
190.472	0.27
190.936	0.25
191.401	0.27
191.865	0.26
192.33	0.27
192.794	0.29
193.258	0.27
193.723	0.26
194.187	0.29
194.651	0.26
195.115	0.27
195.579	0.27
196.043	0.28
196.507	0.27
196.971	0.27
197.435	0.28
197.899	0.27
198.363	0.27
198.827	0.28
199.29	0.27
199.754	0.28
200.218	0.28
200.681	0.26
201.145	0.27
201.608	0.27
202.072	0.25
202.535	0.26
202.998	0.28
203.462	0.27
203.925	0.26
204.388	0.27
204.851	0.27
205.314	0.29
205.777	0.27
206.24	0.28
206.703	0.26
207.166	0.27
207.629	0.27
208.092	0.28
208.555	0.27
209.018	0.29
209.48	0.28
209.943	0.28
210.406	0.28
210.868	0.26
211.331	0.29
211.793	0.26
212.256	0.27
212.718	0.25
213.18	0.27
213.643	0.26
214.105	0.29
214.567	0.25
215.029	0.28
215.491	0.28
215.953	0.29
216.415	0.28
216.877	0.26
217.339	0.27
217.801	0.26
218.263	0.28
218.725	0.26
219.186	0.29
219.648	0.26
220.11	0.28
220.571	0.26
221.033	0.29
221.494	0.28
221.956	0.27
222.417	0.28
222.878	0.27
223.34	0.27
223.801	0.24
224.262	0.26
224.723	0.26
225.185	0.26
225.646	0.26
226.107	0.27
226.568	0.28
227.029	0.29
227.489	0.26
227.95	0.28
228.411	0.25
228.872	0.28
229.332	0.27
229.793	0.27
230.254	0.3
230.714	0.26
231.175	0.27
231.635	0.27
232.096	0.27
232.556	0.28
233.016	0.28
233.477	0.26
233.937	0.26
234.397	0.29
234.857	0.27
235.317	0.28
235.777	0.27
236.237	0.27
236.697	0.3
237.157	0.27
237.617	0.3
238.077	0.28
238.537	0.28
238.996	0.3
239.456	0.28
239.916	0.27
240.375	0.28
240.835	0.27
241.294	0.26
241.754	0.28
242.213	0.27
242.672	0.28
243.132	0.26
243.591	0.29
244.05	0.29
244.509	0.28
244.968	0.26
245.427	0.26
245.886	0.28
246.345	0.27
246.804	0.27
247.263	0.26
247.722	0.27
248.181	0.24
248.639	0.28
249.098	0.27
249.557	0.26
250.015	0.28
250.474	0.29
250.932	0.28
251.391	0.26
251.849	0.26
252.308	0.28
252.766	0.26
253.224	0.25
253.682	0.27
254.14	0.29
254.599	0.29
255.057	0.28
255.515	0.28
255.973	0.26
256.431	0.27
256.888	0.29
257.346	0.28
257.804	0.27
258.262	0.27
258.719	0.25
259.177	0.27
259.635	0.26
260.092	0.3
260.55	0.28
261.007	0.29
261.465	0.29
261.922	0.26
262.379	0.25
262.836	0.28
263.294	0.27
263.751	0.28
264.208	0.27
264.665	0.25
265.122	0.29
265.579	0.3
266.036	0.27
266.493	0.28
266.95	0.28
267.406	0.27
267.863	0.27
268.32	0.27
268.777	0.28
269.233	0.29
269.69	0.26
270.146	0.28
270.603	0.28
271.059	0.25
271.515	0.29
271.972	0.27
272.428	0.27
272.884	0.29
273.34	0.27
273.796	0.27
274.253	0.27
274.709	0.27
275.165	0.26
275.62	0.29
276.076	0.27
276.532	0.27
276.988	0.26
277.444	0.28
277.899	0.27
278.355	0.27
278.811	0.27
279.266	0.28
279.722	0.27
280.177	0.28
280.633	0.27
281.088	0.28
281.543	0.27
281.998	0.23
282.454	0.29
282.909	0.29
283.364	0.28
283.819	0.28
284.274	0.26
284.729	0.29
285.184	0.28
285.639	0.28
286.094	0.25
286.548	0.29
287.003	0.27
287.458	0.28
287.913	0.29
288.367	0.29
288.822	0.29
289.276	0.28
289.731	0.28
290.185	0.26
290.639	0.27
291.094	0.26
291.548	0.28
292.002	0.28
292.456	0.28
292.91	0.29
293.365	0.27
293.819	0.27
294.273	0.28
294.726	0.31
295.18	0.28
295.634	0.28
296.088	0.27
296.542	0.29
296.995	0.28
297.449	0.31
297.903	0.3
298.356	0.28
298.81	0.3
299.263	0.29
299.716	0.28
300.17	0.28
300.623	0.3
301.076	0.29
301.53	0.29
301.983	0.31
302.436	0.28
302.889	0.29
303.342	0.3
303.795	0.3
304.248	0.3
304.701	0.3
305.153	0.31
305.606	0.28
306.059	0.3
306.512	0.31
306.964	0.3
307.417	0.29
307.869	0.33
308.322	0.31
308.774	0.3
309.227	0.31
309.679	0.33
310.131	0.33
310.584	0.32
311.036	0.34
311.488	0.35
311.94	0.32
312.392	0.34
312.844	0.36
313.296	0.35
313.748	0.35
314.2	0.35
314.652	0.37
315.103	0.37
315.555	0.38
316.007	0.38
316.458	0.38
316.91	0.4
317.361	0.39
317.813	0.4
318.264	0.42
318.716	0.4
319.167	0.42
319.618	0.41
320.07	0.43
320.521	0.42
320.972	0.44
321.423	0.42
321.874	0.44
322.325	0.45
322.776	0.45
323.227	0.46
323.678	0.46
324.128	0.47
324.579	0.48
325.03	0.48
325.48	0.5
325.931	0.5
326.382	0.51
326.832	0.52
327.283	0.53
327.733	0.54
328.183	0.55
328.634	0.56
329.084	0.58
329.534	0.57
329.984	0.6
330.434	0.61
330.884	0.62
331.334	0.64
331.784	0.64
332.234	0.66
332.684	0.67
333.134	0.67
333.584	0.7
334.034	0.71
334.483	0.7
334.933	0.73
335.382	0.74
335.832	0.76
336.281	0.76
336.731	0.79
337.18	0.8
337.63	0.82
338.079	0.82
338.528	0.83
338.977	0.85
339.426	0.86
339.876	0.89
340.325	0.91
340.774	0.9
341.223	0.92
341.671	0.95
342.12	0.95
342.569	0.96
343.018	0.99
343.467	0.99
343.915	1.01
344.364	1.02
344.812	1.03
345.261	1.04
345.709	1.07
346.158	1.08
346.606	1.09
347.054	1.1
347.503	1.11
347.951	1.15
348.399	1.14
348.847	1.15
349.295	1.18
349.743	1.18
350.191	1.2
350.639	1.22
351.087	1.23
351.535	1.24
351.983	1.26
352.43	1.26
352.878	1.28
353.326	1.31
353.773	1.33
354.221	1.35
354.668	1.35
355.116	1.36
355.563	1.37
356.01	1.37
356.458	1.4
356.905	1.41
357.352	1.44
357.799	1.44
358.246	1.46
358.693	1.47
359.14	1.49
359.587	1.49
360.034	1.49
360.481	1.5
360.928	1.54
361.375	1.54
361.821	1.56
362.268	1.55
362.714	1.54
363.161	1.56
363.608	1.57
364.054	1.59
364.5	1.57
364.947	1.6
365.393	1.61
365.839	1.61
366.285	1.62
366.732	1.6
367.178	1.62
367.624	1.61
368.07	1.62
368.516	1.59
368.962	1.6
369.408	1.59
369.853	1.57
370.299	1.58
370.745	1.56
371.19	1.57
371.636	1.55
372.082	1.54
372.527	1.53
372.973	1.53
373.418	1.51
373.863	1.51
374.309	1.49
374.754	1.46
375.199	1.47
375.644	1.48
376.09	1.45
376.535	1.44
376.98	1.46
377.425	1.44
377.87	1.44
378.314	1.44
378.759	1.43
379.204	1.43
379.649	1.43
380.093	1.43
380.538	1.44
380.983	1.45
381.427	1.45
381.872	1.46
382.316	1.46
382.76	1.46
383.205	1.46
383.649	1.46
384.093	1.45
384.537	1.45
384.982	1.46
385.426	1.46
385.87	1.46
386.314	1.43
386.758	1.42
387.201	1.4
387.645	1.39
388.089	1.38
388.533	1.38
388.976	1.36
389.42	1.38
389.864	1.36
390.307	1.38
390.751	1.39
391.194	1.41
391.638	1.42
392.081	1.43
392.524	1.46
392.967	1.45
393.411	1.48
393.854	1.48
394.297	1.48
394.74	1.49
395.183	1.48
395.626	1.47
396.069	1.46
396.512	1.45
396.954	1.44
397.397	1.41
397.84	1.39
398.282	1.38
398.725	1.36
399.168	1.3
399.61	1.26
400.052	1.2
400.495	1.14
400.937	1.09
401.38	1.02
401.822	0.97
402.264	0.9
402.706	0.85
403.148	0.78
403.59	0.75
404.032	0.71
404.474	0.66
404.916	0.61
405.358	0.58
405.8	0.55
406.241	0.52
406.683	0.5
407.125	0.47
407.566	0.45
408.008	0.42
408.449	0.4
408.891	0.39
409.332	0.38
409.774	0.36
410.215	0.34
410.656	0.34
411.097	0.33
411.539	0.32
411.98	0.31
412.421	0.29
412.862	0.29
413.303	0.27
413.744	0.28
414.184	0.27
414.625	0.26
415.066	0.26
415.507	0.26
415.947	0.26
416.388	0.25
416.828	0.25
417.269	0.24
417.709	0.24
418.15	0.25
418.59	0.24
419.03	0.25
419.471	0.24
419.911	0.23
420.351	0.23
420.791	0.24
421.231	0.24
421.671	0.23
422.111	0.23
422.551	0.24
422.991	0.23
423.431	0.21
423.87	0.25
424.31	0.23
424.75	0.23
425.189	0.23
425.629	0.23
426.068	0.25
426.508	0.23
426.947	0.23
427.386	0.22
427.826	0.21
428.265	0.23
428.704	0.23
429.143	0.22
429.582	0.22
430.021	0.22
430.46	0.23
430.899	0.23
431.338	0.23
431.777	0.24
432.216	0.24
432.655	0.24
433.093	0.24
433.532	0.22
433.971	0.23
434.409	0.23
434.848	0.24
435.286	0.23
435.724	0.24
436.163	0.24
436.601	0.25
437.039	0.24
437.477	0.24
437.916	0.25
438.354	0.26
438.792	0.26
439.23	0.25
439.668	0.26
440.105	0.23
440.543	0.24
440.981	0.24
441.419	0.24
441.856	0.25
442.294	0.24
442.732	0.26
443.169	0.27
443.607	0.25
444.044	0.24
444.481	0.25
444.919	0.26
445.356	0.26
445.793	0.25
446.23	0.25
446.668	0.26
447.105	0.26
447.542	0.25
447.979	0.26
448.416	0.28
448.852	0.25
449.289	0.27
449.726	0.28
450.163	0.27
450.599	0.27
451.036	0.27
451.473	0.29
451.909	0.29
452.346	0.27
452.782	0.27
453.218	0.27
453.655	0.27
454.091	0.26
454.527	0.28
454.963	0.27
455.399	0.28
455.835	0.27
456.271	0.29
456.707	0.29
457.143	0.28
457.579	0.29
458.015	0.28
458.451	0.29
458.886	0.28
459.322	0.31
459.758	0.3
460.193	0.3
460.629	0.3
461.064	0.31
461.5	0.31
461.935	0.29
462.37	0.31
462.805	0.3
463.241	0.31
463.676	0.3
464.111	0.31
464.546	0.31
464.981	0.32
465.416	0.3
465.851	0.33
466.286	0.33
466.72	0.32
467.155	0.33
467.59	0.32
468.024	0.34
468.459	0.33
468.893	0.33
469.328	0.34
469.762	0.33
470.197	0.35
470.631	0.36
471.065	0.35
471.5	0.34
471.934	0.36
472.368	0.35
472.802	0.37
473.236	0.37
473.67	0.37
474.104	0.38
474.538	0.38
474.972	0.39
475.405	0.38
475.839	0.39
476.273	0.41
476.706	0.41
477.14	0.41
477.573	0.4
478.007	0.42
478.44	0.42
478.874	0.42
479.307	0.43
479.74	0.43
480.173	0.44
480.606	0.43
481.04	0.44
481.473	0.45
481.906	0.45
482.339	0.46
482.771	0.46
483.204	0.46
483.637	0.47
484.07	0.47
484.502	0.48
484.935	0.48
485.368	0.49
485.8	0.49
486.233	0.49
486.665	0.49
487.098	0.5
487.53	0.5
487.962	0.51
488.394	0.51
488.827	0.52
489.259	0.52
489.691	0.52
490.123	0.53
490.555	0.53
490.987	0.55
491.418	0.55
491.85	0.54
492.282	0.55
492.714	0.56
493.145	0.56
493.577	0.56
494.009	0.57
494.44	0.57
494.872	0.58
495.303	0.58
495.734	0.58
496.166	0.58
496.597	0.6
497.028	0.6
497.459	0.6
497.89	0.61
498.321	0.61
498.752	0.61
499.183	0.62
499.614	0.62
500.045	0.63
500.476	0.63
500.906	0.64
501.337	0.64
501.768	0.65
502.198	0.65
502.629	0.66
503.059	0.66
503.49	0.66
503.92	0.66
504.35	0.67
504.781	0.67
505.211	0.68
505.641	0.68
506.071	0.69
506.501	0.69
506.931	0.69
507.361	0.7
507.791	0.7
508.221	0.7
508.651	0.71
509.081	0.71
509.51	0.72
509.94	0.72
510.37	0.72
510.799	0.73
511.229	0.73
511.658	0.74
512.087	0.74
512.517	0.74
512.946	0.74
513.375	0.75
513.804	0.75
514.234	0.75
514.663	0.76
515.092	0.76
515.521	0.76
515.95	0.77
516.378	0.77
516.807	0.77
517.236	0.78
517.665	0.78
518.093	0.78
518.522	0.79
518.951	0.78
519.379	0.79
519.807	0.78
520.236	0.8
520.664	0.8
521.093	0.8
521.521	0.8
521.949	0.81
522.377	0.81
522.805	0.82
523.233	0.81
523.661	0.82
524.089	0.82
524.517	0.82
524.945	0.83
525.373	0.83
525.8	0.83
526.228	0.83
526.656	0.84
527.083	0.84
527.511	0.84
527.938	0.84
528.366	0.84
528.793	0.85
529.22	0.85
529.648	0.85
530.075	0.86
530.502	0.85
530.929	0.86
531.356	0.86
531.783	0.86
532.21	0.86
532.637	0.86
533.064	0.87
533.49	0.87
533.917	0.88
534.344	0.88
534.771	0.88
535.197	0.88
535.624	0.88
536.05	0.88
536.477	0.89
536.903	0.88
537.329	0.9
537.755	0.9
538.182	0.9
538.608	0.9
539.034	0.9
539.46	0.9
539.886	0.91
540.312	0.9
540.738	0.91
541.164	0.91
541.589	0.91
542.015	0.91
542.441	0.92
542.867	0.92
543.292	0.91
543.718	0.92
544.143	0.92
544.569	0.93
544.994	0.92
545.419	0.93
545.845	0.93
546.27	0.94
546.695	0.93
547.12	0.93
547.545	0.94
547.97	0.94
548.395	0.94
548.82	0.94
549.245	0.94
549.67	0.94
550.094	0.94
550.519	0.94
550.944	0.95
551.368	0.94
551.793	0.94
552.217	0.95
552.642	0.94
553.066	0.95
553.49	0.94
553.915	0.95
554.339	0.95
554.763	0.95
555.187	0.95
555.611	0.95
556.035	0.95
556.459	0.94
556.883	0.94
557.307	0.94
557.731	0.94
558.154	0.94
558.578	0.94
559.002	0.94
559.425	0.95
559.849	0.94
560.272	0.94
560.696	0.94
561.119	0.94
561.543	0.94
561.966	0.93
562.389	0.94
562.812	0.93
563.235	0.94
563.658	0.93
564.081	0.93
564.504	0.94
564.927	0.93
565.35	0.94
565.773	0.93
566.196	0.92
566.618	0.93
567.041	0.93
567.463	0.92
567.886	0.92
568.309	0.93
568.731	0.92
569.153	0.92
569.576	0.91
569.998	0.92
570.42	0.92
570.842	0.92
571.264	0.92
571.686	0.91
572.108	0.91
572.53	0.91
572.952	0.91
573.374	0.91
573.796	0.91
574.218	0.9
574.639	0.9
575.061	0.9
575.483	0.9
575.904	0.9
576.326	0.9
576.747	0.9
577.168	0.9
577.59	0.9
578.011	0.9
578.432	0.89
578.853	0.89
579.274	0.89
579.695	0.89
580.116	0.89
580.537	0.89
580.958	0.89
581.379	0.89
581.8	0.89
582.221	0.89
582.641	0.89
583.062	0.89
583.482	0.89
583.903	0.89
584.323	0.89
584.744	0.89
585.164	0.89
585.584	0.89
586.005	0.89
586.425	0.89
586.845	0.89
587.265	0.89
587.685	0.89
588.105	0.89
588.525	0.89
588.945	0.89
589.365	0.89
589.785	0.89
590.204	0.9
590.624	0.9
591.044	0.9
591.463	0.9
591.883	0.91
592.302	0.91
592.721	0.91
593.141	0.91
593.56	0.91
593.979	0.91
594.399	0.91
594.818	0.91
595.237	0.91
595.656	0.91
596.075	0.91
596.494	0.91
596.913	0.92
597.331	0.91
597.75	0.92
598.169	0.92
598.587	0.92
599.006	0.92
599.425	0.91
599.843	0.91
600.262	0.91
600.68	0.91
601.098	0.91
601.517	0.91
601.935	0.91
602.353	0.91
602.771	0.91
603.189	0.91
603.607	0.9
604.025	0.9
604.443	0.9
604.861	0.9
605.279	0.89
605.696	0.89
606.114	0.89
606.532	0.88
606.949	0.88
607.367	0.88
607.784	0.87
608.202	0.87
608.619	0.87
609.036	0.86
609.454	0.86
609.871	0.86
610.288	0.86
610.705	0.85
611.122	0.84
611.539	0.85
611.956	0.84
612.373	0.84
612.79	0.83
613.207	0.83
613.623	0.83
614.04	0.83
614.457	0.82
614.873	0.82
615.29	0.81
615.706	0.81
616.122	0.81
616.539	0.8
616.955	0.8
617.371	0.8
617.788	0.79
618.204	0.79
618.62	0.79
619.036	0.78
619.452	0.78
619.868	0.77
620.284	0.77
620.699	0.77
621.115	0.76
621.531	0.76
621.946	0.76
622.362	0.75
622.778	0.75
623.193	0.74
623.608	0.74
624.024	0.73
624.439	0.73
624.854	0.72
625.27	0.72
625.685	0.72
626.1	0.71
626.515	0.7
626.93	0.7
627.345	0.7
627.76	0.69
628.175	0.68
628.589	0.68
629.004	0.68
629.419	0.67
629.833	0.66
630.248	0.66
630.663	0.65
631.077	0.65
631.491	0.64
631.906	0.64
632.32	0.63
632.734	0.63
633.148	0.62
633.563	0.62
633.977	0.61
634.391	0.6
634.805	0.6
635.219	0.59
635.632	0.59
636.046	0.58
636.46	0.58
636.874	0.57
637.287	0.56
637.701	0.56
638.115	0.55
638.528	0.55
638.941	0.55
639.355	0.54
639.768	0.54
640.181	0.53
640.595	0.53
641.008	0.52
641.421	0.52
641.834	0.52
642.247	0.51
642.66	0.51
643.073	0.5
643.486	0.51
643.898	0.5
644.311	0.49
644.724	0.49
645.136	0.49
645.549	0.48
645.961	0.48
646.374	0.48
646.786	0.48
647.199	0.47
647.611	0.47
648.023	0.47
648.435	0.47
648.847	0.47
649.26	0.46
649.672	0.46
650.084	0.46
650.495	0.46
650.907	0.46
651.319	0.45
651.731	0.45
652.143	0.45
652.554	0.45
652.966	0.45
653.377	0.44
653.789	0.44
654.2	0.44
654.612	0.45
655.023	0.45
655.434	0.42
655.845	0.41
656.256	0.43
656.668	0.46
657.079	0.44
657.49	0.44
657.901	0.44
658.311	0.44
658.722	0.43
659.133	0.43
659.544	0.43
659.954	0.43
660.365	0.43
660.775	0.43
661.186	0.43
661.596	0.43
662.007	0.42
662.417	0.42
662.827	0.42
663.238	0.42
663.648	0.42
664.058	0.42
664.468	0.41
664.878	0.41
665.288	0.41
665.698	0.41
666.108	0.41
666.517	0.4
666.927	0.4
667.337	0.4
667.746	0.4
668.156	0.4
668.565	0.4
668.975	0.39
669.384	0.39
669.794	0.38
670.203	0.38
670.612	0.38
671.021	0.38
671.43	0.38
671.84	0.37
672.249	0.37
672.658	0.37
673.066	0.37
673.475	0.36
673.884	0.36
674.293	0.36
674.702	0.36
675.11	0.35
675.519	0.35
675.927	0.35
676.336	0.34
676.744	0.34
677.152	0.34
677.561	0.33
677.969	0.33
678.377	0.33
678.785	0.32
679.193	0.32
679.601	0.32
680.009	0.31
680.417	0.31
680.825	0.31
681.233	0.3
681.641	0.3
682.048	0.3
682.456	0.3
682.864	0.29
683.271	0.29
683.679	0.29
684.086	0.28
684.493	0.28
684.901	0.28
685.308	0.27
685.715	0.27
686.122	0.27
686.529	0.26
686.936	0.26
687.343	0.26
687.75	0.26
688.157	0.25
688.564	0.25
688.971	0.25
689.378	0.24
689.784	0.24
690.191	0.24
690.597	0.24
691.004	0.23
691.41	0.23
691.817	0.23
692.223	0.23
692.629	0.22
693.035	0.22
693.442	0.22
693.848	0.21
694.254	0.21
694.66	0.21
695.066	0.21
695.471	0.21
695.877	0.21
696.283	0.2
696.689	0.2
697.094	0.2
697.5	0.2
697.906	0.2
698.311	0.2
698.716	0.19
699.122	0.19
699.527	0.19
699.932	0.19
700.338	0.19
700.743	0.19
701.148	0.18
701.553	0.18
701.958	0.18
702.363	0.18
702.768	0.18
703.173	0.18
703.577	0.18
703.982	0.18
704.387	0.18
704.791	0.18
705.196	0.18
705.6	0.18
706.005	0.17
706.409	0.18
706.814	0.17
707.218	0.17
707.622	0.17
708.026	0.17
708.43	0.17
708.834	0.17
709.238	0.17
709.642	0.17
710.046	0.17
710.45	0.17
710.854	0.17
711.257	0.17
711.661	0.17
712.065	0.17
712.468	0.17
712.872	0.17
713.275	0.17
713.679	0.17
714.082	0.17
714.485	0.17
714.888	0.17
715.291	0.17
715.695	0.18
716.098	0.17
716.501	0.17
716.904	0.18
717.306	0.18
717.709	0.18
718.112	0.18
718.515	0.18
718.917	0.18
719.32	0.18
719.723	0.18
720.125	0.18
720.527	0.18
720.93	0.18
721.332	0.18
721.734	0.18
722.137	0.18
722.539	0.19
722.941	0.18
723.343	0.19
723.745	0.18
724.147	0.19
724.549	0.19
724.95	0.19
725.352	0.19
725.754	0.19
726.156	0.19
726.557	0.19
726.959	0.19
727.36	0.19
727.762	0.19
728.163	0.19
728.564	0.19
728.966	0.2
729.367	0.19
729.768	0.19
730.169	0.19
730.57	0.19
730.971	0.19
731.372	0.2
731.773	0.19
732.174	0.19
732.574	0.19
732.975	0.19
733.376	0.19
733.776	0.19
734.177	0.19
734.577	0.19
734.978	0.19
735.378	0.19
735.778	0.19
736.179	0.19
736.579	0.19
736.979	0.19
737.379	0.19
737.779	0.19
738.179	0.19
738.579	0.19
738.979	0.19
739.379	0.19
739.778	0.19
740.178	0.19
740.578	0.19
740.977	0.18
741.377	0.18
741.776	0.18
742.176	0.18
742.575	0.18
742.974	0.18
743.374	0.18
743.773	0.18
744.172	0.18
744.571	0.18
744.97	0.18
745.369	0.18
745.768	0.18
746.167	0.18
746.565	0.17
746.964	0.17
747.363	0.17
747.761	0.17
748.16	0.17
748.559	0.17
748.957	0.17
749.355	0.17
749.754	0.17
750.152	0.17
750.55	0.16
750.948	0.17
751.347	0.16
751.745	0.16
752.143	0.16
752.541	0.16
752.938	0.16
753.336	0.16
753.734	0.16
754.132	0.16
754.529	0.15
754.927	0.16
755.325	0.15
755.722	0.16
756.119	0.15
756.517	0.15
756.914	0.15
757.311	0.15
757.709	0.15
758.106	0.15
758.503	0.15
758.9	0.15
759.297	0.15
759.694	0.15
760.091	0.15
760.488	0.15
760.884	0.15
761.281	0.15
761.678	0.15
762.074	0.15
762.471	0.15
762.867	0.15
763.264	0.15
763.66	0.15
764.056	0.15
764.453	0.15
764.849	0.15
765.245	0.15
765.641	0.14
766.037	0.15
766.433	0.15
766.829	0.15
767.225	0.15
767.621	0.15
768.016	0.15
768.412	0.15
768.808	0.15
769.203	0.15
769.599	0.15
769.994	0.15
770.389	0.15
770.785	0.15
771.18	0.15
771.575	0.15
771.971	0.15
772.366	0.15
772.761	0.15
773.156	0.15
773.551	0.15
773.945	0.15
774.34	0.15
774.735	0.15
775.13	0.15
775.524	0.15
775.919	0.15
776.314	0.15
776.708	0.15
777.103	0.15
777.497	0.15
777.891	0.16
778.285	0.16
778.68	0.16
779.074	0.16
779.468	0.16
779.862	0.16
780.256	0.16
780.65	0.16
781.044	0.16
781.438	0.16
781.831	0.16
782.225	0.16
782.619	0.16
783.012	0.16
783.406	0.16
783.799	0.16
784.193	0.16
784.586	0.16
784.979	0.16
785.372	0.17
785.766	0.16
786.159	0.17
786.552	0.17
786.945	0.17
787.338	0.17
787.731	0.17
788.123	0.17
788.516	0.17
788.909	0.17
789.302	0.17
789.694	0.17
790.087	0.17
790.479	0.17
790.872	0.17
791.264	0.18
791.656	0.18
792.049	0.18
792.441	0.18
792.833	0.18
793.225	0.18
793.617	0.18
794.009	0.18
794.401	0.18
794.793	0.18
795.185	0.18
795.576	0.18
795.968	0.18
796.36	0.18
796.751	0.18
797.143	0.19
797.534	0.19
797.926	0.19
798.317	0.19
798.708	0.19
799.1	0.19
799.491	0.19
799.882	0.19
800.273	0.19
800.664	0.19
801.055	0.19
801.446	0.2
801.837	0.19
802.227	0.19
802.618	0.2
803.009	0.2
803.399	0.2
803.79	0.2
804.18	0.2
804.571	0.2
804.961	0.2
805.351	0.2
805.742	0.2
806.132	0.2
806.522	0.2
806.912	0.21
807.302	0.21
807.692	0.21
808.082	0.21
808.472	0.21
808.862	0.21
809.251	0.21
809.641	0.21
810.031	0.21
810.42	0.21
810.81	0.21
811.199	0.21
811.589	0.21
811.978	0.21
812.367	0.22
812.756	0.21
813.146	0.21
813.535	0.22
813.924	0.22
814.313	0.22
814.702	0.22
815.091	0.22
815.479	0.22
815.868	0.22
816.257	0.22
816.645	0.22
817.034	0.22
817.423	0.22
817.811	0.22
818.199	0.22
818.588	0.23
818.976	0.22
819.364	0.23
819.753	0.22
820.141	0.23
820.529	0.23
820.917	0.23
821.305	0.23
821.693	0.23
822.08	0.23
822.468	0.23
822.856	0.23
823.244	0.23
823.631	0.23
824.019	0.23
824.406	0.23
824.794	0.23
825.181	0.23
825.568	0.23
825.956	0.24
826.343	0.24
826.73	0.24
827.117	0.24
827.504	0.24
827.891	0.24
828.278	0.24
828.665	0.24
829.052	0.24
829.438	0.24
829.825	0.24
830.212	0.24
830.598	0.24
830.985	0.24
831.371	0.24
831.757	0.24
832.144	0.24
832.53	0.24
832.916	0.24
833.302	0.24
833.688	0.24
834.075	0.25
834.461	0.25
834.846	0.25
835.232	0.24
835.618	0.25
836.004	0.25
836.39	0.25
836.775	0.25
837.161	0.25
837.546	0.25
837.932	0.25
838.317	0.25
838.702	0.25
839.088	0.25
839.473	0.25
839.858	0.25
840.243	0.25
840.628	0.25
841.013	0.25
841.398	0.25
841.783	0.25
842.168	0.25
842.553	0.25
842.937	0.25
843.322	0.25
843.707	0.25
844.091	0.26
844.476	0.25
844.86	0.26
845.244	0.26
845.629	0.25
846.013	0.26
846.397	0.26
846.781	0.26
847.165	0.26
847.549	0.26
847.933	0.26
848.317	0.26
848.701	0.26
849.085	0.26
849.468	0.26
849.852	0.26
850.236	0.26
850.619	0.26
851.003	0.26
851.386	0.26
851.769	0.26
852.153	0.26
852.536	0.26
852.919	0.26
853.302	0.26
853.685	0.26
854.068	0.26
854.451	0.26
854.834	0.26
855.217	0.26
855.6	0.26
855.982	0.26
856.365	0.26
856.748	0.26
857.13	0.26
857.513	0.26
857.895	0.26
858.277	0.26
858.66	0.26
859.042	0.26
859.424	0.26
859.806	0.26
860.188	0.26
860.57	0.26
860.952	0.26
861.334	0.26
861.716	0.27
862.098	0.26
862.48	0.26
862.861	0.26
863.243	0.26
863.624	0.26
864.006	0.27
864.387	0.27
864.769	0.27
865.15	0.26
865.531	0.26
865.912	0.26
866.294	0.26
866.675	0.27
867.056	0.27
867.437	0.26
867.818	0.27
868.198	0.27
868.579	0.26
868.96	0.26
869.341	0.27
869.721	0.27
870.102	0.26
870.482	0.27
870.863	0.27
871.243	0.27
871.623	0.27
872.003	0.27
872.384	0.26
872.764	0.26
873.144	0.26
873.524	0.27
873.904	0.26
874.284	0.27
874.664	0.27
875.043	0.26
875.423	0.26
875.803	0.26
876.182	0.27
876.562	0.26
876.941	0.26
877.321	0.27
877.7	0.27
878.079	0.27
878.459	0.27
878.838	0.26
879.217	0.27
879.596	0.26
879.975	0.26
880.354	0.26
880.733	0.27
881.112	0.26
881.491	0.26
881.869	0.26
882.248	0.26
882.627	0.26
883.005	0.26
883.384	0.26
883.762	0.26
884.14	0.26
884.519	0.26
884.897	0.26
885.275	0.26
885.653	0.26
886.031	0.26
886.409	0.26
886.787	0.26
887.165	0.26
887.543	0.26
887.921	0.26
888.298	0.26
888.676	0.26
889.054	0.26
889.431	0.26
889.809	0.26
890.186	0.26
890.563	0.26
890.941	0.26
891.318	0.26
891.695	0.26
892.072	0.26
892.449	0.26
892.826	0.26
893.203	0.26
893.58	0.26
893.957	0.26
894.334	0.26
894.71	0.26
895.087	0.26
895.464	0.26
895.84	0.26
896.217	0.26
896.593	0.26
896.969	0.26
897.346	0.25
897.722	0.26
898.098	0.26
898.474	0.25
898.85	0.25
899.226	0.25
899.602	0.26
899.978	0.25
900.354	0.25
900.73	0.25
901.105	0.25
901.481	0.25
901.857	0.25
902.232	0.25
902.608	0.25
902.983	0.25
903.358	0.25
903.734	0.25
904.109	0.25
904.484	0.25
904.859	0.25
905.234	0.25
905.609	0.25
905.984	0.25
906.359	0.25
906.734	0.25
907.108	0.25
907.483	0.25
907.858	0.25
908.232	0.25
908.607	0.25
908.981	0.25
909.356	0.25
909.73	0.25
910.104	0.25
910.478	0.24
910.853	0.25
911.227	0.25
911.601	0.24
911.975	0.25
912.349	0.24
912.722	0.24
913.096	0.24
913.47	0.24
913.844	0.24
914.217	0.24
914.591	0.24
914.964	0.24
915.338	0.24
915.711	0.24
916.084	0.24
916.458	0.24
916.831	0.24
917.204	0.24
917.577	0.24
917.95	0.24
918.323	0.24
918.696	0.24
919.069	0.23
919.441	0.24
919.814	0.24
920.187	0.24
920.559	0.24
920.932	0.24
921.304	0.24
921.677	0.23
922.049	0.23
922.421	0.23
922.794	0.23
923.166	0.23
923.538	0.23
923.91	0.23
924.282	0.23
924.654	0.24
925.026	0.23
925.398	0.23
925.769	0.23
926.141	0.23
926.513	0.23
926.884	0.23
927.256	0.23
927.627	0.23
927.999	0.23
928.37	0.23
928.741	0.23
929.113	0.23
929.484	0.23
929.855	0.23
930.226	0.23
930.597	0.23
930.968	0.23
931.339	0.23
931.709	0.22
932.08	0.22
932.451	0.23
932.821	0.22
933.192	0.23
933.562	0.22
933.933	0.22
934.303	0.22
934.673	0.22
935.044	0.22
935.414	0.22
935.784	0.22
936.154	0.22
936.524	0.22
936.894	0.22
937.264	0.22
937.634	0.22
938.004	0.22
938.373	0.22
938.743	0.22
939.113	0.22
939.482	0.22
939.852	0.22
940.221	0.21
940.59	0.22
940.96	0.22
941.329	0.22
941.698	0.21
942.067	0.22
942.436	0.21
942.805	0.22
943.174	0.21
943.543	0.22
943.912	0.21
944.28	0.21
944.649	0.21
945.018	0.21
945.386	0.21
945.755	0.21
946.123	0.21
946.492	0.21
946.86	0.21
947.228	0.21
947.596	0.21
947.965	0.21
948.333	0.21
948.701	0.21
949.069	0.21
949.437	0.21
949.804	0.21
950.172	0.21
950.54	0.2
950.908	0.2
951.275	0.21
951.643	0.2
952.01	0.2
952.378	0.2
952.745	0.2
953.112	0.2
953.479	0.2
953.847	0.2
954.214	0.2
954.581	0.2
954.948	0.2
955.315	0.2
955.682	0.2
956.048	0.2
956.415	0.2
956.782	0.2
957.148	0.2
957.515	0.19
957.881	0.2
958.248	0.2
958.614	0.2
958.981	0.2
959.347	0.2
959.713	0.2
960.079	0.19
960.445	0.2
960.811	0.19
961.177	0.19
961.543	0.19
961.909	0.19
962.275	0.19
962.641	0.19
963.006	0.19
963.372	0.19
963.737	0.19
964.103	0.19
964.468	0.19
964.834	0.19
965.199	0.19
965.564	0.19
965.929	0.19
966.294	0.19
966.659	0.19
967.024	0.19
967.389	0.19
967.754	0.18
968.119	0.19
968.484	0.19
968.848	0.18
969.213	0.18
969.578	0.18
969.942	0.18
970.307	0.18
970.671	0.18
971.035	0.18
971.399	0.18
971.764	0.18
972.128	0.18
972.492	0.18
972.856	0.18
973.22	0.18
973.584	0.18
973.948	0.18
974.311	0.18
974.675	0.17
975.039	0.18
975.402	0.18
975.766	0.18
976.129	0.18
976.493	0.18
976.856	0.18
977.219	0.18
977.582	0.17
977.946	0.18
978.309	0.17
978.672	0.17
979.035	0.17
979.398	0.17
979.761	0.17
980.123	0.17
980.486	0.17
980.849	0.17
981.211	0.17
981.574	0.17
981.936	0.17
982.299	0.17
982.661	0.17
983.023	0.17
983.386	0.17
983.748	0.17
984.11	0.17
984.472	0.17
984.834	0.17
985.196	0.17
985.558	0.17
985.92	0.17
986.281	0.17
986.643	0.16
987.005	0.16
987.366	0.17
987.728	0.17
988.089	0.16
988.451	0.16
988.812	0.16
989.173	0.17
989.534	0.16
989.895	0.16
990.257	0.17
990.618	0.16
990.979	0.16
991.339	0.16
991.7	0.16
992.061	0.16
992.422	0.15
992.782	0.16
993.143	0.16
993.503	0.16
993.864	0.16
994.224	0.16
994.585	0.16
994.945	0.16
995.305	0.16
995.665	0.16
996.025	0.16
996.385	0.16
996.745	0.16
997.105	0.16
997.465	0.15
997.825	0.16
998.185	0.16
998.544	0.16
998.904	0.15
999.263	0.16
999.623	0.16
999.982	0.15
1000.342	0.15
1000.701	0.15
1001.06	0.16
1001.419	0.15
1001.778	0.16
1002.138	0.15
1002.497	0.15
1002.855	0.15
1003.214	0.15
1003.573	0.15
1003.932	0.15
1004.29	0.15
1004.649	0.15
1005.008	0.15
1005.366	0.15
1005.725	0.15
1006.083	0.15
1006.441	0.15
1006.799	0.15
1007.158	0.15
1007.516	0.14
1007.874	0.14
1008.232	0.14
1008.59	0.15
1008.948	0.14
1009.305	0.14
1009.663	0.14
1010.021	0.15
1010.379	0.15
1010.736	0.14
1011.094	0.15
1011.451	0.14
1011.808	0.14
1012.166	0.15
1012.523	0.14
1012.88	0.14
1013.237	0.14
1013.594	0.14
1013.951	0.14
1014.308	0.14
1014.665	0.14
1015.022	0.14
1015.379	0.14
1015.735	0.14
1016.092	0.14
1016.449	0.14
1016.805	0.14
1017.162	0.14
1017.518	0.13
1017.874	0.14
1018.231	0.14
1018.587	0.14
1018.943	0.14
1019.299	0.14
1019.655	0.14
1020.011	0.13
1020.367	0.13
1020.723	0.14
1021.078	0.13
1021.434	0.13
1021.79	0.14
1022.145	0.13
1022.501	0.14
1022.856	0.13
1023.212	0.13
1023.567	0.13
1023.922	0.13
1024.278	0.13
1024.633	0.13
1024.988	0.13
1025.343	0.13
1025.698	0.14
1026.053	0.13
1026.408	0.13
1026.762	0.13
1027.117	0.13
1027.472	0.14
1027.826	0.13
1028.181	0.13
1028.535	0.13
1028.89	0.13
1029.244	0.13
1029.598	0.13
1029.952	0.13
1030.307	0.13
1030.661	0.14
1031.015	0.13
1031.369	0.13
1031.723	0.14
1032.076	0.13
