Data from Rubpy_EV_EDTA_TU(3000)_Blank_Blue_Flow_Absorbance__583__11-05-36-563.txt Node

Date: Mon Aug 03 11:05:36 BST 2026
User: fpm-admin
Spectrometer: SR600986
Trigger mode: 0
Integration Time (sec): 8.000000E-3
Scans to average: 3
Nonlinearity correction enabled: true
Boxcar width: 0
Storing dark spectrum: false
XAxis mode: Wavelengths
Number of Pixels in Spectrum: 2048
>>>>>Begin Spectral Data<<<<<
188.613	0.09
189.078	0.09
189.542	0.1
190.007	0.09
190.472	0.08
190.936	0.09
191.401	0.1
191.865	0.09
192.33	0.09
192.794	0.11
193.258	0.09
193.723	0.1
194.187	0.1
194.651	0.1
195.115	0.08
195.579	0.08
196.043	0.09
196.507	0.07
196.971	0.08
197.435	0.08
197.899	0.09
198.363	0.09
198.827	0.1
199.29	0.08
199.754	0.11
200.218	0.09
200.681	0.09
201.145	0.09
201.608	0.1
202.072	0.09
202.535	0.1
202.998	0.09
203.462	0.09
203.925	0.1
204.388	0.1
204.851	0.09
205.314	0.1
205.777	0.08
206.24	0.09
206.703	0.07
207.166	0.09
207.629	0.1
208.092	0.09
208.555	0.09
209.018	0.1
209.48	0.11
209.943	0.09
210.406	0.09
210.868	0.06
211.331	0.1
211.793	0.08
212.256	0.1
212.718	0.09
213.18	0.1
213.643	0.11
214.105	0.08
214.567	0.09
215.029	0.09
215.491	0.09
215.953	0.1
216.415	0.08
216.877	0.09
217.339	0.08
217.801	0.09
218.263	0.09
218.725	0.1
219.186	0.1
219.648	0.09
220.11	0.1
220.571	0.09
221.033	0.09
221.494	0.1
221.956	0.09
222.417	0.06
222.878	0.09
223.34	0.08
223.801	0.07
224.262	0.08
224.723	0.09
225.185	0.08
225.646	0.08
226.107	0.1
226.568	0.09
227.029	0.11
227.489	0.07
227.95	0.11
228.411	0.07
228.872	0.1
229.332	0.08
229.793	0.08
230.254	0.1
230.714	0.1
231.175	0.08
231.635	0.08
232.096	0.08
232.556	0.1
233.016	0.08
233.477	0.09
233.937	0.08
234.397	0.11
234.857	0.09
235.317	0.09
235.777	0.08
236.237	0.08
236.697	0.11
237.157	0.07
237.617	0.11
238.077	0.11
238.537	0.08
238.996	0.1
239.456	0.09
239.916	0.09
240.375	0.09
240.835	0.09
241.294	0.07
241.754	0.1
242.213	0.1
242.672	0.1
243.132	0.08
243.591	0.1
244.05	0.09
244.509	0.09
244.968	0.08
245.427	0.09
245.886	0.09
246.345	0.09
246.804	0.09
247.263	0.1
247.722	0.11
248.181	0.09
248.639	0.09
249.098	0.09
249.557	0.09
250.015	0.09
250.474	0.1
250.932	0.09
251.391	0.09
251.849	0.09
252.308	0.09
252.766	0.08
253.224	0.08
253.682	0.08
254.14	0.1
254.599	0.09
255.057	0.09
255.515	0.1
255.973	0.09
256.431	0.07
256.888	0.11
257.346	0.09
257.804	0.09
258.262	0.11
258.719	0.08
259.177	0.08
259.635	0.1
260.092	0.1
260.55	0.08
261.007	0.09
261.465	0.07
261.922	0.09
262.379	0.07
262.836	0.08
263.294	0.1
263.751	0.1
264.208	0.07
264.665	0.07
265.122	0.09
265.579	0.12
266.036	0.1
266.493	0.11
266.95	0.09
267.406	0.08
267.863	0.08
268.32	0.08
268.777	0.09
269.233	0.09
269.69	0.08
270.146	0.1
270.603	0.11
271.059	0.09
271.515	0.1
271.972	0.11
272.428	0.1
272.884	0.1
273.34	0.08
273.796	0.1
274.253	0.09
274.709	0.1
275.165	0.11
275.62	0.1
276.076	0.1
276.532	0.11
276.988	0.09
277.444	0.07
277.899	0.1
278.355	0.09
278.811	0.08
279.266	0.1
279.722	0.1
280.177	0.1
280.633	0.09
281.088	0.07
281.543	0.09
281.998	0.07
282.454	0.08
282.909	0.1
283.364	0.08
283.819	0.09
284.274	0.1
284.729	0.09
285.184	0.09
285.639	0.08
286.094	0.07
286.548	0.1
287.003	0.1
287.458	0.1
287.913	0.1
288.367	0.1
288.822	0.09
289.276	0.09
289.731	0.09
290.185	0.1
290.639	0.09
291.094	0.09
291.548	0.11
292.002	0.09
292.456	0.11
292.91	0.1
293.365	0.09
293.819	0.08
294.273	0.1
294.726	0.11
295.18	0.1
295.634	0.11
296.088	0.09
296.542	0.1
296.995	0.09
297.449	0.11
297.903	0.11
298.356	0.1
298.81	0.11
299.263	0.1
299.716	0.11
300.17	0.09
300.623	0.1
301.076	0.1
301.53	0.09
301.983	0.09
302.436	0.1
302.889	0.09
303.342	0.11
303.795	0.09
304.248	0.1
304.701	0.09
305.153	0.11
305.606	0.1
306.059	0.08
306.512	0.11
306.964	0.09
307.417	0.12
307.869	0.1
308.322	0.1
308.774	0.11
309.227	0.11
309.679	0.1
310.131	0.12
310.584	0.1
311.036	0.12
311.488	0.12
311.94	0.12
312.392	0.11
312.844	0.11
313.296	0.13
313.748	0.13
314.2	0.12
314.652	0.14
315.103	0.12
315.555	0.14
316.007	0.14
316.458	0.13
316.91	0.14
317.361	0.13
317.813	0.15
318.264	0.12
318.716	0.15
319.167	0.14
319.618	0.13
320.07	0.14
320.521	0.14
320.972	0.15
321.423	0.14
321.874	0.14
322.325	0.13
322.776	0.14
323.227	0.14
323.678	0.15
324.128	0.15
324.579	0.14
325.03	0.15
325.48	0.15
325.931	0.16
326.382	0.16
326.832	0.15
327.283	0.17
327.733	0.17
328.183	0.16
328.634	0.17
329.084	0.17
329.534	0.18
329.984	0.18
330.434	0.18
330.884	0.18
331.334	0.19
331.784	0.19
332.234	0.19
332.684	0.2
333.134	0.19
333.584	0.2
334.034	0.2
334.483	0.2
334.933	0.21
335.382	0.21
335.832	0.22
336.281	0.21
336.731	0.22
337.18	0.22
337.63	0.23
338.079	0.23
338.528	0.23
338.977	0.25
339.426	0.24
339.876	0.25
340.325	0.26
340.774	0.26
341.223	0.26
341.671	0.27
342.12	0.27
342.569	0.27
343.018	0.27
343.467	0.28
343.915	0.29
344.364	0.3
344.812	0.3
345.261	0.3
345.709	0.31
346.158	0.31
346.606	0.31
347.054	0.31
347.503	0.32
347.951	0.33
348.399	0.33
348.847	0.34
349.295	0.35
349.743	0.35
350.191	0.36
350.639	0.37
351.087	0.37
351.535	0.38
351.983	0.39
352.43	0.39
352.878	0.4
353.326	0.41
353.773	0.41
354.221	0.42
354.668	0.43
355.116	0.43
355.563	0.45
356.01	0.45
356.458	0.46
356.905	0.47
357.352	0.47
357.799	0.48
358.246	0.49
358.693	0.5
359.14	0.5
359.587	0.5
360.034	0.51
360.481	0.52
360.928	0.52
361.375	0.53
361.821	0.53
362.268	0.54
362.714	0.54
363.161	0.55
363.608	0.55
364.054	0.56
364.5	0.57
364.947	0.57
365.393	0.58
365.839	0.59
366.285	0.59
366.732	0.59
367.178	0.59
367.624	0.59
368.07	0.59
368.516	0.59
368.962	0.59
369.408	0.58
369.853	0.58
370.299	0.57
370.745	0.57
371.19	0.56
371.636	0.56
372.082	0.55
372.527	0.55
372.973	0.54
373.418	0.54
373.863	0.54
374.309	0.54
374.754	0.53
375.199	0.53
375.644	0.54
376.09	0.53
376.535	0.54
376.98	0.54
377.425	0.54
377.87	0.54
378.314	0.55
378.759	0.55
379.204	0.55
379.649	0.55
380.093	0.57
380.538	0.57
380.983	0.59
381.427	0.6
381.872	0.6
382.316	0.62
382.76	0.63
383.205	0.63
383.649	0.64
384.093	0.65
384.537	0.64
384.982	0.65
385.426	0.64
385.87	0.65
386.314	0.64
386.758	0.63
387.201	0.63
387.645	0.62
388.089	0.63
388.533	0.62
388.976	0.62
389.42	0.63
389.864	0.63
390.307	0.65
390.751	0.66
391.194	0.68
391.638	0.69
392.081	0.72
392.524	0.73
392.967	0.75
393.411	0.78
393.854	0.8
394.297	0.83
394.74	0.82
395.183	0.84
395.626	0.84
396.069	0.83
396.512	0.83
396.954	0.81
397.397	0.79
397.84	0.77
398.282	0.74
398.725	0.7
399.168	0.67
399.61	0.63
400.052	0.59
400.495	0.55
400.937	0.52
401.38	0.48
401.822	0.45
402.264	0.42
402.706	0.38
403.148	0.34
403.59	0.33
404.032	0.3
404.474	0.28
404.916	0.27
405.358	0.25
405.8	0.23
406.241	0.22
406.683	0.2
407.125	0.19
407.566	0.18
408.008	0.18
408.449	0.16
408.891	0.16
409.332	0.15
409.774	0.14
410.215	0.14
410.656	0.14
411.097	0.14
411.539	0.12
411.98	0.13
412.421	0.12
412.862	0.11
413.303	0.1
413.744	0.11
414.184	0.11
414.625	0.1
415.066	0.11
415.507	0.1
415.947	0.11
416.388	0.1
416.828	0.1
417.269	0.1
417.709	0.1
418.15	0.09
418.59	0.09
419.03	0.09
419.471	0.1
419.911	0.08
420.351	0.09
420.791	0.09
421.231	0.09
421.671	0.1
422.111	0.09
422.551	0.09
422.991	0.09
423.431	0.08
423.87	0.1
424.31	0.08
424.75	0.08
425.189	0.09
425.629	0.1
426.068	0.09
426.508	0.09
426.947	0.08
427.386	0.08
427.826	0.09
428.265	0.07
428.704	0.1
429.143	0.08
429.582	0.09
430.021	0.08
430.46	0.08
430.899	0.09
431.338	0.08
431.777	0.09
432.216	0.08
432.655	0.1
433.093	0.08
433.532	0.08
433.971	0.06
434.409	0.09
434.848	0.08
435.286	0.08
435.724	0.08
436.163	0.09
436.601	0.1
437.039	0.08
437.477	0.08
437.916	0.09
438.354	0.09
438.792	0.09
439.23	0.1
439.668	0.08
440.105	0.08
440.543	0.08
440.981	0.09
441.419	0.09
441.856	0.09
442.294	0.07
442.732	0.09
443.169	0.09
443.607	0.09
444.044	0.09
444.481	0.1
444.919	0.08
445.356	0.1
445.793	0.09
446.23	0.08
446.668	0.08
447.105	0.09
447.542	0.09
447.979	0.11
448.416	0.1
448.852	0.08
449.289	0.08
449.726	0.09
450.163	0.1
450.599	0.09
451.036	0.09
451.473	0.11
451.909	0.1
452.346	0.09
452.782	0.09
453.218	0.09
453.655	0.09
454.091	0.08
454.527	0.08
454.963	0.1
455.399	0.1
455.835	0.09
456.271	0.09
456.707	0.1
457.143	0.08
457.579	0.1
458.015	0.09
458.451	0.09
458.886	0.1
459.322	0.1
459.758	0.1
460.193	0.09
460.629	0.1
461.064	0.09
461.5	0.1
461.935	0.09
462.37	0.09
462.805	0.09
463.241	0.1
463.676	0.1
464.111	0.09
464.546	0.11
464.981	0.1
465.416	0.1
465.851	0.11
466.286	0.09
466.72	0.1
467.155	0.11
467.59	0.1
468.024	0.1
468.459	0.09
468.893	0.1
469.328	0.11
469.762	0.11
470.197	0.11
470.631	0.1
471.065	0.11
471.5	0.1
471.934	0.09
472.368	0.09
472.802	0.11
473.236	0.11
473.67	0.1
474.104	0.11
474.538	0.11
474.972	0.1
475.405	0.11
475.839	0.1
476.273	0.11
476.706	0.1
477.14	0.11
477.573	0.11
478.007	0.11
478.44	0.12
478.874	0.11
479.307	0.11
479.74	0.11
480.173	0.11
480.606	0.11
481.04	0.11
481.473	0.11
481.906	0.11
482.339	0.11
482.771	0.11
483.204	0.12
483.637	0.12
484.07	0.12
484.502	0.12
484.935	0.12
485.368	0.12
485.8	0.12
486.233	0.12
486.665	0.12
487.098	0.12
487.53	0.13
487.962	0.13
488.394	0.13
488.827	0.13
489.259	0.13
489.691	0.13
490.123	0.13
490.555	0.13
490.987	0.13
491.418	0.13
491.85	0.13
492.282	0.13
492.714	0.14
493.145	0.14
493.577	0.14
494.009	0.14
494.44	0.14
494.872	0.14
495.303	0.14
495.734	0.14
496.166	0.14
496.597	0.14
497.028	0.15
497.459	0.15
497.89	0.15
498.321	0.15
498.752	0.15
499.183	0.15
499.614	0.15
500.045	0.15
500.476	0.15
500.906	0.16
501.337	0.15
501.768	0.16
502.198	0.16
502.629	0.16
503.059	0.16
503.49	0.16
503.92	0.17
504.35	0.16
504.781	0.16
505.211	0.17
505.641	0.17
506.071	0.17
506.501	0.17
506.931	0.17
507.361	0.17
507.791	0.17
508.221	0.18
508.651	0.18
509.081	0.18
509.51	0.18
509.94	0.18
510.37	0.18
510.799	0.18
511.229	0.18
511.658	0.18
512.087	0.19
512.517	0.19
512.946	0.19
513.375	0.19
513.804	0.19
514.234	0.19
514.663	0.19
515.092	0.19
515.521	0.19
515.95	0.2
516.378	0.2
516.807	0.2
517.236	0.2
517.665	0.2
518.093	0.2
518.522	0.21
518.951	0.21
519.379	0.21
519.807	0.21
520.236	0.21
520.664	0.21
521.093	0.21
521.521	0.21
521.949	0.21
522.377	0.21
522.805	0.22
523.233	0.21
523.661	0.22
524.089	0.22
524.517	0.22
524.945	0.22
525.373	0.22
525.8	0.23
526.228	0.22
526.656	0.23
527.083	0.23
527.511	0.23
527.938	0.23
528.366	0.23
528.793	0.23
529.22	0.23
529.648	0.23
530.075	0.23
530.502	0.24
530.929	0.24
531.356	0.24
531.783	0.24
532.21	0.24
532.637	0.24
533.064	0.24
533.49	0.24
533.917	0.24
534.344	0.24
534.771	0.25
535.197	0.24
535.624	0.24
536.05	0.25
536.477	0.25
536.903	0.25
537.329	0.25
537.755	0.25
538.182	0.25
538.608	0.26
539.034	0.26
539.46	0.26
539.886	0.26
540.312	0.26
540.738	0.26
541.164	0.26
541.589	0.26
542.015	0.27
542.441	0.27
542.867	0.27
543.292	0.27
543.718	0.27
544.143	0.27
544.569	0.27
544.994	0.27
545.419	0.27
545.845	0.28
546.27	0.28
546.695	0.28
547.12	0.28
547.545	0.28
547.97	0.28
548.395	0.28
548.82	0.28
549.245	0.29
549.67	0.29
550.094	0.29
550.519	0.29
550.944	0.29
551.368	0.29
551.793	0.29
552.217	0.29
552.642	0.29
553.066	0.29
553.49	0.29
553.915	0.29
554.339	0.29
554.763	0.29
555.187	0.29
555.611	0.29
556.035	0.3
556.459	0.29
556.883	0.3
557.307	0.3
557.731	0.3
558.154	0.3
558.578	0.3
559.002	0.3
559.425	0.3
559.849	0.3
560.272	0.3
560.696	0.3
561.119	0.3
561.543	0.3
561.966	0.3
562.389	0.3
562.812	0.3
563.235	0.3
563.658	0.3
564.081	0.3
564.504	0.3
564.927	0.3
565.35	0.3
565.773	0.3
566.196	0.3
566.618	0.3
567.041	0.3
567.463	0.3
567.886	0.3
568.309	0.3
568.731	0.3
569.153	0.3
569.576	0.3
569.998	0.3
570.42	0.3
570.842	0.3
571.264	0.3
571.686	0.3
572.108	0.3
572.53	0.3
572.952	0.3
573.374	0.3
573.796	0.3
574.218	0.3
574.639	0.3
575.061	0.3
575.483	0.3
575.904	0.3
576.326	0.3
576.747	0.3
577.168	0.3
577.59	0.3
578.011	0.3
578.432	0.3
578.853	0.3
579.274	0.3
579.695	0.3
580.116	0.3
580.537	0.3
580.958	0.3
581.379	0.3
581.8	0.3
582.221	0.3
582.641	0.3
583.062	0.3
583.482	0.3
583.903	0.31
584.323	0.31
584.744	0.31
585.164	0.3
585.584	0.3
586.005	0.31
586.425	0.31
586.845	0.31
587.265	0.31
587.685	0.31
588.105	0.31
588.525	0.31
588.945	0.31
589.365	0.31
589.785	0.31
590.204	0.31
590.624	0.32
591.044	0.32
591.463	0.32
591.883	0.33
592.302	0.32
592.721	0.32
593.141	0.33
593.56	0.32
593.979	0.32
594.399	0.32
594.818	0.33
595.237	0.33
595.656	0.33
596.075	0.33
596.494	0.33
596.913	0.33
597.331	0.33
597.75	0.33
598.169	0.33
598.587	0.34
599.006	0.33
599.425	0.33
599.843	0.33
600.262	0.33
600.68	0.33
601.098	0.33
601.517	0.33
601.935	0.33
602.353	0.33
602.771	0.33
603.189	0.33
603.607	0.33
604.025	0.33
604.443	0.33
604.861	0.33
605.279	0.33
605.696	0.33
606.114	0.33
606.532	0.33
606.949	0.32
607.367	0.33
607.784	0.32
608.202	0.32
608.619	0.32
609.036	0.32
609.454	0.32
609.871	0.32
610.288	0.32
610.705	0.32
611.122	0.32
611.539	0.32
611.956	0.32
612.373	0.31
612.79	0.31
613.207	0.31
613.623	0.31
614.04	0.31
614.457	0.31
614.873	0.31
615.29	0.31
615.706	0.3
616.122	0.3
616.539	0.3
616.955	0.3
617.371	0.3
617.788	0.3
618.204	0.3
618.62	0.3
619.036	0.29
619.452	0.29
619.868	0.29
620.284	0.29
620.699	0.29
621.115	0.29
621.531	0.29
621.946	0.29
622.362	0.28
622.778	0.28
623.193	0.28
623.608	0.28
624.024	0.28
624.439	0.28
624.854	0.27
625.27	0.27
625.685	0.27
626.1	0.27
626.515	0.27
626.93	0.26
627.345	0.26
627.76	0.26
628.175	0.26
628.589	0.26
629.004	0.26
629.419	0.26
629.833	0.25
630.248	0.25
630.663	0.25
631.077	0.25
631.491	0.24
631.906	0.24
632.32	0.24
632.734	0.24
633.148	0.24
633.563	0.23
633.977	0.23
634.391	0.23
634.805	0.23
635.219	0.22
635.632	0.22
636.046	0.22
636.46	0.22
636.874	0.22
637.287	0.22
637.701	0.21
638.115	0.21
638.528	0.21
638.941	0.21
639.355	0.2
639.768	0.2
640.181	0.21
640.595	0.2
641.008	0.2
641.421	0.2
641.834	0.19
642.247	0.19
642.66	0.19
643.073	0.19
643.486	0.19
643.898	0.19
644.311	0.19
644.724	0.19
645.136	0.19
645.549	0.18
645.961	0.19
646.374	0.19
646.786	0.18
647.199	0.18
647.611	0.18
648.023	0.18
648.435	0.18
648.847	0.18
649.26	0.18
649.672	0.18
650.084	0.18
650.495	0.18
650.907	0.18
651.319	0.17
651.731	0.17
652.143	0.18
652.554	0.18
652.966	0.18
653.377	0.18
653.789	0.17
654.2	0.17
654.612	0.18
655.023	0.18
655.434	0.14
655.845	0.13
656.256	0.15
656.668	0.18
657.079	0.17
657.49	0.17
657.901	0.17
658.311	0.17
658.722	0.17
659.133	0.17
659.544	0.17
659.954	0.17
660.365	0.17
660.775	0.17
661.186	0.17
661.596	0.17
662.007	0.17
662.417	0.17
662.827	0.17
663.238	0.16
663.648	0.16
664.058	0.16
664.468	0.16
664.878	0.16
665.288	0.16
665.698	0.16
666.108	0.16
666.517	0.16
666.927	0.16
667.337	0.16
667.746	0.16
668.156	0.16
668.565	0.16
668.975	0.16
669.384	0.16
669.794	0.15
670.203	0.15
670.612	0.15
671.021	0.15
671.43	0.15
671.84	0.15
672.249	0.15
672.658	0.15
673.066	0.14
673.475	0.14
673.884	0.14
674.293	0.14
674.702	0.14
675.11	0.14
675.519	0.14
675.927	0.14
676.336	0.13
676.744	0.13
677.152	0.13
677.561	0.13
677.969	0.13
678.377	0.13
678.785	0.13
679.193	0.13
679.601	0.12
680.009	0.12
680.417	0.12
680.825	0.12
681.233	0.12
681.641	0.12
682.048	0.12
682.456	0.12
682.864	0.11
683.271	0.11
683.679	0.11
684.086	0.11
684.493	0.11
684.901	0.11
685.308	0.11
685.715	0.1
686.122	0.1
686.529	0.1
686.936	0.1
687.343	0.1
687.75	0.1
688.157	0.1
688.564	0.1
688.971	0.09
689.378	0.09
689.784	0.09
690.191	0.09
690.597	0.09
691.004	0.09
691.41	0.09
691.817	0.09
692.223	0.09
692.629	0.09
693.035	0.08
693.442	0.08
693.848	0.08
694.254	0.08
694.66	0.08
695.066	0.08
695.471	0.08
695.877	0.08
696.283	0.07
696.689	0.08
697.094	0.07
697.5	0.07
697.906	0.08
698.311	0.08
698.716	0.07
699.122	0.07
699.527	0.07
699.932	0.07
700.338	0.07
700.743	0.07
701.148	0.07
701.553	0.07
701.958	0.07
702.363	0.07
702.768	0.07
703.173	0.07
703.577	0.07
703.982	0.07
704.387	0.07
704.791	0.07
705.196	0.07
705.6	0.06
706.005	0.06
706.409	0.06
706.814	0.06
707.218	0.06
707.622	0.06
708.026	0.06
708.43	0.06
708.834	0.06
709.238	0.06
709.642	0.06
710.046	0.06
710.45	0.06
710.854	0.06
711.257	0.06
711.661	0.06
712.065	0.06
712.468	0.06
712.872	0.06
713.275	0.06
713.679	0.06
714.082	0.06
714.485	0.06
714.888	0.06
715.291	0.06
715.695	0.06
716.098	0.06
716.501	0.06
716.904	0.06
717.306	0.06
717.709	0.06
718.112	0.06
718.515	0.07
718.917	0.07
719.32	0.07
719.723	0.07
720.125	0.07
720.527	0.07
720.93	0.07
721.332	0.07
721.734	0.07
722.137	0.07
722.539	0.07
722.941	0.07
723.343	0.07
723.745	0.07
724.147	0.07
724.549	0.07
724.95	0.07
725.352	0.07
725.754	0.07
726.156	0.07
726.557	0.07
726.959	0.07
727.36	0.07
727.762	0.07
728.163	0.07
728.564	0.07
728.966	0.07
729.367	0.07
729.768	0.07
730.169	0.07
730.57	0.07
730.971	0.07
731.372	0.07
731.773	0.07
732.174	0.07
732.574	0.07
732.975	0.07
733.376	0.07
733.776	0.07
734.177	0.07
734.577	0.07
734.978	0.07
735.378	0.07
735.778	0.07
736.179	0.07
736.579	0.07
736.979	0.07
737.379	0.07
737.779	0.07
738.179	0.07
738.579	0.07
738.979	0.07
739.379	0.07
739.778	0.07
740.178	0.06
740.578	0.07
740.977	0.06
741.377	0.06
741.776	0.06
742.176	0.06
742.575	0.06
742.974	0.06
743.374	0.06
743.773	0.06
744.172	0.06
744.571	0.06
744.97	0.06
745.369	0.06
745.768	0.06
746.167	0.06
746.565	0.06
746.964	0.06
747.363	0.05
747.761	0.06
748.16	0.06
748.559	0.05
748.957	0.05
749.355	0.05
749.754	0.05
750.152	0.05
750.55	0.05
750.948	0.05
751.347	0.05
751.745	0.05
752.143	0.05
752.541	0.05
752.938	0.05
753.336	0.05
753.734	0.05
754.132	0.05
754.529	0.05
754.927	0.05
755.325	0.04
755.722	0.05
756.119	0.05
756.517	0.05
756.914	0.04
757.311	0.04
757.709	0.04
758.106	0.04
758.503	0.04
758.9	0.04
759.297	0.04
759.694	0.04
760.091	0.04
760.488	0.04
760.884	0.04
761.281	0.04
761.678	0.04
762.074	0.04
762.471	0.04
762.867	0.04
763.264	0.04
763.66	0.04
764.056	0.04
764.453	0.04
764.849	0.04
765.245	0.04
765.641	0.04
766.037	0.04
766.433	0.04
766.829	0.04
767.225	0.04
767.621	0.04
768.016	0.04
768.412	0.04
768.808	0.03
769.203	0.04
769.599	0.04
769.994	0.04
770.389	0.04
770.785	0.04
771.18	0.04
771.575	0.04
771.971	0.04
772.366	0.04
772.761	0.04
773.156	0.04
773.551	0.04
773.945	0.04
774.34	0.04
774.735	0.04
775.13	0.04
775.524	0.03
775.919	0.04
776.314	0.03
776.708	0.04
777.103	0.04
777.497	0.03
777.891	0.04
778.285	0.04
778.68	0.04
779.074	0.04
779.468	0.04
779.862	0.04
780.256	0.04
780.65	0.04
781.044	0.04
781.438	0.04
781.831	0.04
782.225	0.04
782.619	0.04
783.012	0.04
783.406	0.04
783.799	0.04
784.193	0.04
784.586	0.04
784.979	0.04
785.372	0.04
785.766	0.04
786.159	0.04
786.552	0.04
786.945	0.04
787.338	0.04
787.731	0.04
788.123	0.04
788.516	0.04
788.909	0.04
789.302	0.04
789.694	0.04
790.087	0.04
790.479	0.04
790.872	0.04
791.264	0.04
791.656	0.04
792.049	0.04
792.441	0.04
792.833	0.04
793.225	0.04
793.617	0.04
794.009	0.04
794.401	0.04
794.793	0.04
795.185	0.04
795.576	0.04
795.968	0.04
796.36	0.04
796.751	0.04
797.143	0.04
797.534	0.04
797.926	0.04
798.317	0.04
798.708	0.04
799.1	0.04
799.491	0.04
799.882	0.04
800.273	0.04
800.664	0.04
801.055	0.04
801.446	0.04
801.837	0.04
802.227	0.04
802.618	0.04
803.009	0.04
803.399	0.04
803.79	0.04
804.18	0.04
804.571	0.04
804.961	0.04
805.351	0.04
805.742	0.04
806.132	0.04
806.522	0.04
806.912	0.04
807.302	0.04
807.692	0.04
808.082	0.04
808.472	0.04
808.862	0.04
809.251	0.05
809.641	0.04
810.031	0.04
810.42	0.04
810.81	0.05
811.199	0.04
811.589	0.04
811.978	0.05
812.367	0.05
812.756	0.04
813.146	0.05
813.535	0.04
813.924	0.04
814.313	0.04
814.702	0.05
815.091	0.05
815.479	0.05
815.868	0.05
816.257	0.05
816.645	0.04
817.034	0.05
817.423	0.05
817.811	0.04
818.199	0.05
818.588	0.05
818.976	0.05
819.364	0.05
819.753	0.05
820.141	0.05
820.529	0.05
820.917	0.05
821.305	0.05
821.693	0.05
822.08	0.05
822.468	0.05
822.856	0.05
823.244	0.05
823.631	0.05
824.019	0.05
824.406	0.05
824.794	0.05
825.181	0.05
825.568	0.05
825.956	0.05
826.343	0.05
826.73	0.05
827.117	0.05
827.504	0.05
827.891	0.05
828.278	0.05
828.665	0.05
829.052	0.05
829.438	0.05
829.825	0.05
830.212	0.05
830.598	0.05
830.985	0.05
831.371	0.05
831.757	0.05
832.144	0.05
832.53	0.05
832.916	0.05
833.302	0.05
833.688	0.05
834.075	0.05
834.461	0.05
834.846	0.05
835.232	0.05
835.618	0.05
836.004	0.05
836.39	0.05
836.775	0.05
837.161	0.05
837.546	0.05
837.932	0.05
838.317	0.05
838.702	0.05
839.088	0.05
839.473	0.05
839.858	0.05
840.243	0.05
840.628	0.05
841.013	0.05
841.398	0.05
841.783	0.05
842.168	0.05
842.553	0.05
842.937	0.05
843.322	0.05
843.707	0.05
844.091	0.05
844.476	0.05
844.86	0.05
845.244	0.05
845.629	0.05
846.013	0.05
846.397	0.05
846.781	0.05
847.165	0.06
847.549	0.06
847.933	0.05
848.317	0.05
848.701	0.05
849.085	0.05
849.468	0.06
849.852	0.05
850.236	0.05
850.619	0.05
851.003	0.05
851.386	0.05
851.769	0.05
852.153	0.05
852.536	0.05
852.919	0.05
853.302	0.05
853.685	0.05
854.068	0.05
854.451	0.05
854.834	0.05
855.217	0.05
855.6	0.05
855.982	0.05
856.365	0.06
856.748	0.05
857.13	0.05
857.513	0.05
857.895	0.06
858.277	0.05
858.66	0.06
859.042	0.05
859.424	0.05
859.806	0.06
860.188	0.05
860.57	0.05
860.952	0.05
861.334	0.05
861.716	0.05
862.098	0.06
862.48	0.05
862.861	0.05
863.243	0.05
863.624	0.05
864.006	0.05
864.387	0.05
864.769	0.06
865.15	0.05
865.531	0.05
865.912	0.05
866.294	0.05
866.675	0.06
867.056	0.05
867.437	0.05
867.818	0.05
868.198	0.06
868.579	0.06
868.96	0.05
869.341	0.06
869.721	0.06
870.102	0.05
870.482	0.05
870.863	0.05
871.243	0.06
871.623	0.06
872.003	0.05
872.384	0.05
872.764	0.05
873.144	0.05
873.524	0.06
873.904	0.05
874.284	0.06
874.664	0.05
875.043	0.05
875.423	0.05
875.803	0.05
876.182	0.05
876.562	0.06
876.941	0.05
877.321	0.05
877.7	0.06
878.079	0.05
878.459	0.05
878.838	0.05
879.217	0.05
879.596	0.06
879.975	0.05
880.354	0.05
880.733	0.05
881.112	0.05
881.491	0.05
881.869	0.05
882.248	0.05
882.627	0.05
883.005	0.05
883.384	0.06
883.762	0.05
884.14	0.05
884.519	0.05
884.897	0.05
885.275	0.05
885.653	0.05
886.031	0.05
886.409	0.05
886.787	0.06
887.165	0.05
887.543	0.05
887.921	0.05
888.298	0.05
888.676	0.05
889.054	0.05
889.431	0.05
889.809	0.05
890.186	0.05
890.563	0.05
890.941	0.05
891.318	0.05
891.695	0.05
892.072	0.05
892.449	0.05
892.826	0.05
893.203	0.05
893.58	0.05
893.957	0.05
894.334	0.05
894.71	0.06
895.087	0.05
895.464	0.05
895.84	0.05
896.217	0.05
896.593	0.05
896.969	0.05
897.346	0.05
897.722	0.05
898.098	0.05
898.474	0.05
898.85	0.05
899.226	0.05
899.602	0.05
899.978	0.05
900.354	0.05
900.73	0.05
901.105	0.05
901.481	0.05
901.857	0.05
902.232	0.05
902.608	0.05
902.983	0.05
903.358	0.05
903.734	0.05
904.109	0.05
904.484	0.05
904.859	0.05
905.234	0.05
905.609	0.05
905.984	0.05
906.359	0.05
906.734	0.05
907.108	0.05
907.483	0.05
907.858	0.05
908.232	0.05
908.607	0.05
908.981	0.05
909.356	0.05
909.73	0.05
910.104	0.05
910.478	0.05
910.853	0.05
911.227	0.05
911.601	0.05
911.975	0.05
912.349	0.05
912.722	0.05
913.096	0.05
913.47	0.05
913.844	0.05
914.217	0.05
914.591	0.05
914.964	0.05
915.338	0.05
915.711	0.05
916.084	0.05
916.458	0.05
916.831	0.05
917.204	0.05
917.577	0.05
917.95	0.05
918.323	0.05
918.696	0.05
919.069	0.05
919.441	0.05
919.814	0.05
920.187	0.05
920.559	0.05
920.932	0.05
921.304	0.05
921.677	0.05
922.049	0.05
922.421	0.05
922.794	0.05
923.166	0.05
923.538	0.05
923.91	0.05
924.282	0.05
924.654	0.05
925.026	0.05
925.398	0.05
925.769	0.05
926.141	0.05
926.513	0.05
926.884	0.05
927.256	0.05
927.627	0.05
927.999	0.05
928.37	0.05
928.741	0.05
929.113	0.05
929.484	0.05
929.855	0.05
930.226	0.05
930.597	0.05
930.968	0.05
931.339	0.05
931.709	0.05
932.08	0.05
932.451	0.05
932.821	0.04
933.192	0.04
933.562	0.04
933.933	0.05
934.303	0.05
934.673	0.05
935.044	0.04
935.414	0.04
935.784	0.04
936.154	0.05
936.524	0.05
936.894	0.04
937.264	0.05
937.634	0.04
938.004	0.05
938.373	0.05
938.743	0.05
939.113	0.04
939.482	0.04
939.852	0.05
940.221	0.04
940.59	0.04
940.96	0.04
941.329	0.05
941.698	0.05
942.067	0.04
942.436	0.04
942.805	0.05
943.174	0.04
943.543	0.04
943.912	0.04
944.28	0.04
944.649	0.04
945.018	0.04
945.386	0.04
945.755	0.05
946.123	0.04
946.492	0.04
946.86	0.05
947.228	0.04
947.596	0.04
947.965	0.04
948.333	0.04
948.701	0.05
949.069	0.04
949.437	0.04
949.804	0.05
950.172	0.04
950.54	0.04
950.908	0.04
951.275	0.04
951.643	0.04
952.01	0.04
952.378	0.04
952.745	0.04
953.112	0.04
953.479	0.04
953.847	0.04
954.214	0.04
954.581	0.04
954.948	0.04
955.315	0.04
955.682	0.04
956.048	0.04
956.415	0.04
956.782	0.04
957.148	0.04
957.515	0.04
957.881	0.04
958.248	0.04
958.614	0.04
958.981	0.04
959.347	0.04
959.713	0.04
960.079	0.04
960.445	0.04
960.811	0.04
961.177	0.04
961.543	0.04
961.909	0.04
962.275	0.04
962.641	0.04
963.006	0.04
963.372	0.04
963.737	0.04
964.103	0.04
964.468	0.04
964.834	0.04
965.199	0.03
965.564	0.04
965.929	0.04
966.294	0.04
966.659	0.04
967.024	0.04
967.389	0.04
967.754	0.04
968.119	0.04
968.484	0.04
968.848	0.04
969.213	0.04
969.578	0.04
969.942	0.04
970.307	0.04
970.671	0.04
971.035	0.03
971.399	0.04
971.764	0.04
972.128	0.04
972.492	0.04
972.856	0.04
973.22	0.04
973.584	0.03
973.948	0.03
974.311	0.04
974.675	0.04
975.039	0.04
975.402	0.04
975.766	0.04
976.129	0.04
976.493	0.04
976.856	0.04
977.219	0.04
977.582	0.04
977.946	0.03
978.309	0.03
978.672	0.03
979.035	0.03
979.398	0.03
979.761	0.03
980.123	0.04
980.486	0.03
980.849	0.04
981.211	0.03
981.574	0.04
981.936	0.04
982.299	0.03
982.661	0.04
983.023	0.03
983.386	0.04
983.748	0.04
984.11	0.04
984.472	0.04
984.834	0.03
985.196	0.03
985.558	0.04
985.92	0.03
986.281	0.04
986.643	0.03
987.005	0.04
987.366	0.03
987.728	0.04
988.089	0.03
988.451	0.03
988.812	0.04
989.173	0.03
989.534	0.03
989.895	0.03
990.257	0.04
990.618	0.04
990.979	0.03
991.339	0.03
991.7	0.04
992.061	0.04
992.422	0.03
992.782	0.04
993.143	0.03
993.503	0.03
993.864	0.03
994.224	0.03
994.585	0.03
994.945	0.03
995.305	0.04
995.665	0.03
996.025	0.03
996.385	0.03
996.745	0.04
997.105	0.03
997.465	0.03
997.825	0.03
998.185	0.03
998.544	0.03
998.904	0.03
999.263	0.03
999.623	0.03
999.982	0.03
1000.342	0.03
1000.701	0.03
1001.06	0.04
1001.419	0.03
1001.778	0.04
1002.138	0.03
1002.497	0.03
1002.855	0.03
1003.214	0.03
1003.573	0.03
1003.932	0.03
1004.29	0.03
1004.649	0.03
1005.008	0.03
1005.366	0.03
1005.725	0.04
1006.083	0.03
1006.441	0.03
1006.799	0.03
1007.158	0.03
1007.516	0.03
1007.874	0.03
1008.232	0.03
1008.59	0.03
1008.948	0.03
1009.305	0.04
1009.663	0.03
1010.021	0.03
1010.379	0.03
1010.736	0.03
1011.094	0.04
1011.451	0.04
1011.808	0.03
1012.166	0.03
1012.523	0.03
1012.88	0.03
1013.237	0.03
1013.594	0.03
1013.951	0.03
1014.308	0.03
1014.665	0.03
1015.022	0.03
1015.379	0.03
1015.735	0.03
1016.092	0.03
1016.449	0.03
1016.805	0.03
1017.162	0.03
1017.518	0.03
1017.874	0.03
1018.231	0.03
1018.587	0.03
1018.943	0.04
1019.299	0.03
1019.655	0.03
1020.011	0.03
1020.367	0.03
1020.723	0.03
1021.078	0.03
1021.434	0.03
1021.79	0.03
1022.145	0.03
1022.501	0.03
1022.856	0.03
1023.212	0.03
1023.567	0.03
1023.922	0.03
1024.278	0.03
1024.633	0.03
1024.988	0.03
1025.343	0.03
1025.698	0.03
1026.053	0.03
1026.408	0.03
1026.762	0.03
1027.117	0.03
1027.472	0.03
1027.826	0.02
1028.181	0.03
1028.535	0.03
1028.89	0.03
1029.244	0.03
1029.598	0.04
1029.952	0.03
1030.307	0.03
1030.661	0.03
1031.015	0.03
1031.369	0.03
1031.723	0.04
1032.076	0.03
