Data from Rubpy_EV_EDTA_TU(3000)_Blank_Blue_Flow_Absorbance__2112__11-31-05-596.txt Node

Date: Mon Aug 03 11:31:05 BST 2026
User: fpm-admin
Spectrometer: SR600986
Trigger mode: 0
Integration Time (sec): 8.000000E-3
Scans to average: 3
Nonlinearity correction enabled: true
Boxcar width: 0
Storing dark spectrum: false
XAxis mode: Wavelengths
Number of Pixels in Spectrum: 2048
>>>>>Begin Spectral Data<<<<<
188.613	0.24
189.078	0.22
189.542	0.22
190.007	0.23
190.472	0.21
190.936	0.22
191.401	0.25
191.865	0.23
192.33	0.23
192.794	0.24
193.258	0.23
193.723	0.25
194.187	0.24
194.651	0.25
195.115	0.23
195.579	0.22
196.043	0.22
196.507	0.24
196.971	0.23
197.435	0.24
197.899	0.22
198.363	0.25
198.827	0.22
199.29	0.22
199.754	0.26
200.218	0.23
200.681	0.23
201.145	0.23
201.608	0.23
202.072	0.22
202.535	0.24
202.998	0.23
203.462	0.24
203.925	0.23
204.388	0.23
204.851	0.23
205.314	0.23
205.777	0.21
206.24	0.23
206.703	0.22
207.166	0.23
207.629	0.22
208.092	0.25
208.555	0.23
209.018	0.22
209.48	0.24
209.943	0.23
210.406	0.22
210.868	0.21
211.331	0.25
211.793	0.22
212.256	0.24
212.718	0.22
213.18	0.23
213.643	0.24
214.105	0.24
214.567	0.22
215.029	0.22
215.491	0.23
215.953	0.24
216.415	0.22
216.877	0.24
217.339	0.21
217.801	0.24
218.263	0.21
218.725	0.23
219.186	0.22
219.648	0.23
220.11	0.24
220.571	0.22
221.033	0.23
221.494	0.23
221.956	0.23
222.417	0.23
222.878	0.21
223.34	0.21
223.801	0.23
224.262	0.23
224.723	0.21
225.185	0.22
225.646	0.23
226.107	0.24
226.568	0.26
227.029	0.24
227.489	0.22
227.95	0.25
228.411	0.21
228.872	0.23
229.332	0.23
229.793	0.24
230.254	0.25
230.714	0.22
231.175	0.22
231.635	0.21
232.096	0.23
232.556	0.24
233.016	0.23
233.477	0.23
233.937	0.25
234.397	0.25
234.857	0.22
235.317	0.22
235.777	0.21
236.237	0.23
236.697	0.25
237.157	0.23
237.617	0.24
238.077	0.26
238.537	0.23
238.996	0.25
239.456	0.22
239.916	0.23
240.375	0.25
240.835	0.23
241.294	0.2
241.754	0.23
242.213	0.22
242.672	0.25
243.132	0.21
243.591	0.23
244.05	0.23
244.509	0.23
244.968	0.23
245.427	0.21
245.886	0.23
246.345	0.22
246.804	0.21
247.263	0.2
247.722	0.24
248.181	0.22
248.639	0.22
249.098	0.22
249.557	0.24
250.015	0.23
250.474	0.23
250.932	0.24
251.391	0.23
251.849	0.23
252.308	0.23
252.766	0.23
253.224	0.23
253.682	0.24
254.14	0.23
254.599	0.25
255.057	0.23
255.515	0.26
255.973	0.23
256.431	0.21
256.888	0.24
257.346	0.23
257.804	0.2
258.262	0.25
258.719	0.22
259.177	0.22
259.635	0.22
260.092	0.25
260.55	0.23
261.007	0.22
261.465	0.22
261.922	0.23
262.379	0.21
262.836	0.22
263.294	0.25
263.751	0.23
264.208	0.22
264.665	0.22
265.122	0.25
265.579	0.25
266.036	0.25
266.493	0.25
266.95	0.25
267.406	0.23
267.863	0.23
268.32	0.23
268.777	0.21
269.233	0.23
269.69	0.23
270.146	0.23
270.603	0.24
271.059	0.22
271.515	0.24
271.972	0.26
272.428	0.23
272.884	0.25
273.34	0.23
273.796	0.23
274.253	0.23
274.709	0.23
275.165	0.23
275.62	0.22
276.076	0.26
276.532	0.24
276.988	0.22
277.444	0.23
277.899	0.22
278.355	0.25
278.811	0.22
279.266	0.22
279.722	0.25
280.177	0.24
280.633	0.22
281.088	0.22
281.543	0.24
281.998	0.21
282.454	0.23
282.909	0.26
283.364	0.24
283.819	0.24
284.274	0.24
284.729	0.23
285.184	0.23
285.639	0.22
286.094	0.23
286.548	0.24
287.003	0.26
287.458	0.23
287.913	0.24
288.367	0.23
288.822	0.25
289.276	0.22
289.731	0.21
290.185	0.24
290.639	0.25
291.094	0.22
291.548	0.23
292.002	0.21
292.456	0.25
292.91	0.24
293.365	0.24
293.819	0.23
294.273	0.25
294.726	0.25
295.18	0.25
295.634	0.25
296.088	0.24
296.542	0.26
296.995	0.25
297.449	0.23
297.903	0.25
298.356	0.24
298.81	0.23
299.263	0.25
299.716	0.26
300.17	0.22
300.623	0.25
301.076	0.25
301.53	0.25
301.983	0.25
302.436	0.25
302.889	0.25
303.342	0.26
303.795	0.27
304.248	0.24
304.701	0.25
305.153	0.24
305.606	0.26
306.059	0.24
306.512	0.25
306.964	0.25
307.417	0.27
307.869	0.28
308.322	0.26
308.774	0.27
309.227	0.26
309.679	0.28
310.131	0.28
310.584	0.26
311.036	0.29
311.488	0.29
311.94	0.27
312.392	0.29
312.844	0.3
313.296	0.29
313.748	0.32
314.2	0.29
314.652	0.32
315.103	0.31
315.555	0.33
316.007	0.32
316.458	0.34
316.91	0.33
317.361	0.32
317.813	0.34
318.264	0.34
318.716	0.35
319.167	0.35
319.618	0.35
320.07	0.36
320.521	0.35
320.972	0.35
321.423	0.35
321.874	0.37
322.325	0.37
322.776	0.37
323.227	0.37
323.678	0.38
324.128	0.39
324.579	0.38
325.03	0.4
325.48	0.4
325.931	0.42
326.382	0.41
326.832	0.42
327.283	0.44
327.733	0.44
328.183	0.45
328.634	0.46
329.084	0.47
329.534	0.49
329.984	0.49
330.434	0.49
330.884	0.5
331.334	0.51
331.784	0.52
332.234	0.53
332.684	0.54
333.134	0.55
333.584	0.57
334.034	0.58
334.483	0.58
334.933	0.59
335.382	0.6
335.832	0.61
336.281	0.62
336.731	0.63
337.18	0.65
337.63	0.66
338.079	0.67
338.528	0.68
338.977	0.7
339.426	0.7
339.876	0.72
340.325	0.73
340.774	0.74
341.223	0.74
341.671	0.76
342.12	0.78
342.569	0.8
343.018	0.8
343.467	0.81
343.915	0.83
344.364	0.84
344.812	0.85
345.261	0.87
345.709	0.87
346.158	0.89
346.606	0.9
347.054	0.9
347.503	0.93
347.951	0.94
348.399	0.95
348.847	0.96
349.295	0.97
349.743	0.99
350.191	1.01
350.639	1.02
351.087	1.04
351.535	1.05
351.983	1.06
352.43	1.09
352.878	1.1
353.326	1.11
353.773	1.12
354.221	1.14
354.668	1.15
355.116	1.18
355.563	1.18
356.01	1.2
356.458	1.24
356.905	1.23
357.352	1.25
357.799	1.26
358.246	1.26
358.693	1.29
359.14	1.31
359.587	1.32
360.034	1.32
360.481	1.33
360.928	1.34
361.375	1.34
361.821	1.38
362.268	1.37
362.714	1.38
363.161	1.39
363.608	1.39
364.054	1.41
364.5	1.42
364.947	1.43
365.393	1.42
365.839	1.44
366.285	1.43
366.732	1.44
367.178	1.45
367.624	1.44
368.07	1.43
368.516	1.43
368.962	1.43
369.408	1.41
369.853	1.39
370.299	1.39
370.745	1.37
371.19	1.36
371.636	1.36
372.082	1.35
372.527	1.32
372.973	1.33
373.418	1.32
373.863	1.3
374.309	1.29
374.754	1.28
375.199	1.26
375.644	1.28
376.09	1.26
376.535	1.25
376.98	1.25
377.425	1.25
377.87	1.25
378.314	1.24
378.759	1.24
379.204	1.25
379.649	1.26
380.093	1.25
380.538	1.26
380.983	1.27
381.427	1.28
381.872	1.28
382.316	1.3
382.76	1.3
383.205	1.3
383.649	1.3
384.093	1.31
384.537	1.31
384.982	1.3
385.426	1.3
385.87	1.28
386.314	1.28
386.758	1.26
387.201	1.26
387.645	1.23
388.089	1.25
388.533	1.23
388.976	1.21
389.42	1.24
389.864	1.24
390.307	1.25
390.751	1.25
391.194	1.27
391.638	1.29
392.081	1.32
392.524	1.33
392.967	1.35
393.411	1.37
393.854	1.38
394.297	1.39
394.74	1.41
395.183	1.39
395.626	1.39
396.069	1.39
396.512	1.37
396.954	1.34
397.397	1.33
397.84	1.31
398.282	1.26
398.725	1.24
399.168	1.19
399.61	1.15
400.052	1.08
400.495	1.02
400.937	0.97
401.38	0.91
401.822	0.86
402.264	0.8
402.706	0.75
403.148	0.7
403.59	0.66
404.032	0.62
404.474	0.58
404.916	0.54
405.358	0.52
405.8	0.48
406.241	0.45
406.683	0.42
407.125	0.41
407.566	0.38
408.008	0.37
408.449	0.35
408.891	0.34
409.332	0.33
409.774	0.3
410.215	0.29
410.656	0.3
411.097	0.29
411.539	0.26
411.98	0.27
412.421	0.25
412.862	0.24
413.303	0.23
413.744	0.24
414.184	0.23
414.625	0.22
415.066	0.23
415.507	0.22
415.947	0.23
416.388	0.22
416.828	0.21
417.269	0.21
417.709	0.21
418.15	0.2
418.59	0.2
419.03	0.2
419.471	0.2
419.911	0.19
420.351	0.2
420.791	0.19
421.231	0.2
421.671	0.2
422.111	0.2
422.551	0.2
422.991	0.19
423.431	0.19
423.87	0.19
424.31	0.19
424.75	0.18
425.189	0.19
425.629	0.19
426.068	0.2
426.508	0.2
426.947	0.19
427.386	0.18
427.826	0.17
428.265	0.19
428.704	0.19
429.143	0.19
429.582	0.2
430.021	0.18
430.46	0.19
430.899	0.19
431.338	0.2
431.777	0.19
432.216	0.2
432.655	0.21
433.093	0.2
433.532	0.19
433.971	0.18
434.409	0.2
434.848	0.19
435.286	0.19
435.724	0.2
436.163	0.19
436.601	0.21
437.039	0.2
437.477	0.2
437.916	0.2
438.354	0.2
438.792	0.2
439.23	0.2
439.668	0.21
440.105	0.2
440.543	0.21
440.981	0.2
441.419	0.21
441.856	0.2
442.294	0.21
442.732	0.21
443.169	0.22
443.607	0.22
444.044	0.21
444.481	0.21
444.919	0.21
445.356	0.22
445.793	0.21
446.23	0.22
446.668	0.2
447.105	0.22
447.542	0.21
447.979	0.23
448.416	0.23
448.852	0.21
449.289	0.22
449.726	0.22
450.163	0.24
450.599	0.22
451.036	0.23
451.473	0.24
451.909	0.24
452.346	0.21
452.782	0.23
453.218	0.23
453.655	0.21
454.091	0.23
454.527	0.23
454.963	0.24
455.399	0.24
455.835	0.23
456.271	0.23
456.707	0.23
457.143	0.22
457.579	0.24
458.015	0.24
458.451	0.24
458.886	0.23
459.322	0.24
459.758	0.25
460.193	0.24
460.629	0.23
461.064	0.24
461.5	0.26
461.935	0.24
462.37	0.25
462.805	0.25
463.241	0.26
463.676	0.27
464.111	0.25
464.546	0.26
464.981	0.25
465.416	0.25
465.851	0.27
466.286	0.25
466.72	0.26
467.155	0.26
467.59	0.26
468.024	0.27
468.459	0.27
468.893	0.27
469.328	0.28
469.762	0.28
470.197	0.29
470.631	0.28
471.065	0.29
471.5	0.29
471.934	0.28
472.368	0.27
472.802	0.29
473.236	0.3
473.67	0.29
474.104	0.3
474.538	0.3
474.972	0.3
475.405	0.31
475.839	0.32
476.273	0.31
476.706	0.32
477.14	0.32
477.573	0.33
478.007	0.33
478.44	0.33
478.874	0.33
479.307	0.34
479.74	0.34
480.173	0.34
480.606	0.35
481.04	0.35
481.473	0.35
481.906	0.36
482.339	0.37
482.771	0.36
483.204	0.37
483.637	0.37
484.07	0.37
484.502	0.38
484.935	0.38
485.368	0.38
485.8	0.39
486.233	0.39
486.665	0.39
487.098	0.39
487.53	0.4
487.962	0.41
488.394	0.41
488.827	0.4
489.259	0.41
489.691	0.41
490.123	0.42
490.555	0.42
490.987	0.42
491.418	0.43
491.85	0.43
492.282	0.43
492.714	0.44
493.145	0.44
493.577	0.45
494.009	0.45
494.44	0.45
494.872	0.46
495.303	0.46
495.734	0.46
496.166	0.47
496.597	0.47
497.028	0.47
497.459	0.47
497.89	0.48
498.321	0.48
498.752	0.48
499.183	0.49
499.614	0.49
500.045	0.49
500.476	0.5
500.906	0.5
501.337	0.51
501.768	0.51
502.198	0.51
502.629	0.52
503.059	0.52
503.49	0.52
503.92	0.53
504.35	0.53
504.781	0.53
505.211	0.54
505.641	0.54
506.071	0.54
506.501	0.54
506.931	0.55
507.361	0.55
507.791	0.56
508.221	0.56
508.651	0.56
509.081	0.57
509.51	0.57
509.94	0.56
510.37	0.57
510.799	0.58
511.229	0.58
511.658	0.58
512.087	0.59
512.517	0.59
512.946	0.59
513.375	0.59
513.804	0.6
514.234	0.59
514.663	0.6
515.092	0.61
515.521	0.61
515.95	0.61
516.378	0.61
516.807	0.62
517.236	0.62
517.665	0.62
518.093	0.62
518.522	0.62
518.951	0.63
519.379	0.63
519.807	0.64
520.236	0.63
520.664	0.64
521.093	0.64
521.521	0.64
521.949	0.64
522.377	0.64
522.805	0.65
523.233	0.65
523.661	0.65
524.089	0.65
524.517	0.66
524.945	0.66
525.373	0.66
525.8	0.67
526.228	0.67
526.656	0.67
527.083	0.67
527.511	0.68
527.938	0.68
528.366	0.68
528.793	0.69
529.22	0.68
529.648	0.69
530.075	0.69
530.502	0.69
530.929	0.69
531.356	0.7
531.783	0.7
532.21	0.69
532.637	0.7
533.064	0.7
533.49	0.71
533.917	0.71
534.344	0.71
534.771	0.71
535.197	0.71
535.624	0.72
536.05	0.72
536.477	0.71
536.903	0.71
537.329	0.73
537.755	0.72
538.182	0.73
538.608	0.73
539.034	0.73
539.46	0.74
539.886	0.73
540.312	0.74
540.738	0.74
541.164	0.74
541.589	0.75
542.015	0.75
542.441	0.75
542.867	0.75
543.292	0.75
543.718	0.75
544.143	0.76
544.569	0.76
544.994	0.76
545.419	0.76
545.845	0.76
546.27	0.76
546.695	0.76
547.12	0.77
547.545	0.77
547.97	0.76
548.395	0.77
548.82	0.77
549.245	0.77
549.67	0.77
550.094	0.77
550.519	0.77
550.944	0.78
551.368	0.78
551.793	0.77
552.217	0.78
552.642	0.78
553.066	0.78
553.49	0.78
553.915	0.78
554.339	0.77
554.763	0.78
555.187	0.78
555.611	0.78
556.035	0.78
556.459	0.78
556.883	0.78
557.307	0.78
557.731	0.78
558.154	0.78
558.578	0.78
559.002	0.78
559.425	0.78
559.849	0.78
560.272	0.78
560.696	0.77
561.119	0.78
561.543	0.78
561.966	0.78
562.389	0.77
562.812	0.78
563.235	0.78
563.658	0.77
564.081	0.77
564.504	0.77
564.927	0.77
565.35	0.77
565.773	0.77
566.196	0.77
566.618	0.77
567.041	0.77
567.463	0.77
567.886	0.77
568.309	0.77
568.731	0.76
569.153	0.77
569.576	0.76
569.998	0.76
570.42	0.76
570.842	0.76
571.264	0.76
571.686	0.76
572.108	0.76
572.53	0.76
572.952	0.76
573.374	0.75
573.796	0.75
574.218	0.75
574.639	0.75
575.061	0.75
575.483	0.75
575.904	0.75
576.326	0.75
576.747	0.74
577.168	0.75
577.59	0.75
578.011	0.74
578.432	0.74
578.853	0.74
579.274	0.74
579.695	0.74
580.116	0.74
580.537	0.74
580.958	0.74
581.379	0.74
581.8	0.74
582.221	0.74
582.641	0.74
583.062	0.74
583.482	0.74
583.903	0.74
584.323	0.74
584.744	0.75
585.164	0.74
585.584	0.74
586.005	0.74
586.425	0.74
586.845	0.74
587.265	0.74
587.685	0.75
588.105	0.75
588.525	0.75
588.945	0.75
589.365	0.75
589.785	0.75
590.204	0.75
590.624	0.76
591.044	0.76
591.463	0.76
591.883	0.76
592.302	0.76
592.721	0.77
593.141	0.76
593.56	0.77
593.979	0.77
594.399	0.77
594.818	0.77
595.237	0.77
595.656	0.77
596.075	0.77
596.494	0.77
596.913	0.77
597.331	0.77
597.75	0.77
598.169	0.78
598.587	0.78
599.006	0.77
599.425	0.78
599.843	0.77
600.262	0.77
600.68	0.77
601.098	0.77
601.517	0.77
601.935	0.77
602.353	0.77
602.771	0.77
603.189	0.77
603.607	0.76
604.025	0.76
604.443	0.76
604.861	0.76
605.279	0.75
605.696	0.76
606.114	0.75
606.532	0.75
606.949	0.74
607.367	0.75
607.784	0.74
608.202	0.74
608.619	0.74
609.036	0.73
609.454	0.73
609.871	0.73
610.288	0.73
610.705	0.72
611.122	0.72
611.539	0.72
611.956	0.71
612.373	0.71
612.79	0.71
613.207	0.71
613.623	0.7
614.04	0.7
614.457	0.7
614.873	0.7
615.29	0.69
615.706	0.69
616.122	0.69
616.539	0.68
616.955	0.68
617.371	0.68
617.788	0.67
618.204	0.67
618.62	0.67
619.036	0.67
619.452	0.66
619.868	0.66
620.284	0.66
620.699	0.65
621.115	0.65
621.531	0.64
621.946	0.64
622.362	0.64
622.778	0.64
623.193	0.63
623.608	0.63
624.024	0.62
624.439	0.62
624.854	0.62
625.27	0.61
625.685	0.61
626.1	0.61
626.515	0.6
626.93	0.6
627.345	0.59
627.76	0.59
628.175	0.59
628.589	0.58
629.004	0.57
629.419	0.57
629.833	0.57
630.248	0.56
630.663	0.56
631.077	0.55
631.491	0.55
631.906	0.54
632.32	0.54
632.734	0.53
633.148	0.53
633.563	0.52
633.977	0.52
634.391	0.51
634.805	0.51
635.219	0.5
635.632	0.5
636.046	0.49
636.46	0.49
636.874	0.49
637.287	0.48
637.701	0.48
638.115	0.47
638.528	0.47
638.941	0.47
639.355	0.46
639.768	0.46
640.181	0.45
640.595	0.45
641.008	0.45
641.421	0.44
641.834	0.44
642.247	0.43
642.66	0.43
643.073	0.43
643.486	0.43
643.898	0.42
644.311	0.42
644.724	0.42
645.136	0.42
645.549	0.41
645.961	0.41
646.374	0.41
646.786	0.41
647.199	0.4
647.611	0.41
648.023	0.4
648.435	0.4
648.847	0.4
649.26	0.4
649.672	0.4
650.084	0.39
650.495	0.39
650.907	0.39
651.319	0.39
651.731	0.39
652.143	0.39
652.554	0.39
652.966	0.39
653.377	0.38
653.789	0.38
654.2	0.38
654.612	0.38
655.023	0.38
655.434	0.35
655.845	0.34
656.256	0.36
656.668	0.39
657.079	0.38
657.49	0.37
657.901	0.37
658.311	0.37
658.722	0.37
659.133	0.37
659.544	0.37
659.954	0.37
660.365	0.37
660.775	0.37
661.186	0.37
661.596	0.36
662.007	0.36
662.417	0.36
662.827	0.36
663.238	0.36
663.648	0.36
664.058	0.36
664.468	0.35
664.878	0.36
665.288	0.36
665.698	0.35
666.108	0.35
666.517	0.35
666.927	0.35
667.337	0.34
667.746	0.34
668.156	0.34
668.565	0.34
668.975	0.34
669.384	0.34
669.794	0.33
670.203	0.33
670.612	0.33
671.021	0.33
671.43	0.32
671.84	0.32
672.249	0.32
672.658	0.32
673.066	0.32
673.475	0.31
673.884	0.31
674.293	0.31
674.702	0.3
675.11	0.3
675.519	0.3
675.927	0.3
676.336	0.29
676.744	0.29
677.152	0.29
677.561	0.29
677.969	0.28
678.377	0.28
678.785	0.28
679.193	0.27
679.601	0.27
680.009	0.27
680.417	0.27
680.825	0.27
681.233	0.26
681.641	0.26
682.048	0.25
682.456	0.25
682.864	0.25
683.271	0.25
683.679	0.25
684.086	0.24
684.493	0.24
684.901	0.24
685.308	0.23
685.715	0.23
686.122	0.23
686.529	0.23
686.936	0.22
687.343	0.22
687.75	0.22
688.157	0.22
688.564	0.21
688.971	0.21
689.378	0.21
689.784	0.21
690.191	0.2
690.597	0.2
691.004	0.2
691.41	0.2
691.817	0.2
692.223	0.19
692.629	0.19
693.035	0.19
693.442	0.19
693.848	0.18
694.254	0.18
694.66	0.18
695.066	0.18
695.471	0.18
695.877	0.17
696.283	0.17
696.689	0.17
697.094	0.17
697.5	0.17
697.906	0.17
698.311	0.17
698.716	0.16
699.122	0.16
699.527	0.16
699.932	0.16
700.338	0.16
700.743	0.16
701.148	0.16
701.553	0.15
701.958	0.15
702.363	0.15
702.768	0.15
703.173	0.15
703.577	0.15
703.982	0.15
704.387	0.15
704.791	0.15
705.196	0.15
705.6	0.15
706.005	0.15
706.409	0.15
706.814	0.15
707.218	0.14
707.622	0.15
708.026	0.14
708.43	0.15
708.834	0.15
709.238	0.14
709.642	0.14
710.046	0.14
710.45	0.15
710.854	0.14
711.257	0.15
711.661	0.14
712.065	0.15
712.468	0.15
712.872	0.15
713.275	0.15
713.679	0.15
714.082	0.15
714.485	0.15
714.888	0.15
715.291	0.15
715.695	0.15
716.098	0.15
716.501	0.15
716.904	0.15
717.306	0.15
717.709	0.15
718.112	0.15
718.515	0.15
718.917	0.15
719.32	0.15
719.723	0.15
720.125	0.15
720.527	0.15
720.93	0.15
721.332	0.15
721.734	0.15
722.137	0.15
722.539	0.16
722.941	0.16
723.343	0.16
723.745	0.16
724.147	0.16
724.549	0.16
724.95	0.16
725.352	0.16
725.754	0.16
726.156	0.16
726.557	0.16
726.959	0.16
727.36	0.16
727.762	0.16
728.163	0.16
728.564	0.16
728.966	0.16
729.367	0.16
729.768	0.16
730.169	0.16
730.57	0.16
730.971	0.16
731.372	0.16
731.773	0.16
732.174	0.16
732.574	0.16
732.975	0.16
733.376	0.16
733.776	0.16
734.177	0.16
734.577	0.16
734.978	0.16
735.378	0.16
735.778	0.16
736.179	0.16
736.579	0.16
736.979	0.16
737.379	0.16
737.779	0.16
738.179	0.16
738.579	0.16
738.979	0.16
739.379	0.16
739.778	0.16
740.178	0.16
740.578	0.16
740.977	0.16
741.377	0.15
741.776	0.15
742.176	0.15
742.575	0.15
742.974	0.15
743.374	0.15
743.773	0.15
744.172	0.15
744.571	0.15
744.97	0.15
745.369	0.15
745.768	0.15
746.167	0.14
746.565	0.15
746.964	0.14
747.363	0.14
747.761	0.14
748.16	0.14
748.559	0.14
748.957	0.14
749.355	0.14
749.754	0.14
750.152	0.14
750.55	0.14
750.948	0.14
751.347	0.13
751.745	0.13
752.143	0.13
752.541	0.13
752.938	0.13
753.336	0.13
753.734	0.13
754.132	0.13
754.529	0.13
754.927	0.13
755.325	0.12
755.722	0.12
756.119	0.12
756.517	0.12
756.914	0.12
757.311	0.12
757.709	0.12
758.106	0.12
758.503	0.12
758.9	0.12
759.297	0.12
759.694	0.12
760.091	0.12
760.488	0.12
760.884	0.12
761.281	0.12
761.678	0.12
762.074	0.12
762.471	0.12
762.867	0.12
763.264	0.12
763.66	0.12
764.056	0.12
764.453	0.12
764.849	0.12
765.245	0.12
765.641	0.12
766.037	0.12
766.433	0.11
766.829	0.11
767.225	0.12
767.621	0.12
768.016	0.12
768.412	0.11
768.808	0.12
769.203	0.12
769.599	0.12
769.994	0.12
770.389	0.12
770.785	0.11
771.18	0.12
771.575	0.12
771.971	0.12
772.366	0.12
772.761	0.12
773.156	0.12
773.551	0.12
773.945	0.12
774.34	0.12
774.735	0.12
775.13	0.12
775.524	0.12
775.919	0.12
776.314	0.12
776.708	0.12
777.103	0.12
777.497	0.12
777.891	0.12
778.285	0.12
778.68	0.12
779.074	0.12
779.468	0.12
779.862	0.12
780.256	0.13
780.65	0.12
781.044	0.12
781.438	0.12
781.831	0.13
782.225	0.13
782.619	0.13
783.012	0.13
783.406	0.13
783.799	0.13
784.193	0.13
784.586	0.13
784.979	0.13
785.372	0.13
785.766	0.13
786.159	0.13
786.552	0.13
786.945	0.13
787.338	0.13
787.731	0.13
788.123	0.13
788.516	0.13
788.909	0.13
789.302	0.13
789.694	0.14
790.087	0.13
790.479	0.13
790.872	0.14
791.264	0.14
791.656	0.14
792.049	0.14
792.441	0.14
792.833	0.14
793.225	0.14
793.617	0.14
794.009	0.14
794.401	0.14
794.793	0.14
795.185	0.14
795.576	0.14
795.968	0.14
796.36	0.14
796.751	0.15
797.143	0.14
797.534	0.15
797.926	0.14
798.317	0.15
798.708	0.15
799.1	0.15
799.491	0.15
799.882	0.15
800.273	0.15
800.664	0.15
801.055	0.15
801.446	0.15
801.837	0.15
802.227	0.15
802.618	0.15
803.009	0.15
803.399	0.15
803.79	0.15
804.18	0.15
804.571	0.16
804.961	0.16
805.351	0.16
805.742	0.16
806.132	0.16
806.522	0.16
806.912	0.16
807.302	0.16
807.692	0.16
808.082	0.16
808.472	0.16
808.862	0.16
809.251	0.16
809.641	0.16
810.031	0.16
810.42	0.16
810.81	0.16
811.199	0.16
811.589	0.16
811.978	0.16
812.367	0.17
812.756	0.16
813.146	0.17
813.535	0.17
813.924	0.17
814.313	0.17
814.702	0.17
815.091	0.17
815.479	0.17
815.868	0.17
816.257	0.17
816.645	0.17
817.034	0.17
817.423	0.17
817.811	0.17
818.199	0.17
818.588	0.17
818.976	0.17
819.364	0.18
819.753	0.17
820.141	0.18
820.529	0.18
820.917	0.17
821.305	0.17
821.693	0.18
822.08	0.18
822.468	0.18
822.856	0.18
823.244	0.17
823.631	0.18
824.019	0.18
824.406	0.18
824.794	0.18
825.181	0.18
825.568	0.18
825.956	0.18
826.343	0.18
826.73	0.18
827.117	0.18
827.504	0.18
827.891	0.18
828.278	0.19
828.665	0.18
829.052	0.18
829.438	0.18
829.825	0.19
830.212	0.18
830.598	0.19
830.985	0.19
831.371	0.19
831.757	0.19
832.144	0.19
832.53	0.19
832.916	0.19
833.302	0.19
833.688	0.19
834.075	0.19
834.461	0.19
834.846	0.19
835.232	0.19
835.618	0.19
836.004	0.19
836.39	0.19
836.775	0.19
837.161	0.19
837.546	0.19
837.932	0.19
838.317	0.19
838.702	0.19
839.088	0.19
839.473	0.19
839.858	0.19
840.243	0.19
840.628	0.19
841.013	0.19
841.398	0.19
841.783	0.19
842.168	0.19
842.553	0.19
842.937	0.2
843.322	0.2
843.707	0.19
844.091	0.19
844.476	0.2
844.86	0.2
845.244	0.2
845.629	0.2
846.013	0.2
846.397	0.2
846.781	0.2
847.165	0.2
847.549	0.2
847.933	0.2
848.317	0.2
848.701	0.2
849.085	0.2
849.468	0.2
849.852	0.2
850.236	0.2
850.619	0.2
851.003	0.2
851.386	0.2
851.769	0.2
852.153	0.2
852.536	0.2
852.919	0.2
853.302	0.2
853.685	0.2
854.068	0.2
854.451	0.2
854.834	0.2
855.217	0.2
855.6	0.2
855.982	0.2
856.365	0.2
856.748	0.2
857.13	0.2
857.513	0.2
857.895	0.2
858.277	0.2
858.66	0.2
859.042	0.2
859.424	0.2
859.806	0.2
860.188	0.2
860.57	0.2
860.952	0.2
861.334	0.2
861.716	0.2
862.098	0.2
862.48	0.2
862.861	0.2
863.243	0.2
863.624	0.2
864.006	0.2
864.387	0.2
864.769	0.2
865.15	0.2
865.531	0.2
865.912	0.2
866.294	0.2
866.675	0.21
867.056	0.2
867.437	0.2
867.818	0.21
868.198	0.21
868.579	0.2
868.96	0.2
869.341	0.21
869.721	0.21
870.102	0.2
870.482	0.21
870.863	0.21
871.243	0.21
871.623	0.2
872.003	0.2
872.384	0.2
872.764	0.2
873.144	0.2
873.524	0.21
873.904	0.2
874.284	0.21
874.664	0.2
875.043	0.2
875.423	0.2
875.803	0.2
876.182	0.21
876.562	0.2
876.941	0.2
877.321	0.2
877.7	0.21
878.079	0.2
878.459	0.2
878.838	0.2
879.217	0.21
879.596	0.2
879.975	0.2
880.354	0.2
880.733	0.2
881.112	0.2
881.491	0.2
881.869	0.2
882.248	0.2
882.627	0.2
883.005	0.2
883.384	0.2
883.762	0.2
884.14	0.2
884.519	0.2
884.897	0.2
885.275	0.2
885.653	0.2
886.031	0.2
886.409	0.2
886.787	0.2
887.165	0.2
887.543	0.2
887.921	0.2
888.298	0.2
888.676	0.2
889.054	0.2
889.431	0.2
889.809	0.2
890.186	0.2
890.563	0.2
890.941	0.2
891.318	0.2
891.695	0.2
892.072	0.2
892.449	0.2
892.826	0.2
893.203	0.2
893.58	0.2
893.957	0.2
894.334	0.2
894.71	0.2
895.087	0.2
895.464	0.2
895.84	0.19
896.217	0.2
896.593	0.2
896.969	0.2
897.346	0.2
897.722	0.2
898.098	0.2
898.474	0.19
898.85	0.2
899.226	0.2
899.602	0.2
899.978	0.19
900.354	0.2
900.73	0.2
901.105	0.19
901.481	0.2
901.857	0.19
902.232	0.19
902.608	0.19
902.983	0.2
903.358	0.2
903.734	0.19
904.109	0.19
904.484	0.19
904.859	0.19
905.234	0.19
905.609	0.19
905.984	0.2
906.359	0.19
906.734	0.19
907.108	0.19
907.483	0.19
907.858	0.19
908.232	0.19
908.607	0.19
908.981	0.19
909.356	0.19
909.73	0.19
910.104	0.19
910.478	0.19
910.853	0.19
911.227	0.19
911.601	0.19
911.975	0.19
912.349	0.19
912.722	0.19
913.096	0.19
913.47	0.19
913.844	0.19
914.217	0.19
914.591	0.19
914.964	0.19
915.338	0.19
915.711	0.18
916.084	0.19
916.458	0.18
916.831	0.19
917.204	0.19
917.577	0.18
917.95	0.18
918.323	0.18
918.696	0.18
919.069	0.18
919.441	0.18
919.814	0.18
920.187	0.19
920.559	0.18
920.932	0.18
921.304	0.18
921.677	0.18
922.049	0.18
922.421	0.18
922.794	0.18
923.166	0.18
923.538	0.18
923.91	0.18
924.282	0.18
924.654	0.18
925.026	0.18
925.398	0.18
925.769	0.18
926.141	0.18
926.513	0.18
926.884	0.17
927.256	0.18
927.627	0.18
927.999	0.18
928.37	0.18
928.741	0.17
929.113	0.18
929.484	0.18
929.855	0.18
930.226	0.18
930.597	0.17
930.968	0.17
931.339	0.17
931.709	0.18
932.08	0.17
932.451	0.17
932.821	0.17
933.192	0.17
933.562	0.17
933.933	0.17
934.303	0.17
934.673	0.17
935.044	0.17
935.414	0.17
935.784	0.17
936.154	0.17
936.524	0.17
936.894	0.17
937.264	0.17
937.634	0.17
938.004	0.17
938.373	0.17
938.743	0.17
939.113	0.17
939.482	0.17
939.852	0.17
940.221	0.17
940.59	0.17
940.96	0.17
941.329	0.17
941.698	0.17
942.067	0.17
942.436	0.16
942.805	0.16
943.174	0.16
943.543	0.17
943.912	0.17
944.28	0.16
944.649	0.16
945.018	0.16
945.386	0.16
945.755	0.16
946.123	0.16
946.492	0.16
946.86	0.17
947.228	0.16
947.596	0.16
947.965	0.16
948.333	0.16
948.701	0.16
949.069	0.16
949.437	0.16
949.804	0.16
950.172	0.16
950.54	0.16
950.908	0.16
951.275	0.16
951.643	0.16
952.01	0.16
952.378	0.15
952.745	0.16
953.112	0.16
953.479	0.16
953.847	0.16
954.214	0.15
954.581	0.15
954.948	0.15
955.315	0.16
955.682	0.15
956.048	0.15
956.415	0.15
956.782	0.15
957.148	0.15
957.515	0.15
957.881	0.16
958.248	0.15
958.614	0.15
958.981	0.15
959.347	0.15
959.713	0.15
960.079	0.14
960.445	0.15
960.811	0.15
961.177	0.15
961.543	0.15
961.909	0.15
962.275	0.15
962.641	0.15
963.006	0.15
963.372	0.15
963.737	0.15
964.103	0.14
964.468	0.15
964.834	0.15
965.199	0.14
965.564	0.14
965.929	0.14
966.294	0.14
966.659	0.15
967.024	0.14
967.389	0.14
967.754	0.14
968.119	0.14
968.484	0.14
968.848	0.14
969.213	0.14
969.578	0.14
969.942	0.14
970.307	0.14
970.671	0.14
971.035	0.14
971.399	0.14
971.764	0.14
972.128	0.14
972.492	0.14
972.856	0.14
973.22	0.14
973.584	0.14
973.948	0.14
974.311	0.14
974.675	0.14
975.039	0.14
975.402	0.13
975.766	0.14
976.129	0.14
976.493	0.14
976.856	0.14
977.219	0.14
977.582	0.14
977.946	0.13
978.309	0.13
978.672	0.13
979.035	0.13
979.398	0.13
979.761	0.13
980.123	0.14
980.486	0.13
980.849	0.13
981.211	0.13
981.574	0.14
981.936	0.13
982.299	0.13
982.661	0.13
983.023	0.13
983.386	0.13
983.748	0.14
984.11	0.13
984.472	0.13
984.834	0.13
985.196	0.13
985.558	0.13
985.92	0.13
986.281	0.13
986.643	0.13
987.005	0.13
987.366	0.13
987.728	0.13
988.089	0.13
988.451	0.13
988.812	0.13
989.173	0.13
989.534	0.13
989.895	0.13
990.257	0.13
990.618	0.12
990.979	0.13
991.339	0.13
991.7	0.12
992.061	0.13
992.422	0.12
992.782	0.12
993.143	0.12
993.503	0.12
993.864	0.13
994.224	0.12
994.585	0.12
994.945	0.12
995.305	0.12
995.665	0.12
996.025	0.12
996.385	0.12
996.745	0.12
997.105	0.13
997.465	0.12
997.825	0.12
998.185	0.12
998.544	0.12
998.904	0.12
999.263	0.12
999.623	0.12
999.982	0.12
1000.342	0.12
1000.701	0.11
1001.06	0.12
1001.419	0.12
1001.778	0.12
1002.138	0.12
1002.497	0.12
1002.855	0.12
1003.214	0.12
1003.573	0.12
1003.932	0.11
1004.29	0.12
1004.649	0.12
1005.008	0.12
1005.366	0.12
1005.725	0.12
1006.083	0.11
1006.441	0.11
1006.799	0.12
1007.158	0.11
1007.516	0.11
1007.874	0.11
1008.232	0.11
1008.59	0.11
1008.948	0.11
1009.305	0.11
1009.663	0.11
1010.021	0.11
1010.379	0.12
1010.736	0.11
1011.094	0.11
1011.451	0.11
1011.808	0.11
1012.166	0.11
1012.523	0.11
1012.88	0.11
1013.237	0.11
1013.594	0.11
1013.951	0.11
1014.308	0.11
1014.665	0.11
1015.022	0.11
1015.379	0.11
1015.735	0.1
1016.092	0.11
1016.449	0.11
1016.805	0.11
1017.162	0.11
1017.518	0.11
1017.874	0.11
1018.231	0.1
1018.587	0.11
1018.943	0.11
1019.299	0.1
1019.655	0.11
1020.011	0.11
1020.367	0.11
1020.723	0.11
1021.078	0.11
1021.434	0.11
1021.79	0.11
1022.145	0.11
1022.501	0.1
1022.856	0.1
1023.212	0.1
1023.567	0.11
1023.922	0.1
1024.278	0.11
1024.633	0.1
1024.988	0.1
1025.343	0.1
1025.698	0.11
1026.053	0.11
1026.408	0.11
1026.762	0.11
1027.117	0.1
1027.472	0.1
1027.826	0.1
1028.181	0.11
1028.535	0.11
1028.89	0.1
1029.244	0.1
1029.598	0.11
1029.952	0.1
1030.307	0.1
1030.661	0.11
1031.015	0.1
1031.369	0.1
1031.723	0.11
1032.076	0.1
