Data from Rubpy_EV_EDTA_TU(3000)_Blank_Blue_Flow_Absorbance__837__11-09-50-579.txt Node

Date: Mon Aug 03 11:09:50 BST 2026
User: fpm-admin
Spectrometer: SR600986
Trigger mode: 0
Integration Time (sec): 8.000000E-3
Scans to average: 3
Nonlinearity correction enabled: true
Boxcar width: 0
Storing dark spectrum: false
XAxis mode: Wavelengths
Number of Pixels in Spectrum: 2048
>>>>>Begin Spectral Data<<<<<
188.613	0.15
189.078	0.14
189.542	0.14
190.007	0.13
190.472	0.12
190.936	0.11
191.401	0.13
191.865	0.12
192.33	0.13
192.794	0.13
193.258	0.13
193.723	0.13
194.187	0.14
194.651	0.13
195.115	0.12
195.579	0.11
196.043	0.15
196.507	0.11
196.971	0.13
197.435	0.12
197.899	0.12
198.363	0.14
198.827	0.13
199.29	0.15
199.754	0.14
200.218	0.13
200.681	0.14
201.145	0.14
201.608	0.13
202.072	0.13
202.535	0.12
202.998	0.14
203.462	0.13
203.925	0.11
204.388	0.15
204.851	0.13
205.314	0.14
205.777	0.13
206.24	0.14
206.703	0.11
207.166	0.14
207.629	0.13
208.092	0.14
208.555	0.12
209.018	0.14
209.48	0.15
209.943	0.13
210.406	0.13
210.868	0.12
211.331	0.13
211.793	0.1
212.256	0.13
212.718	0.12
213.18	0.13
213.643	0.13
214.105	0.13
214.567	0.13
215.029	0.14
215.491	0.13
215.953	0.14
216.415	0.13
216.877	0.13
217.339	0.12
217.801	0.13
218.263	0.13
218.725	0.12
219.186	0.13
219.648	0.12
220.11	0.14
220.571	0.13
221.033	0.13
221.494	0.12
221.956	0.13
222.417	0.12
222.878	0.12
223.34	0.11
223.801	0.11
224.262	0.12
224.723	0.13
225.185	0.12
225.646	0.13
226.107	0.11
226.568	0.14
227.029	0.14
227.489	0.12
227.95	0.13
228.411	0.1
228.872	0.16
229.332	0.13
229.793	0.12
230.254	0.14
230.714	0.13
231.175	0.12
231.635	0.12
232.096	0.12
232.556	0.15
233.016	0.13
233.477	0.13
233.937	0.13
234.397	0.15
234.857	0.12
235.317	0.13
235.777	0.12
236.237	0.14
236.697	0.14
237.157	0.14
237.617	0.14
238.077	0.16
238.537	0.14
238.996	0.13
239.456	0.12
239.916	0.12
240.375	0.16
240.835	0.11
241.294	0.13
241.754	0.14
242.213	0.14
242.672	0.14
243.132	0.12
243.591	0.14
244.05	0.12
244.509	0.12
244.968	0.13
245.427	0.13
245.886	0.13
246.345	0.13
246.804	0.12
247.263	0.13
247.722	0.12
248.181	0.11
248.639	0.14
249.098	0.1
249.557	0.12
250.015	0.15
250.474	0.14
250.932	0.14
251.391	0.13
251.849	0.13
252.308	0.14
252.766	0.13
253.224	0.12
253.682	0.15
254.14	0.14
254.599	0.12
255.057	0.13
255.515	0.15
255.973	0.13
256.431	0.13
256.888	0.14
257.346	0.13
257.804	0.12
258.262	0.12
258.719	0.13
259.177	0.13
259.635	0.13
260.092	0.14
260.55	0.13
261.007	0.13
261.465	0.13
261.922	0.1
262.379	0.14
262.836	0.12
263.294	0.12
263.751	0.14
264.208	0.1
264.665	0.11
265.122	0.16
265.579	0.16
266.036	0.14
266.493	0.14
266.95	0.13
267.406	0.13
267.863	0.12
268.32	0.13
268.777	0.13
269.233	0.14
269.69	0.14
270.146	0.12
270.603	0.13
271.059	0.11
271.515	0.14
271.972	0.12
272.428	0.13
272.884	0.14
273.34	0.13
273.796	0.14
274.253	0.14
274.709	0.12
275.165	0.11
275.62	0.14
276.076	0.14
276.532	0.12
276.988	0.12
277.444	0.13
277.899	0.14
278.355	0.13
278.811	0.13
279.266	0.12
279.722	0.14
280.177	0.12
280.633	0.13
281.088	0.13
281.543	0.13
281.998	0.12
282.454	0.12
282.909	0.14
283.364	0.14
283.819	0.14
284.274	0.14
284.729	0.13
285.184	0.12
285.639	0.14
286.094	0.13
286.548	0.14
287.003	0.14
287.458	0.11
287.913	0.14
288.367	0.13
288.822	0.12
289.276	0.12
289.731	0.12
290.185	0.1
290.639	0.14
291.094	0.11
291.548	0.13
292.002	0.12
292.456	0.15
292.91	0.14
293.365	0.14
293.819	0.12
294.273	0.13
294.726	0.14
295.18	0.13
295.634	0.13
296.088	0.14
296.542	0.15
296.995	0.15
297.449	0.15
297.903	0.14
298.356	0.15
298.81	0.14
299.263	0.14
299.716	0.15
300.17	0.12
300.623	0.14
301.076	0.14
301.53	0.11
301.983	0.13
302.436	0.13
302.889	0.15
303.342	0.15
303.795	0.16
304.248	0.15
304.701	0.13
305.153	0.14
305.606	0.14
306.059	0.15
306.512	0.13
306.964	0.13
307.417	0.16
307.869	0.16
308.322	0.16
308.774	0.14
309.227	0.14
309.679	0.15
310.131	0.17
310.584	0.16
311.036	0.16
311.488	0.17
311.94	0.15
312.392	0.18
312.844	0.16
313.296	0.17
313.748	0.19
314.2	0.17
314.652	0.18
315.103	0.17
315.555	0.17
316.007	0.19
316.458	0.2
316.91	0.19
317.361	0.18
317.813	0.19
318.264	0.19
318.716	0.19
319.167	0.2
319.618	0.2
320.07	0.2
320.521	0.21
320.972	0.2
321.423	0.2
321.874	0.2
322.325	0.2
322.776	0.2
323.227	0.2
323.678	0.2
324.128	0.22
324.579	0.22
325.03	0.22
325.48	0.22
325.931	0.23
326.382	0.23
326.832	0.23
327.283	0.24
327.733	0.23
328.183	0.24
328.634	0.24
329.084	0.25
329.534	0.25
329.984	0.27
330.434	0.26
330.884	0.27
331.334	0.27
331.784	0.28
332.234	0.28
332.684	0.28
333.134	0.29
333.584	0.3
334.034	0.31
334.483	0.3
334.933	0.32
335.382	0.32
335.832	0.33
336.281	0.33
336.731	0.33
337.18	0.33
337.63	0.34
338.079	0.35
338.528	0.35
338.977	0.36
339.426	0.36
339.876	0.38
340.325	0.38
340.774	0.39
341.223	0.39
341.671	0.4
342.12	0.41
342.569	0.41
343.018	0.42
343.467	0.42
343.915	0.44
344.364	0.44
344.812	0.44
345.261	0.45
345.709	0.46
346.158	0.47
346.606	0.47
347.054	0.48
347.503	0.49
347.951	0.5
348.399	0.51
348.847	0.51
349.295	0.52
349.743	0.53
350.191	0.54
350.639	0.55
351.087	0.55
351.535	0.57
351.983	0.58
352.43	0.58
352.878	0.59
353.326	0.61
353.773	0.61
354.221	0.62
354.668	0.64
355.116	0.65
355.563	0.66
356.01	0.67
356.458	0.68
356.905	0.69
357.352	0.71
357.799	0.72
358.246	0.73
358.693	0.73
359.14	0.74
359.587	0.75
360.034	0.76
360.481	0.76
360.928	0.76
361.375	0.77
361.821	0.78
362.268	0.79
362.714	0.8
363.161	0.81
363.608	0.81
364.054	0.82
364.5	0.83
364.947	0.83
365.393	0.84
365.839	0.85
366.285	0.86
366.732	0.85
367.178	0.85
367.624	0.86
368.07	0.85
368.516	0.85
368.962	0.85
369.408	0.84
369.853	0.83
370.299	0.83
370.745	0.81
371.19	0.81
371.636	0.8
372.082	0.8
372.527	0.79
372.973	0.78
373.418	0.77
373.863	0.77
374.309	0.77
374.754	0.75
375.199	0.76
375.644	0.75
376.09	0.75
376.535	0.75
376.98	0.76
377.425	0.76
377.87	0.75
378.314	0.76
378.759	0.77
379.204	0.76
379.649	0.78
380.093	0.79
380.538	0.79
380.983	0.8
381.427	0.81
381.872	0.83
382.316	0.83
382.76	0.84
383.205	0.86
383.649	0.86
384.093	0.87
384.537	0.87
384.982	0.87
385.426	0.87
385.87	0.86
386.314	0.86
386.758	0.85
387.201	0.85
387.645	0.83
388.089	0.84
388.533	0.83
388.976	0.83
389.42	0.83
389.864	0.83
390.307	0.85
390.751	0.87
391.194	0.89
391.638	0.91
392.081	0.93
392.524	0.95
392.967	0.98
393.411	1.01
393.854	1.04
394.297	1.05
394.74	1.06
395.183	1.07
395.626	1.07
396.069	1.05
396.512	1.05
396.954	1.02
397.397	1.01
397.84	0.97
398.282	0.94
398.725	0.91
399.168	0.86
399.61	0.82
400.052	0.77
400.495	0.71
400.937	0.66
401.38	0.62
401.822	0.58
402.264	0.55
402.706	0.5
403.148	0.46
403.59	0.43
404.032	0.4
404.474	0.38
404.916	0.35
405.358	0.34
405.8	0.3
406.241	0.29
406.683	0.27
407.125	0.26
407.566	0.24
408.008	0.23
408.449	0.22
408.891	0.21
409.332	0.19
409.774	0.2
410.215	0.19
410.656	0.19
411.097	0.18
411.539	0.17
411.98	0.17
412.421	0.16
412.862	0.15
413.303	0.15
413.744	0.15
414.184	0.15
414.625	0.14
415.066	0.14
415.507	0.13
415.947	0.13
416.388	0.13
416.828	0.13
417.269	0.13
417.709	0.13
418.15	0.13
418.59	0.12
419.03	0.13
419.471	0.13
419.911	0.13
420.351	0.13
420.791	0.12
421.231	0.12
421.671	0.13
422.111	0.13
422.551	0.12
422.991	0.12
423.431	0.11
423.87	0.12
424.31	0.12
424.75	0.12
425.189	0.12
425.629	0.12
426.068	0.12
426.508	0.12
426.947	0.11
427.386	0.12
427.826	0.09
428.265	0.11
428.704	0.12
429.143	0.11
429.582	0.11
430.021	0.12
430.46	0.11
430.899	0.12
431.338	0.12
431.777	0.12
432.216	0.11
432.655	0.13
433.093	0.12
433.532	0.12
433.971	0.11
434.409	0.11
434.848	0.12
435.286	0.11
435.724	0.12
436.163	0.12
436.601	0.11
437.039	0.11
437.477	0.12
437.916	0.11
438.354	0.14
438.792	0.11
439.23	0.13
439.668	0.12
440.105	0.11
440.543	0.11
440.981	0.12
441.419	0.12
441.856	0.12
442.294	0.13
442.732	0.13
443.169	0.13
443.607	0.12
444.044	0.11
444.481	0.12
444.919	0.13
445.356	0.13
445.793	0.11
446.23	0.13
446.668	0.12
447.105	0.13
447.542	0.12
447.979	0.13
448.416	0.13
448.852	0.13
449.289	0.14
449.726	0.12
450.163	0.14
450.599	0.14
451.036	0.12
451.473	0.15
451.909	0.13
452.346	0.12
452.782	0.12
453.218	0.13
453.655	0.13
454.091	0.12
454.527	0.13
454.963	0.14
455.399	0.14
455.835	0.13
456.271	0.13
456.707	0.12
457.143	0.12
457.579	0.13
458.015	0.13
458.451	0.14
458.886	0.14
459.322	0.14
459.758	0.14
460.193	0.14
460.629	0.12
461.064	0.14
461.5	0.13
461.935	0.13
462.37	0.13
462.805	0.14
463.241	0.14
463.676	0.15
464.111	0.13
464.546	0.15
464.981	0.13
465.416	0.14
465.851	0.15
466.286	0.15
466.72	0.14
467.155	0.15
467.59	0.14
468.024	0.14
468.459	0.14
468.893	0.15
469.328	0.15
469.762	0.14
470.197	0.16
470.631	0.14
471.065	0.15
471.5	0.15
471.934	0.14
472.368	0.14
472.802	0.16
473.236	0.15
473.67	0.15
474.104	0.15
474.538	0.16
474.972	0.15
475.405	0.15
475.839	0.16
476.273	0.16
476.706	0.16
477.14	0.16
477.573	0.16
478.007	0.17
478.44	0.17
478.874	0.16
479.307	0.17
479.74	0.17
480.173	0.17
480.606	0.17
481.04	0.17
481.473	0.17
481.906	0.18
482.339	0.18
482.771	0.18
483.204	0.18
483.637	0.18
484.07	0.18
484.502	0.19
484.935	0.18
485.368	0.19
485.8	0.18
486.233	0.19
486.665	0.19
487.098	0.19
487.53	0.19
487.962	0.2
488.394	0.19
488.827	0.2
489.259	0.2
489.691	0.2
490.123	0.2
490.555	0.2
490.987	0.2
491.418	0.21
491.85	0.2
492.282	0.21
492.714	0.21
493.145	0.21
493.577	0.22
494.009	0.22
494.44	0.22
494.872	0.22
495.303	0.22
495.734	0.22
496.166	0.22
496.597	0.23
497.028	0.22
497.459	0.23
497.89	0.23
498.321	0.23
498.752	0.23
499.183	0.23
499.614	0.24
500.045	0.24
500.476	0.24
500.906	0.24
501.337	0.24
501.768	0.25
502.198	0.25
502.629	0.25
503.059	0.25
503.49	0.25
503.92	0.26
504.35	0.26
504.781	0.26
505.211	0.26
505.641	0.26
506.071	0.26
506.501	0.27
506.931	0.27
507.361	0.27
507.791	0.27
508.221	0.27
508.651	0.27
509.081	0.28
509.51	0.28
509.94	0.28
510.37	0.28
510.799	0.28
511.229	0.28
511.658	0.29
512.087	0.29
512.517	0.29
512.946	0.29
513.375	0.29
513.804	0.3
514.234	0.29
514.663	0.3
515.092	0.3
515.521	0.3
515.95	0.3
516.378	0.31
516.807	0.31
517.236	0.31
517.665	0.31
518.093	0.31
518.522	0.31
518.951	0.32
519.379	0.32
519.807	0.31
520.236	0.32
520.664	0.32
521.093	0.32
521.521	0.32
521.949	0.32
522.377	0.32
522.805	0.33
523.233	0.33
523.661	0.33
524.089	0.33
524.517	0.33
524.945	0.33
525.373	0.34
525.8	0.34
526.228	0.34
526.656	0.34
527.083	0.34
527.511	0.34
527.938	0.34
528.366	0.34
528.793	0.35
529.22	0.35
529.648	0.35
530.075	0.35
530.502	0.35
530.929	0.35
531.356	0.36
531.783	0.36
532.21	0.36
532.637	0.36
533.064	0.36
533.49	0.36
533.917	0.36
534.344	0.37
534.771	0.37
535.197	0.37
535.624	0.37
536.05	0.37
536.477	0.37
536.903	0.37
537.329	0.38
537.755	0.38
538.182	0.38
538.608	0.38
539.034	0.38
539.46	0.39
539.886	0.39
540.312	0.39
540.738	0.39
541.164	0.39
541.589	0.39
542.015	0.39
542.441	0.4
542.867	0.4
543.292	0.4
543.718	0.4
544.143	0.4
544.569	0.4
544.994	0.41
545.419	0.41
545.845	0.41
546.27	0.41
546.695	0.41
547.12	0.41
547.545	0.41
547.97	0.41
548.395	0.41
548.82	0.41
549.245	0.42
549.67	0.42
550.094	0.42
550.519	0.42
550.944	0.42
551.368	0.42
551.793	0.42
552.217	0.42
552.642	0.43
553.066	0.42
553.49	0.43
553.915	0.43
554.339	0.43
554.763	0.43
555.187	0.43
555.611	0.43
556.035	0.43
556.459	0.43
556.883	0.43
557.307	0.43
557.731	0.43
558.154	0.43
558.578	0.43
559.002	0.43
559.425	0.43
559.849	0.43
560.272	0.43
560.696	0.43
561.119	0.43
561.543	0.43
561.966	0.43
562.389	0.43
562.812	0.43
563.235	0.43
563.658	0.43
564.081	0.43
564.504	0.43
564.927	0.43
565.35	0.43
565.773	0.43
566.196	0.43
566.618	0.43
567.041	0.43
567.463	0.43
567.886	0.43
568.309	0.44
568.731	0.43
569.153	0.43
569.576	0.43
569.998	0.43
570.42	0.43
570.842	0.43
571.264	0.43
571.686	0.43
572.108	0.43
572.53	0.43
572.952	0.43
573.374	0.43
573.796	0.43
574.218	0.43
574.639	0.43
575.061	0.43
575.483	0.43
575.904	0.43
576.326	0.43
576.747	0.43
577.168	0.43
577.59	0.43
578.011	0.43
578.432	0.43
578.853	0.43
579.274	0.43
579.695	0.43
580.116	0.43
580.537	0.43
580.958	0.43
581.379	0.43
581.8	0.43
582.221	0.43
582.641	0.43
583.062	0.43
583.482	0.43
583.903	0.43
584.323	0.43
584.744	0.43
585.164	0.43
585.584	0.43
586.005	0.43
586.425	0.43
586.845	0.44
587.265	0.43
587.685	0.44
588.105	0.44
588.525	0.44
588.945	0.44
589.365	0.44
589.785	0.44
590.204	0.44
590.624	0.44
591.044	0.45
591.463	0.45
591.883	0.45
592.302	0.45
592.721	0.46
593.141	0.45
593.56	0.45
593.979	0.46
594.399	0.45
594.818	0.45
595.237	0.46
595.656	0.46
596.075	0.46
596.494	0.46
596.913	0.46
597.331	0.46
597.75	0.46
598.169	0.47
598.587	0.47
599.006	0.46
599.425	0.46
599.843	0.47
600.262	0.46
600.68	0.46
601.098	0.46
601.517	0.46
601.935	0.46
602.353	0.46
602.771	0.46
603.189	0.46
603.607	0.46
604.025	0.46
604.443	0.46
604.861	0.46
605.279	0.46
605.696	0.46
606.114	0.46
606.532	0.45
606.949	0.45
607.367	0.45
607.784	0.45
608.202	0.45
608.619	0.45
609.036	0.44
609.454	0.44
609.871	0.44
610.288	0.44
610.705	0.44
611.122	0.44
611.539	0.44
611.956	0.43
612.373	0.43
612.79	0.43
613.207	0.43
613.623	0.43
614.04	0.43
614.457	0.43
614.873	0.42
615.29	0.42
615.706	0.42
616.122	0.42
616.539	0.41
616.955	0.41
617.371	0.41
617.788	0.41
618.204	0.41
618.62	0.41
619.036	0.41
619.452	0.41
619.868	0.4
620.284	0.4
620.699	0.4
621.115	0.4
621.531	0.4
621.946	0.39
622.362	0.39
622.778	0.39
623.193	0.39
623.608	0.39
624.024	0.38
624.439	0.38
624.854	0.38
625.27	0.38
625.685	0.38
626.1	0.37
626.515	0.37
626.93	0.36
627.345	0.36
627.76	0.36
628.175	0.36
628.589	0.36
629.004	0.35
629.419	0.35
629.833	0.35
630.248	0.35
630.663	0.34
631.077	0.34
631.491	0.34
631.906	0.33
632.32	0.33
632.734	0.33
633.148	0.33
633.563	0.32
633.977	0.32
634.391	0.32
634.805	0.31
635.219	0.31
635.632	0.31
636.046	0.3
636.46	0.3
636.874	0.3
637.287	0.3
637.701	0.29
638.115	0.29
638.528	0.29
638.941	0.28
639.355	0.28
639.768	0.28
640.181	0.28
640.595	0.28
641.008	0.27
641.421	0.27
641.834	0.27
642.247	0.27
642.66	0.27
643.073	0.26
643.486	0.27
643.898	0.26
644.311	0.26
644.724	0.26
645.136	0.25
645.549	0.25
645.961	0.25
646.374	0.25
646.786	0.25
647.199	0.25
647.611	0.25
648.023	0.25
648.435	0.25
648.847	0.25
649.26	0.24
649.672	0.25
650.084	0.24
650.495	0.24
650.907	0.24
651.319	0.24
651.731	0.24
652.143	0.24
652.554	0.24
652.966	0.24
653.377	0.24
653.789	0.24
654.2	0.24
654.612	0.24
655.023	0.24
655.434	0.21
655.845	0.2
656.256	0.22
656.668	0.24
657.079	0.23
657.49	0.23
657.901	0.23
658.311	0.23
658.722	0.23
659.133	0.23
659.544	0.23
659.954	0.23
660.365	0.23
660.775	0.23
661.186	0.23
661.596	0.23
662.007	0.23
662.417	0.23
662.827	0.22
663.238	0.23
663.648	0.22
664.058	0.22
664.468	0.22
664.878	0.22
665.288	0.22
665.698	0.22
666.108	0.22
666.517	0.22
666.927	0.22
667.337	0.22
667.746	0.21
668.156	0.22
668.565	0.21
668.975	0.21
669.384	0.21
669.794	0.21
670.203	0.21
670.612	0.2
671.021	0.2
671.43	0.2
671.84	0.2
672.249	0.2
672.658	0.2
673.066	0.2
673.475	0.2
673.884	0.19
674.293	0.19
674.702	0.19
675.11	0.19
675.519	0.19
675.927	0.19
676.336	0.18
676.744	0.18
677.152	0.18
677.561	0.18
677.969	0.18
678.377	0.18
678.785	0.18
679.193	0.17
679.601	0.17
680.009	0.17
680.417	0.17
680.825	0.17
681.233	0.16
681.641	0.16
682.048	0.16
682.456	0.16
682.864	0.16
683.271	0.15
683.679	0.15
684.086	0.15
684.493	0.15
684.901	0.15
685.308	0.14
685.715	0.15
686.122	0.14
686.529	0.14
686.936	0.14
687.343	0.14
687.75	0.14
688.157	0.13
688.564	0.13
688.971	0.13
689.378	0.13
689.784	0.13
690.191	0.12
690.597	0.12
691.004	0.12
691.41	0.12
691.817	0.12
692.223	0.12
692.629	0.12
693.035	0.11
693.442	0.12
693.848	0.11
694.254	0.11
694.66	0.11
695.066	0.11
695.471	0.11
695.877	0.11
696.283	0.1
696.689	0.1
697.094	0.1
697.5	0.1
697.906	0.1
698.311	0.1
698.716	0.1
699.122	0.1
699.527	0.1
699.932	0.1
700.338	0.1
700.743	0.1
701.148	0.09
701.553	0.09
701.958	0.09
702.363	0.09
702.768	0.09
703.173	0.09
703.577	0.09
703.982	0.09
704.387	0.09
704.791	0.09
705.196	0.09
705.6	0.09
706.005	0.09
706.409	0.09
706.814	0.09
707.218	0.09
707.622	0.09
708.026	0.09
708.43	0.09
708.834	0.09
709.238	0.09
709.642	0.09
710.046	0.09
710.45	0.09
710.854	0.09
711.257	0.09
711.661	0.09
712.065	0.09
712.468	0.09
712.872	0.09
713.275	0.09
713.679	0.09
714.082	0.09
714.485	0.09
714.888	0.09
715.291	0.09
715.695	0.09
716.098	0.09
716.501	0.09
716.904	0.09
717.306	0.09
717.709	0.09
718.112	0.09
718.515	0.09
718.917	0.09
719.32	0.09
719.723	0.09
720.125	0.09
720.527	0.09
720.93	0.09
721.332	0.09
721.734	0.09
722.137	0.1
722.539	0.1
722.941	0.09
723.343	0.1
723.745	0.09
724.147	0.09
724.549	0.1
724.95	0.09
725.352	0.1
725.754	0.1
726.156	0.1
726.557	0.1
726.959	0.1
727.36	0.1
727.762	0.1
728.163	0.1
728.564	0.1
728.966	0.1
729.367	0.1
729.768	0.1
730.169	0.1
730.57	0.1
730.971	0.1
731.372	0.1
731.773	0.1
732.174	0.1
732.574	0.1
732.975	0.1
733.376	0.1
733.776	0.1
734.177	0.09
734.577	0.1
734.978	0.1
735.378	0.1
735.778	0.1
736.179	0.1
736.579	0.1
736.979	0.09
737.379	0.1
737.779	0.1
738.179	0.09
738.579	0.09
738.979	0.09
739.379	0.09
739.778	0.09
740.178	0.09
740.578	0.09
740.977	0.09
741.377	0.09
741.776	0.09
742.176	0.09
742.575	0.09
742.974	0.09
743.374	0.09
743.773	0.09
744.172	0.09
744.571	0.09
744.97	0.08
745.369	0.08
745.768	0.08
746.167	0.08
746.565	0.08
746.964	0.08
747.363	0.08
747.761	0.08
748.16	0.08
748.559	0.08
748.957	0.08
749.355	0.08
749.754	0.08
750.152	0.08
750.55	0.08
750.948	0.07
751.347	0.07
751.745	0.07
752.143	0.07
752.541	0.07
752.938	0.07
753.336	0.07
753.734	0.07
754.132	0.07
754.529	0.07
754.927	0.07
755.325	0.07
755.722	0.07
756.119	0.07
756.517	0.07
756.914	0.06
757.311	0.06
757.709	0.06
758.106	0.06
758.503	0.06
758.9	0.06
759.297	0.06
759.694	0.06
760.091	0.06
760.488	0.06
760.884	0.06
761.281	0.06
761.678	0.06
762.074	0.06
762.471	0.06
762.867	0.06
763.264	0.06
763.66	0.06
764.056	0.06
764.453	0.06
764.849	0.06
765.245	0.06
765.641	0.06
766.037	0.06
766.433	0.06
766.829	0.06
767.225	0.06
767.621	0.06
768.016	0.06
768.412	0.06
768.808	0.06
769.203	0.06
769.599	0.06
769.994	0.06
770.389	0.06
770.785	0.06
771.18	0.06
771.575	0.06
771.971	0.06
772.366	0.06
772.761	0.06
773.156	0.06
773.551	0.06
773.945	0.06
774.34	0.05
774.735	0.06
775.13	0.06
775.524	0.06
775.919	0.06
776.314	0.06
776.708	0.06
777.103	0.06
777.497	0.06
777.891	0.06
778.285	0.06
778.68	0.06
779.074	0.06
779.468	0.06
779.862	0.06
780.256	0.06
780.65	0.06
781.044	0.06
781.438	0.06
781.831	0.06
782.225	0.06
782.619	0.06
783.012	0.06
783.406	0.06
783.799	0.06
784.193	0.06
784.586	0.06
784.979	0.06
785.372	0.06
785.766	0.06
786.159	0.06
786.552	0.06
786.945	0.06
787.338	0.06
787.731	0.06
788.123	0.06
788.516	0.06
788.909	0.06
789.302	0.06
789.694	0.06
790.087	0.06
790.479	0.06
790.872	0.06
791.264	0.06
791.656	0.06
792.049	0.06
792.441	0.06
792.833	0.06
793.225	0.06
793.617	0.06
794.009	0.06
794.401	0.06
794.793	0.06
795.185	0.06
795.576	0.06
795.968	0.06
796.36	0.07
796.751	0.07
797.143	0.07
797.534	0.07
797.926	0.06
798.317	0.06
798.708	0.07
799.1	0.07
799.491	0.07
799.882	0.07
800.273	0.07
800.664	0.07
801.055	0.07
801.446	0.07
801.837	0.07
802.227	0.07
802.618	0.07
803.009	0.07
803.399	0.07
803.79	0.07
804.18	0.07
804.571	0.07
804.961	0.07
805.351	0.07
805.742	0.07
806.132	0.07
806.522	0.07
806.912	0.07
807.302	0.07
807.692	0.07
808.082	0.07
808.472	0.07
808.862	0.07
809.251	0.07
809.641	0.07
810.031	0.07
810.42	0.07
810.81	0.07
811.199	0.07
811.589	0.07
811.978	0.07
812.367	0.08
812.756	0.07
813.146	0.07
813.535	0.07
813.924	0.07
814.313	0.07
814.702	0.08
815.091	0.08
815.479	0.07
815.868	0.08
816.257	0.08
816.645	0.08
817.034	0.08
817.423	0.08
817.811	0.08
818.199	0.08
818.588	0.08
818.976	0.08
819.364	0.08
819.753	0.08
820.141	0.08
820.529	0.08
820.917	0.08
821.305	0.08
821.693	0.08
822.08	0.08
822.468	0.08
822.856	0.08
823.244	0.08
823.631	0.08
824.019	0.08
824.406	0.08
824.794	0.08
825.181	0.08
825.568	0.08
825.956	0.08
826.343	0.08
826.73	0.08
827.117	0.08
827.504	0.08
827.891	0.08
828.278	0.08
828.665	0.08
829.052	0.08
829.438	0.08
829.825	0.08
830.212	0.08
830.598	0.08
830.985	0.08
831.371	0.08
831.757	0.08
832.144	0.08
832.53	0.08
832.916	0.08
833.302	0.08
833.688	0.09
834.075	0.08
834.461	0.08
834.846	0.08
835.232	0.08
835.618	0.09
836.004	0.08
836.39	0.08
836.775	0.09
837.161	0.08
837.546	0.08
837.932	0.09
838.317	0.09
838.702	0.09
839.088	0.09
839.473	0.09
839.858	0.09
840.243	0.09
840.628	0.08
841.013	0.09
841.398	0.08
841.783	0.09
842.168	0.09
842.553	0.09
842.937	0.09
843.322	0.08
843.707	0.09
844.091	0.09
844.476	0.09
844.86	0.09
845.244	0.09
845.629	0.09
846.013	0.09
846.397	0.09
846.781	0.09
847.165	0.09
847.549	0.09
847.933	0.09
848.317	0.09
848.701	0.09
849.085	0.09
849.468	0.09
849.852	0.09
850.236	0.09
850.619	0.09
851.003	0.09
851.386	0.09
851.769	0.09
852.153	0.09
852.536	0.09
852.919	0.09
853.302	0.09
853.685	0.09
854.068	0.09
854.451	0.09
854.834	0.09
855.217	0.09
855.6	0.09
855.982	0.09
856.365	0.09
856.748	0.09
857.13	0.09
857.513	0.09
857.895	0.09
858.277	0.09
858.66	0.09
859.042	0.09
859.424	0.09
859.806	0.09
860.188	0.09
860.57	0.09
860.952	0.09
861.334	0.09
861.716	0.09
862.098	0.09
862.48	0.09
862.861	0.09
863.243	0.09
863.624	0.09
864.006	0.09
864.387	0.09
864.769	0.09
865.15	0.09
865.531	0.09
865.912	0.09
866.294	0.09
866.675	0.09
867.056	0.09
867.437	0.09
867.818	0.09
868.198	0.09
868.579	0.09
868.96	0.09
869.341	0.09
869.721	0.09
870.102	0.09
870.482	0.09
870.863	0.09
871.243	0.09
871.623	0.09
872.003	0.09
872.384	0.09
872.764	0.09
873.144	0.09
873.524	0.09
873.904	0.09
874.284	0.09
874.664	0.09
875.043	0.09
875.423	0.09
875.803	0.09
876.182	0.09
876.562	0.09
876.941	0.09
877.321	0.09
877.7	0.09
878.079	0.09
878.459	0.09
878.838	0.09
879.217	0.09
879.596	0.09
879.975	0.09
880.354	0.09
880.733	0.09
881.112	0.09
881.491	0.09
881.869	0.09
882.248	0.09
882.627	0.09
883.005	0.09
883.384	0.09
883.762	0.09
884.14	0.09
884.519	0.09
884.897	0.09
885.275	0.09
885.653	0.09
886.031	0.09
886.409	0.09
886.787	0.09
887.165	0.09
887.543	0.09
887.921	0.09
888.298	0.09
888.676	0.09
889.054	0.09
889.431	0.09
889.809	0.09
890.186	0.09
890.563	0.09
890.941	0.09
891.318	0.09
891.695	0.09
892.072	0.09
892.449	0.09
892.826	0.09
893.203	0.09
893.58	0.09
893.957	0.09
894.334	0.09
894.71	0.09
895.087	0.09
895.464	0.09
895.84	0.09
896.217	0.09
896.593	0.09
896.969	0.09
897.346	0.09
897.722	0.09
898.098	0.09
898.474	0.09
898.85	0.09
899.226	0.09
899.602	0.09
899.978	0.09
900.354	0.08
900.73	0.09
901.105	0.09
901.481	0.09
901.857	0.09
902.232	0.09
902.608	0.09
902.983	0.09
903.358	0.09
903.734	0.09
904.109	0.09
904.484	0.08
904.859	0.08
905.234	0.08
905.609	0.09
905.984	0.08
906.359	0.09
906.734	0.08
907.108	0.08
907.483	0.08
907.858	0.08
908.232	0.09
908.607	0.09
908.981	0.08
909.356	0.08
909.73	0.09
910.104	0.09
910.478	0.08
910.853	0.08
911.227	0.09
911.601	0.08
911.975	0.08
912.349	0.08
912.722	0.08
913.096	0.08
913.47	0.08
913.844	0.08
914.217	0.08
914.591	0.08
914.964	0.08
915.338	0.08
915.711	0.08
916.084	0.08
916.458	0.08
916.831	0.08
917.204	0.08
917.577	0.08
917.95	0.08
918.323	0.08
918.696	0.08
919.069	0.08
919.441	0.08
919.814	0.08
920.187	0.08
920.559	0.08
920.932	0.08
921.304	0.08
921.677	0.08
922.049	0.08
922.421	0.08
922.794	0.08
923.166	0.08
923.538	0.08
923.91	0.08
924.282	0.08
924.654	0.08
925.026	0.08
925.398	0.08
925.769	0.08
926.141	0.08
926.513	0.08
926.884	0.08
927.256	0.08
927.627	0.08
927.999	0.08
928.37	0.08
928.741	0.08
929.113	0.08
929.484	0.08
929.855	0.08
930.226	0.08
930.597	0.08
930.968	0.08
931.339	0.08
931.709	0.08
932.08	0.08
932.451	0.08
932.821	0.08
933.192	0.08
933.562	0.07
933.933	0.07
934.303	0.08
934.673	0.08
935.044	0.07
935.414	0.08
935.784	0.07
936.154	0.08
936.524	0.08
936.894	0.07
937.264	0.08
937.634	0.07
938.004	0.07
938.373	0.08
938.743	0.08
939.113	0.07
939.482	0.07
939.852	0.08
940.221	0.07
940.59	0.07
940.96	0.07
941.329	0.07
941.698	0.07
942.067	0.07
942.436	0.08
942.805	0.07
943.174	0.07
943.543	0.07
943.912	0.08
944.28	0.07
944.649	0.07
945.018	0.07
945.386	0.07
945.755	0.07
946.123	0.07
946.492	0.07
946.86	0.07
947.228	0.07
947.596	0.07
947.965	0.07
948.333	0.07
948.701	0.08
949.069	0.07
949.437	0.07
949.804	0.07
950.172	0.07
950.54	0.07
950.908	0.07
951.275	0.07
951.643	0.07
952.01	0.07
952.378	0.07
952.745	0.07
953.112	0.07
953.479	0.07
953.847	0.07
954.214	0.07
954.581	0.07
954.948	0.07
955.315	0.07
955.682	0.07
956.048	0.07
956.415	0.06
956.782	0.07
957.148	0.07
957.515	0.07
957.881	0.07
958.248	0.07
958.614	0.07
958.981	0.07
959.347	0.06
959.713	0.07
960.079	0.06
960.445	0.07
960.811	0.06
961.177	0.07
961.543	0.06
961.909	0.07
962.275	0.07
962.641	0.07
963.006	0.06
963.372	0.07
963.737	0.06
964.103	0.06
964.468	0.07
964.834	0.07
965.199	0.06
965.564	0.07
965.929	0.06
966.294	0.06
966.659	0.06
967.024	0.06
967.389	0.06
967.754	0.06
968.119	0.06
968.484	0.06
968.848	0.06
969.213	0.06
969.578	0.06
969.942	0.06
970.307	0.06
970.671	0.06
971.035	0.06
971.399	0.06
971.764	0.06
972.128	0.06
972.492	0.06
972.856	0.06
973.22	0.06
973.584	0.06
973.948	0.06
974.311	0.06
974.675	0.06
975.039	0.06
975.402	0.06
975.766	0.06
976.129	0.06
976.493	0.06
976.856	0.06
977.219	0.06
977.582	0.06
977.946	0.06
978.309	0.06
978.672	0.06
979.035	0.06
979.398	0.06
979.761	0.06
980.123	0.06
980.486	0.06
980.849	0.06
981.211	0.06
981.574	0.06
981.936	0.06
982.299	0.06
982.661	0.06
983.023	0.05
983.386	0.06
983.748	0.06
984.11	0.06
984.472	0.06
984.834	0.06
985.196	0.06
985.558	0.06
985.92	0.06
986.281	0.06
986.643	0.05
987.005	0.06
987.366	0.06
987.728	0.06
988.089	0.05
988.451	0.06
988.812	0.06
989.173	0.06
989.534	0.06
989.895	0.06
990.257	0.06
990.618	0.05
990.979	0.05
991.339	0.06
991.7	0.05
992.061	0.06
992.422	0.05
992.782	0.06
993.143	0.05
993.503	0.06
993.864	0.05
994.224	0.06
994.585	0.05
994.945	0.05
995.305	0.05
995.665	0.05
996.025	0.05
996.385	0.06
996.745	0.06
997.105	0.06
997.465	0.05
997.825	0.05
998.185	0.05
998.544	0.06
998.904	0.05
999.263	0.05
999.623	0.05
999.982	0.05
1000.342	0.06
1000.701	0.05
1001.06	0.05
1001.419	0.05
1001.778	0.05
1002.138	0.05
1002.497	0.06
1002.855	0.06
1003.214	0.05
1003.573	0.06
1003.932	0.05
1004.29	0.05
1004.649	0.05
1005.008	0.05
1005.366	0.05
1005.725	0.05
1006.083	0.05
1006.441	0.05
1006.799	0.05
1007.158	0.05
1007.516	0.05
1007.874	0.05
1008.232	0.05
1008.59	0.05
1008.948	0.05
1009.305	0.05
1009.663	0.05
1010.021	0.05
1010.379	0.05
1010.736	0.05
1011.094	0.05
1011.451	0.05
1011.808	0.05
1012.166	0.05
1012.523	0.05
1012.88	0.05
1013.237	0.05
1013.594	0.05
1013.951	0.05
1014.308	0.05
1014.665	0.05
1015.022	0.05
1015.379	0.05
1015.735	0.05
1016.092	0.05
1016.449	0.05
1016.805	0.05
1017.162	0.04
1017.518	0.05
1017.874	0.05
1018.231	0.05
1018.587	0.05
1018.943	0.05
1019.299	0.05
1019.655	0.05
1020.011	0.05
1020.367	0.05
1020.723	0.05
1021.078	0.05
1021.434	0.05
1021.79	0.04
1022.145	0.05
1022.501	0.05
1022.856	0.05
1023.212	0.05
1023.567	0.05
1023.922	0.05
1024.278	0.05
1024.633	0.05
1024.988	0.05
1025.343	0.04
1025.698	0.05
1026.053	0.05
1026.408	0.05
1026.762	0.05
1027.117	0.05
1027.472	0.05
1027.826	0.04
1028.181	0.05
1028.535	0.05
1028.89	0.05
1029.244	0.05
1029.598	0.05
1029.952	0.05
1030.307	0.05
1030.661	0.05
1031.015	0.05
1031.369	0.05
1031.723	0.05
1032.076	0.04
