Data from Rubpy_EV_EDTA_TU(3000)_Blank_Blue_Flow_Absorbance__2939__11-44-52-576.txt Node

Date: Mon Aug 03 11:44:52 BST 2026
User: fpm-admin
Spectrometer: SR600986
Trigger mode: 0
Integration Time (sec): 8.000000E-3
Scans to average: 3
Nonlinearity correction enabled: true
Boxcar width: 0
Storing dark spectrum: false
XAxis mode: Wavelengths
Number of Pixels in Spectrum: 2048
>>>>>Begin Spectral Data<<<<<
188.613	0.26
189.078	0.27
189.542	0.27
190.007	0.23
190.472	0.25
190.936	0.25
191.401	0.26
191.865	0.25
192.33	0.24
192.794	0.26
193.258	0.25
193.723	0.28
194.187	0.27
194.651	0.27
195.115	0.24
195.579	0.25
196.043	0.25
196.507	0.25
196.971	0.25
197.435	0.24
197.899	0.26
198.363	0.26
198.827	0.25
199.29	0.25
199.754	0.27
200.218	0.24
200.681	0.25
201.145	0.28
201.608	0.26
202.072	0.26
202.535	0.25
202.998	0.26
203.462	0.24
203.925	0.26
204.388	0.25
204.851	0.25
205.314	0.25
205.777	0.24
206.24	0.27
206.703	0.25
207.166	0.27
207.629	0.26
208.092	0.26
208.555	0.24
209.018	0.25
209.48	0.26
209.943	0.26
210.406	0.25
210.868	0.23
211.331	0.26
211.793	0.22
212.256	0.24
212.718	0.26
213.18	0.24
213.643	0.25
214.105	0.26
214.567	0.24
215.029	0.26
215.491	0.25
215.953	0.27
216.415	0.26
216.877	0.25
217.339	0.24
217.801	0.24
218.263	0.23
218.725	0.23
219.186	0.25
219.648	0.28
220.11	0.25
220.571	0.24
221.033	0.26
221.494	0.24
221.956	0.25
222.417	0.24
222.878	0.23
223.34	0.25
223.801	0.25
224.262	0.27
224.723	0.25
225.185	0.25
225.646	0.26
226.107	0.25
226.568	0.25
227.029	0.27
227.489	0.23
227.95	0.24
228.411	0.25
228.872	0.25
229.332	0.24
229.793	0.26
230.254	0.26
230.714	0.24
231.175	0.24
231.635	0.24
232.096	0.25
232.556	0.26
233.016	0.23
233.477	0.26
233.937	0.24
234.397	0.26
234.857	0.24
235.317	0.23
235.777	0.23
236.237	0.24
236.697	0.26
237.157	0.25
237.617	0.27
238.077	0.26
238.537	0.25
238.996	0.26
239.456	0.28
239.916	0.24
240.375	0.27
240.835	0.25
241.294	0.23
241.754	0.24
242.213	0.26
242.672	0.26
243.132	0.24
243.591	0.25
244.05	0.26
244.509	0.25
244.968	0.26
245.427	0.25
245.886	0.25
246.345	0.25
246.804	0.25
247.263	0.26
247.722	0.25
248.181	0.25
248.639	0.27
249.098	0.24
249.557	0.25
250.015	0.25
250.474	0.25
250.932	0.26
251.391	0.26
251.849	0.26
252.308	0.27
252.766	0.26
253.224	0.25
253.682	0.25
254.14	0.28
254.599	0.26
255.057	0.26
255.515	0.26
255.973	0.26
256.431	0.25
256.888	0.27
257.346	0.25
257.804	0.26
258.262	0.26
258.719	0.24
259.177	0.24
259.635	0.25
260.092	0.25
260.55	0.25
261.007	0.25
261.465	0.26
261.922	0.26
262.379	0.22
262.836	0.25
263.294	0.25
263.751	0.27
264.208	0.23
264.665	0.24
265.122	0.25
265.579	0.26
266.036	0.28
266.493	0.26
266.95	0.23
267.406	0.24
267.863	0.25
268.32	0.25
268.777	0.23
269.233	0.26
269.69	0.24
270.146	0.26
270.603	0.25
271.059	0.25
271.515	0.26
271.972	0.26
272.428	0.26
272.884	0.25
273.34	0.24
273.796	0.24
274.253	0.26
274.709	0.25
275.165	0.24
275.62	0.26
276.076	0.27
276.532	0.24
276.988	0.24
277.444	0.24
277.899	0.26
278.355	0.27
278.811	0.26
279.266	0.23
279.722	0.26
280.177	0.24
280.633	0.25
281.088	0.23
281.543	0.26
281.998	0.22
282.454	0.26
282.909	0.26
283.364	0.26
283.819	0.26
284.274	0.25
284.729	0.27
285.184	0.25
285.639	0.25
286.094	0.24
286.548	0.27
287.003	0.25
287.458	0.25
287.913	0.28
288.367	0.25
288.822	0.27
289.276	0.26
289.731	0.26
290.185	0.25
290.639	0.25
291.094	0.26
291.548	0.26
292.002	0.26
292.456	0.27
292.91	0.27
293.365	0.28
293.819	0.25
294.273	0.28
294.726	0.26
295.18	0.26
295.634	0.28
296.088	0.25
296.542	0.27
296.995	0.26
297.449	0.27
297.903	0.28
298.356	0.25
298.81	0.27
299.263	0.27
299.716	0.25
300.17	0.25
300.623	0.26
301.076	0.3
301.53	0.25
301.983	0.27
302.436	0.25
302.889	0.27
303.342	0.27
303.795	0.28
304.248	0.28
304.701	0.27
305.153	0.29
305.606	0.28
306.059	0.27
306.512	0.28
306.964	0.27
307.417	0.29
307.869	0.29
308.322	0.28
308.774	0.29
309.227	0.29
309.679	0.3
310.131	0.29
310.584	0.29
311.036	0.32
311.488	0.33
311.94	0.3
312.392	0.32
312.844	0.33
313.296	0.31
313.748	0.32
314.2	0.33
314.652	0.34
315.103	0.34
315.555	0.34
316.007	0.35
316.458	0.36
316.91	0.37
317.361	0.35
317.813	0.37
318.264	0.38
318.716	0.39
319.167	0.38
319.618	0.37
320.07	0.38
320.521	0.4
320.972	0.39
321.423	0.4
321.874	0.4
322.325	0.41
322.776	0.41
323.227	0.42
323.678	0.42
324.128	0.43
324.579	0.44
325.03	0.44
325.48	0.45
325.931	0.45
326.382	0.47
326.832	0.47
327.283	0.49
327.733	0.49
328.183	0.5
328.634	0.51
329.084	0.52
329.534	0.53
329.984	0.54
330.434	0.56
330.884	0.56
331.334	0.59
331.784	0.59
332.234	0.59
332.684	0.61
333.134	0.63
333.584	0.63
334.034	0.64
334.483	0.65
334.933	0.67
335.382	0.67
335.832	0.69
336.281	0.7
336.731	0.71
337.18	0.73
337.63	0.74
338.079	0.74
338.528	0.76
338.977	0.79
339.426	0.78
339.876	0.8
340.325	0.82
340.774	0.82
341.223	0.83
341.671	0.86
342.12	0.88
342.569	0.88
343.018	0.89
343.467	0.91
343.915	0.93
344.364	0.94
344.812	0.96
345.261	0.95
345.709	0.98
346.158	0.99
346.606	1
347.054	1.01
347.503	1.02
347.951	1.04
348.399	1.06
348.847	1.07
349.295	1.08
349.743	1.09
350.191	1.1
350.639	1.11
351.087	1.15
351.535	1.17
351.983	1.18
352.43	1.18
352.878	1.2
353.326	1.21
353.773	1.24
354.221	1.25
354.668	1.26
355.116	1.28
355.563	1.29
356.01	1.31
356.458	1.32
356.905	1.33
357.352	1.36
357.799	1.35
358.246	1.38
358.693	1.39
359.14	1.41
359.587	1.4
360.034	1.44
360.481	1.43
360.928	1.45
361.375	1.44
361.821	1.45
362.268	1.47
362.714	1.46
363.161	1.5
363.608	1.5
364.054	1.52
364.5	1.52
364.947	1.52
365.393	1.53
365.839	1.54
366.285	1.53
366.732	1.55
367.178	1.54
367.624	1.54
368.07	1.54
368.516	1.52
368.962	1.52
369.408	1.52
369.853	1.51
370.299	1.5
370.745	1.5
371.19	1.48
371.636	1.46
372.082	1.46
372.527	1.46
372.973	1.43
373.418	1.42
373.863	1.4
374.309	1.4
374.754	1.38
375.199	1.38
375.644	1.37
376.09	1.35
376.535	1.37
376.98	1.36
377.425	1.35
377.87	1.35
378.314	1.36
378.759	1.35
379.204	1.35
379.649	1.35
380.093	1.35
380.538	1.35
380.983	1.37
381.427	1.37
381.872	1.38
382.316	1.38
382.76	1.38
383.205	1.4
383.649	1.4
384.093	1.4
384.537	1.4
384.982	1.39
385.426	1.39
385.87	1.37
386.314	1.36
386.758	1.34
387.201	1.34
387.645	1.31
388.089	1.32
388.533	1.29
388.976	1.31
389.42	1.3
389.864	1.3
390.307	1.31
390.751	1.33
391.194	1.35
391.638	1.36
392.081	1.39
392.524	1.39
392.967	1.41
393.411	1.45
393.854	1.43
394.297	1.44
394.74	1.46
395.183	1.45
395.626	1.44
396.069	1.42
396.512	1.43
396.954	1.39
397.397	1.39
397.84	1.35
398.282	1.33
398.725	1.29
399.168	1.25
399.61	1.2
400.052	1.16
400.495	1.09
400.937	1.04
401.38	0.98
401.822	0.92
402.264	0.86
402.706	0.81
403.148	0.75
403.59	0.7
404.032	0.66
404.474	0.62
404.916	0.58
405.358	0.55
405.8	0.52
406.241	0.49
406.683	0.45
407.125	0.45
407.566	0.42
408.008	0.4
408.449	0.38
408.891	0.36
409.332	0.35
409.774	0.33
410.215	0.32
410.656	0.32
411.097	0.3
411.539	0.29
411.98	0.29
412.421	0.27
412.862	0.27
413.303	0.26
413.744	0.25
414.184	0.27
414.625	0.25
415.066	0.25
415.507	0.24
415.947	0.24
416.388	0.23
416.828	0.23
417.269	0.23
417.709	0.22
418.15	0.22
418.59	0.23
419.03	0.23
419.471	0.22
419.911	0.2
420.351	0.22
420.791	0.2
421.231	0.22
421.671	0.22
422.111	0.21
422.551	0.21
422.991	0.21
423.431	0.2
423.87	0.22
424.31	0.21
424.75	0.2
425.189	0.22
425.629	0.21
426.068	0.21
426.508	0.2
426.947	0.19
427.386	0.2
427.826	0.19
428.265	0.21
428.704	0.21
429.143	0.2
429.582	0.22
430.021	0.21
430.46	0.22
430.899	0.22
431.338	0.22
431.777	0.22
432.216	0.23
432.655	0.24
433.093	0.2
433.532	0.21
433.971	0.2
434.409	0.22
434.848	0.22
435.286	0.21
435.724	0.23
436.163	0.23
436.601	0.23
437.039	0.22
437.477	0.23
437.916	0.21
438.354	0.23
438.792	0.23
439.23	0.23
439.668	0.22
440.105	0.2
440.543	0.23
440.981	0.21
441.419	0.22
441.856	0.22
442.294	0.22
442.732	0.22
443.169	0.23
443.607	0.24
444.044	0.24
444.481	0.24
444.919	0.22
445.356	0.25
445.793	0.25
446.23	0.25
446.668	0.23
447.105	0.23
447.542	0.24
447.979	0.24
448.416	0.25
448.852	0.23
449.289	0.24
449.726	0.24
450.163	0.25
450.599	0.26
451.036	0.25
451.473	0.28
451.909	0.25
452.346	0.25
452.782	0.25
453.218	0.25
453.655	0.25
454.091	0.24
454.527	0.27
454.963	0.27
455.399	0.26
455.835	0.26
456.271	0.27
456.707	0.26
457.143	0.24
457.579	0.28
458.015	0.26
458.451	0.26
458.886	0.26
459.322	0.26
459.758	0.26
460.193	0.26
460.629	0.27
461.064	0.27
461.5	0.27
461.935	0.26
462.37	0.28
462.805	0.27
463.241	0.28
463.676	0.3
464.111	0.29
464.546	0.29
464.981	0.28
465.416	0.28
465.851	0.3
466.286	0.28
466.72	0.29
467.155	0.29
467.59	0.3
468.024	0.29
468.459	0.31
468.893	0.3
469.328	0.31
469.762	0.31
470.197	0.32
470.631	0.33
471.065	0.33
471.5	0.31
471.934	0.32
472.368	0.33
472.802	0.33
473.236	0.34
473.67	0.33
474.104	0.34
474.538	0.34
474.972	0.34
475.405	0.35
475.839	0.37
476.273	0.36
476.706	0.36
477.14	0.36
477.573	0.37
478.007	0.38
478.44	0.38
478.874	0.39
479.307	0.39
479.74	0.39
480.173	0.4
480.606	0.39
481.04	0.4
481.473	0.4
481.906	0.41
482.339	0.41
482.771	0.41
483.204	0.41
483.637	0.42
484.07	0.42
484.502	0.43
484.935	0.43
485.368	0.44
485.8	0.44
486.233	0.44
486.665	0.44
487.098	0.45
487.53	0.46
487.962	0.46
488.394	0.46
488.827	0.47
489.259	0.46
489.691	0.48
490.123	0.48
490.555	0.48
490.987	0.48
491.418	0.49
491.85	0.49
492.282	0.49
492.714	0.5
493.145	0.5
493.577	0.51
494.009	0.51
494.44	0.51
494.872	0.52
495.303	0.52
495.734	0.52
496.166	0.53
496.597	0.54
497.028	0.54
497.459	0.54
497.89	0.55
498.321	0.55
498.752	0.55
499.183	0.56
499.614	0.56
500.045	0.56
500.476	0.56
500.906	0.58
501.337	0.57
501.768	0.58
502.198	0.58
502.629	0.59
503.059	0.59
503.49	0.6
503.92	0.6
504.35	0.6
504.781	0.6
505.211	0.61
505.641	0.61
506.071	0.62
506.501	0.62
506.931	0.63
507.361	0.63
507.791	0.63
508.221	0.64
508.651	0.64
509.081	0.64
509.51	0.65
509.94	0.65
510.37	0.66
510.799	0.66
511.229	0.66
511.658	0.66
512.087	0.67
512.517	0.67
512.946	0.68
513.375	0.67
513.804	0.68
514.234	0.67
514.663	0.68
515.092	0.69
515.521	0.69
515.95	0.69
516.378	0.7
516.807	0.7
517.236	0.7
517.665	0.71
518.093	0.7
518.522	0.71
518.951	0.71
519.379	0.72
519.807	0.72
520.236	0.72
520.664	0.72
521.093	0.72
521.521	0.73
521.949	0.73
522.377	0.74
522.805	0.74
523.233	0.73
523.661	0.74
524.089	0.74
524.517	0.74
524.945	0.74
525.373	0.75
525.8	0.75
526.228	0.75
526.656	0.76
527.083	0.76
527.511	0.76
527.938	0.76
528.366	0.77
528.793	0.77
529.22	0.77
529.648	0.77
530.075	0.77
530.502	0.77
530.929	0.77
531.356	0.78
531.783	0.78
532.21	0.78
532.637	0.79
533.064	0.79
533.49	0.79
533.917	0.79
534.344	0.79
534.771	0.8
535.197	0.8
535.624	0.8
536.05	0.81
536.477	0.8
536.903	0.81
537.329	0.81
537.755	0.82
538.182	0.81
538.608	0.82
539.034	0.82
539.46	0.83
539.886	0.83
540.312	0.83
540.738	0.82
541.164	0.83
541.589	0.83
542.015	0.83
542.441	0.83
542.867	0.84
543.292	0.84
543.718	0.84
544.143	0.85
544.569	0.85
544.994	0.84
545.419	0.85
545.845	0.85
546.27	0.85
546.695	0.85
547.12	0.86
547.545	0.86
547.97	0.85
548.395	0.86
548.82	0.86
549.245	0.86
549.67	0.86
550.094	0.86
550.519	0.86
550.944	0.86
551.368	0.86
551.793	0.86
552.217	0.86
552.642	0.86
553.066	0.87
553.49	0.86
553.915	0.86
554.339	0.86
554.763	0.86
555.187	0.86
555.611	0.87
556.035	0.87
556.459	0.86
556.883	0.86
557.307	0.86
557.731	0.86
558.154	0.86
558.578	0.87
559.002	0.86
559.425	0.86
559.849	0.86
560.272	0.87
560.696	0.86
561.119	0.85
561.543	0.86
561.966	0.86
562.389	0.87
562.812	0.86
563.235	0.86
563.658	0.86
564.081	0.85
564.504	0.85
564.927	0.85
565.35	0.85
565.773	0.85
566.196	0.85
566.618	0.85
567.041	0.85
567.463	0.85
567.886	0.85
568.309	0.85
568.731	0.85
569.153	0.85
569.576	0.84
569.998	0.84
570.42	0.84
570.842	0.84
571.264	0.84
571.686	0.84
572.108	0.84
572.53	0.84
572.952	0.84
573.374	0.84
573.796	0.84
574.218	0.84
574.639	0.84
575.061	0.83
575.483	0.83
575.904	0.83
576.326	0.82
576.747	0.83
577.168	0.83
577.59	0.82
578.011	0.82
578.432	0.83
578.853	0.82
579.274	0.82
579.695	0.82
580.116	0.82
580.537	0.82
580.958	0.82
581.379	0.81
581.8	0.82
582.221	0.82
582.641	0.82
583.062	0.82
583.482	0.82
583.903	0.82
584.323	0.82
584.744	0.82
585.164	0.82
585.584	0.82
586.005	0.82
586.425	0.82
586.845	0.82
587.265	0.82
587.685	0.82
588.105	0.83
588.525	0.82
588.945	0.82
589.365	0.82
589.785	0.83
590.204	0.83
590.624	0.83
591.044	0.83
591.463	0.83
591.883	0.84
592.302	0.84
592.721	0.84
593.141	0.84
593.56	0.84
593.979	0.84
594.399	0.84
594.818	0.84
595.237	0.84
595.656	0.84
596.075	0.84
596.494	0.84
596.913	0.85
597.331	0.85
597.75	0.85
598.169	0.85
598.587	0.85
599.006	0.85
599.425	0.85
599.843	0.85
600.262	0.85
600.68	0.85
601.098	0.85
601.517	0.84
601.935	0.85
602.353	0.84
602.771	0.84
603.189	0.84
603.607	0.83
604.025	0.83
604.443	0.83
604.861	0.83
605.279	0.83
605.696	0.83
606.114	0.82
606.532	0.82
606.949	0.81
607.367	0.81
607.784	0.81
608.202	0.81
608.619	0.81
609.036	0.8
609.454	0.8
609.871	0.79
610.288	0.79
610.705	0.79
611.122	0.79
611.539	0.79
611.956	0.78
612.373	0.78
612.79	0.78
613.207	0.78
613.623	0.77
614.04	0.76
614.457	0.76
614.873	0.76
615.29	0.75
615.706	0.75
616.122	0.75
616.539	0.74
616.955	0.74
617.371	0.74
617.788	0.73
618.204	0.73
618.62	0.73
619.036	0.73
619.452	0.72
619.868	0.72
620.284	0.72
620.699	0.71
621.115	0.71
621.531	0.71
621.946	0.7
622.362	0.69
622.778	0.69
623.193	0.69
623.608	0.69
624.024	0.68
624.439	0.68
624.854	0.67
625.27	0.67
625.685	0.67
626.1	0.66
626.515	0.66
626.93	0.65
627.345	0.65
627.76	0.64
628.175	0.64
628.589	0.63
629.004	0.63
629.419	0.62
629.833	0.62
630.248	0.61
630.663	0.61
631.077	0.6
631.491	0.6
631.906	0.59
632.32	0.59
632.734	0.58
633.148	0.58
633.563	0.57
633.977	0.57
634.391	0.56
634.805	0.55
635.219	0.55
635.632	0.55
636.046	0.54
636.46	0.54
636.874	0.53
637.287	0.52
637.701	0.52
638.115	0.52
638.528	0.51
638.941	0.51
639.355	0.5
639.768	0.5
640.181	0.49
640.595	0.49
641.008	0.49
641.421	0.48
641.834	0.48
642.247	0.47
642.66	0.47
643.073	0.47
643.486	0.47
643.898	0.46
644.311	0.45
644.724	0.46
645.136	0.45
645.549	0.45
645.961	0.45
646.374	0.45
646.786	0.44
647.199	0.44
647.611	0.44
648.023	0.44
648.435	0.44
648.847	0.44
649.26	0.43
649.672	0.43
650.084	0.43
650.495	0.43
650.907	0.43
651.319	0.43
651.731	0.42
652.143	0.42
652.554	0.42
652.966	0.42
653.377	0.41
653.789	0.41
654.2	0.41
654.612	0.42
655.023	0.42
655.434	0.39
655.845	0.37
656.256	0.4
656.668	0.42
657.079	0.41
657.49	0.41
657.901	0.41
658.311	0.41
658.722	0.41
659.133	0.4
659.544	0.4
659.954	0.4
660.365	0.4
660.775	0.4
661.186	0.4
661.596	0.4
662.007	0.4
662.417	0.39
662.827	0.39
663.238	0.39
663.648	0.39
664.058	0.39
664.468	0.39
664.878	0.39
665.288	0.38
665.698	0.38
666.108	0.38
666.517	0.38
666.927	0.37
667.337	0.37
667.746	0.37
668.156	0.37
668.565	0.37
668.975	0.37
669.384	0.37
669.794	0.36
670.203	0.36
670.612	0.36
671.021	0.35
671.43	0.35
671.84	0.35
672.249	0.35
672.658	0.35
673.066	0.34
673.475	0.34
673.884	0.34
674.293	0.33
674.702	0.33
675.11	0.33
675.519	0.32
675.927	0.32
676.336	0.32
676.744	0.32
677.152	0.31
677.561	0.31
677.969	0.31
678.377	0.31
678.785	0.3
679.193	0.3
679.601	0.3
680.009	0.29
680.417	0.29
680.825	0.29
681.233	0.28
681.641	0.28
682.048	0.28
682.456	0.28
682.864	0.27
683.271	0.27
683.679	0.27
684.086	0.27
684.493	0.26
684.901	0.26
685.308	0.25
685.715	0.25
686.122	0.25
686.529	0.24
686.936	0.24
687.343	0.24
687.75	0.24
688.157	0.24
688.564	0.23
688.971	0.23
689.378	0.23
689.784	0.23
690.191	0.22
690.597	0.22
691.004	0.22
691.41	0.21
691.817	0.21
692.223	0.21
692.629	0.21
693.035	0.21
693.442	0.2
693.848	0.2
694.254	0.2
694.66	0.2
695.066	0.2
695.471	0.19
695.877	0.19
696.283	0.19
696.689	0.19
697.094	0.18
697.5	0.18
697.906	0.19
698.311	0.18
698.716	0.18
699.122	0.18
699.527	0.18
699.932	0.17
700.338	0.17
700.743	0.17
701.148	0.17
701.553	0.17
701.958	0.17
702.363	0.17
702.768	0.17
703.173	0.17
703.577	0.17
703.982	0.16
704.387	0.16
704.791	0.16
705.196	0.16
705.6	0.16
706.005	0.16
706.409	0.16
706.814	0.16
707.218	0.16
707.622	0.16
708.026	0.16
708.43	0.16
708.834	0.16
709.238	0.16
709.642	0.16
710.046	0.16
710.45	0.16
710.854	0.16
711.257	0.16
711.661	0.16
712.065	0.16
712.468	0.16
712.872	0.16
713.275	0.16
713.679	0.16
714.082	0.16
714.485	0.16
714.888	0.16
715.291	0.16
715.695	0.16
716.098	0.16
716.501	0.16
716.904	0.16
717.306	0.16
717.709	0.16
718.112	0.17
718.515	0.16
718.917	0.17
719.32	0.17
719.723	0.17
720.125	0.17
720.527	0.17
720.93	0.17
721.332	0.17
721.734	0.17
722.137	0.17
722.539	0.17
722.941	0.17
723.343	0.17
723.745	0.17
724.147	0.17
724.549	0.17
724.95	0.18
725.352	0.18
725.754	0.17
726.156	0.18
726.557	0.18
726.959	0.18
727.36	0.18
727.762	0.18
728.163	0.18
728.564	0.18
728.966	0.18
729.367	0.18
729.768	0.18
730.169	0.18
730.57	0.18
730.971	0.18
731.372	0.18
731.773	0.18
732.174	0.18
732.574	0.18
732.975	0.18
733.376	0.18
733.776	0.18
734.177	0.18
734.577	0.18
734.978	0.18
735.378	0.18
735.778	0.18
736.179	0.18
736.579	0.18
736.979	0.18
737.379	0.18
737.779	0.18
738.179	0.18
738.579	0.17
738.979	0.17
739.379	0.17
739.778	0.17
740.178	0.17
740.578	0.17
740.977	0.17
741.377	0.17
741.776	0.17
742.176	0.17
742.575	0.17
742.974	0.17
743.374	0.17
743.773	0.16
744.172	0.16
744.571	0.16
744.97	0.16
745.369	0.16
745.768	0.16
746.167	0.16
746.565	0.16
746.964	0.16
747.363	0.16
747.761	0.16
748.16	0.16
748.559	0.16
748.957	0.15
749.355	0.15
749.754	0.15
750.152	0.15
750.55	0.15
750.948	0.15
751.347	0.15
751.745	0.15
752.143	0.15
752.541	0.15
752.938	0.15
753.336	0.15
753.734	0.14
754.132	0.14
754.529	0.14
754.927	0.14
755.325	0.14
755.722	0.14
756.119	0.14
756.517	0.14
756.914	0.14
757.311	0.14
757.709	0.14
758.106	0.14
758.503	0.14
758.9	0.14
759.297	0.14
759.694	0.13
760.091	0.14
760.488	0.13
760.884	0.13
761.281	0.13
761.678	0.13
762.074	0.13
762.471	0.13
762.867	0.13
763.264	0.13
763.66	0.13
764.056	0.13
764.453	0.13
764.849	0.13
765.245	0.13
765.641	0.13
766.037	0.13
766.433	0.13
766.829	0.13
767.225	0.13
767.621	0.13
768.016	0.13
768.412	0.13
768.808	0.13
769.203	0.13
769.599	0.13
769.994	0.13
770.389	0.13
770.785	0.13
771.18	0.13
771.575	0.13
771.971	0.14
772.366	0.13
772.761	0.13
773.156	0.14
773.551	0.14
773.945	0.14
774.34	0.13
774.735	0.14
775.13	0.14
775.524	0.14
775.919	0.14
776.314	0.14
776.708	0.14
777.103	0.14
777.497	0.14
777.891	0.14
778.285	0.14
778.68	0.14
779.074	0.14
779.468	0.14
779.862	0.14
780.256	0.14
780.65	0.14
781.044	0.14
781.438	0.14
781.831	0.14
782.225	0.15
782.619	0.14
783.012	0.14
783.406	0.14
783.799	0.14
784.193	0.15
784.586	0.15
784.979	0.15
785.372	0.15
785.766	0.15
786.159	0.15
786.552	0.15
786.945	0.15
787.338	0.15
787.731	0.15
788.123	0.15
788.516	0.15
788.909	0.15
789.302	0.16
789.694	0.15
790.087	0.16
790.479	0.16
790.872	0.16
791.264	0.16
791.656	0.16
792.049	0.16
792.441	0.16
792.833	0.16
793.225	0.16
793.617	0.16
794.009	0.16
794.401	0.16
794.793	0.16
795.185	0.16
795.576	0.16
795.968	0.16
796.36	0.16
796.751	0.17
797.143	0.17
797.534	0.17
797.926	0.17
798.317	0.17
798.708	0.17
799.1	0.17
799.491	0.17
799.882	0.17
800.273	0.17
800.664	0.17
801.055	0.17
801.446	0.17
801.837	0.17
802.227	0.18
802.618	0.18
803.009	0.17
803.399	0.18
803.79	0.18
804.18	0.18
804.571	0.18
804.961	0.18
805.351	0.18
805.742	0.18
806.132	0.18
806.522	0.18
806.912	0.18
807.302	0.18
807.692	0.18
808.082	0.18
808.472	0.19
808.862	0.19
809.251	0.18
809.641	0.18
810.031	0.19
810.42	0.19
810.81	0.19
811.199	0.19
811.589	0.19
811.978	0.19
812.367	0.19
812.756	0.19
813.146	0.19
813.535	0.19
813.924	0.19
814.313	0.19
814.702	0.19
815.091	0.19
815.479	0.2
815.868	0.2
816.257	0.2
816.645	0.2
817.034	0.2
817.423	0.2
817.811	0.19
818.199	0.2
818.588	0.2
818.976	0.2
819.364	0.2
819.753	0.2
820.141	0.2
820.529	0.2
820.917	0.2
821.305	0.2
821.693	0.2
822.08	0.2
822.468	0.2
822.856	0.2
823.244	0.2
823.631	0.2
824.019	0.21
824.406	0.2
824.794	0.21
825.181	0.21
825.568	0.21
825.956	0.21
826.343	0.21
826.73	0.21
827.117	0.21
827.504	0.21
827.891	0.21
828.278	0.21
828.665	0.21
829.052	0.21
829.438	0.21
829.825	0.21
830.212	0.21
830.598	0.21
830.985	0.21
831.371	0.22
831.757	0.22
832.144	0.22
832.53	0.22
832.916	0.21
833.302	0.22
833.688	0.22
834.075	0.22
834.461	0.22
834.846	0.22
835.232	0.22
835.618	0.22
836.004	0.22
836.39	0.22
836.775	0.22
837.161	0.22
837.546	0.22
837.932	0.22
838.317	0.22
838.702	0.22
839.088	0.22
839.473	0.22
839.858	0.23
840.243	0.22
840.628	0.22
841.013	0.22
841.398	0.22
841.783	0.23
842.168	0.22
842.553	0.23
842.937	0.22
843.322	0.22
843.707	0.23
844.091	0.23
844.476	0.23
844.86	0.23
845.244	0.23
845.629	0.23
846.013	0.23
846.397	0.23
846.781	0.23
847.165	0.23
847.549	0.23
847.933	0.23
848.317	0.23
848.701	0.23
849.085	0.23
849.468	0.23
849.852	0.23
850.236	0.23
850.619	0.23
851.003	0.23
851.386	0.23
851.769	0.23
852.153	0.23
852.536	0.23
852.919	0.23
853.302	0.23
853.685	0.23
854.068	0.23
854.451	0.23
854.834	0.23
855.217	0.23
855.6	0.24
855.982	0.23
856.365	0.24
856.748	0.23
857.13	0.23
857.513	0.23
857.895	0.23
858.277	0.23
858.66	0.23
859.042	0.23
859.424	0.23
859.806	0.23
860.188	0.23
860.57	0.24
860.952	0.24
861.334	0.24
861.716	0.23
862.098	0.23
862.48	0.23
862.861	0.23
863.243	0.23
863.624	0.23
864.006	0.23
864.387	0.23
864.769	0.24
865.15	0.23
865.531	0.24
865.912	0.24
866.294	0.23
866.675	0.24
867.056	0.24
867.437	0.23
867.818	0.24
868.198	0.24
868.579	0.24
868.96	0.24
869.341	0.24
869.721	0.24
870.102	0.23
870.482	0.24
870.863	0.23
871.243	0.24
871.623	0.24
872.003	0.24
872.384	0.23
872.764	0.23
873.144	0.23
873.524	0.24
873.904	0.24
874.284	0.24
874.664	0.24
875.043	0.24
875.423	0.24
875.803	0.23
876.182	0.24
876.562	0.24
876.941	0.23
877.321	0.23
877.7	0.24
878.079	0.24
878.459	0.24
878.838	0.24
879.217	0.24
879.596	0.24
879.975	0.23
880.354	0.23
880.733	0.23
881.112	0.23
881.491	0.24
881.869	0.23
882.248	0.23
882.627	0.23
883.005	0.23
883.384	0.23
883.762	0.24
884.14	0.23
884.519	0.24
884.897	0.23
885.275	0.23
885.653	0.23
886.031	0.23
886.409	0.24
886.787	0.23
887.165	0.23
887.543	0.23
887.921	0.23
888.298	0.23
888.676	0.23
889.054	0.23
889.431	0.23
889.809	0.23
890.186	0.23
890.563	0.23
890.941	0.23
891.318	0.23
891.695	0.23
892.072	0.23
892.449	0.23
892.826	0.23
893.203	0.23
893.58	0.23
893.957	0.23
894.334	0.23
894.71	0.23
895.087	0.23
895.464	0.23
895.84	0.23
896.217	0.23
896.593	0.23
896.969	0.23
897.346	0.22
897.722	0.23
898.098	0.23
898.474	0.23
898.85	0.23
899.226	0.23
899.602	0.23
899.978	0.23
900.354	0.22
900.73	0.22
901.105	0.22
901.481	0.23
901.857	0.22
902.232	0.22
902.608	0.22
902.983	0.22
903.358	0.22
903.734	0.22
904.109	0.22
904.484	0.22
904.859	0.22
905.234	0.22
905.609	0.22
905.984	0.22
906.359	0.22
906.734	0.22
907.108	0.22
907.483	0.22
907.858	0.22
908.232	0.22
908.607	0.22
908.981	0.22
909.356	0.22
909.73	0.22
910.104	0.22
910.478	0.22
910.853	0.22
911.227	0.22
911.601	0.22
911.975	0.22
912.349	0.22
912.722	0.21
913.096	0.22
913.47	0.22
913.844	0.22
914.217	0.21
914.591	0.21
914.964	0.22
915.338	0.22
915.711	0.21
916.084	0.21
916.458	0.21
916.831	0.22
917.204	0.21
917.577	0.21
917.95	0.21
918.323	0.21
918.696	0.21
919.069	0.21
919.441	0.21
919.814	0.21
920.187	0.21
920.559	0.21
920.932	0.21
921.304	0.21
921.677	0.21
922.049	0.21
922.421	0.21
922.794	0.21
923.166	0.21
923.538	0.21
923.91	0.21
924.282	0.2
924.654	0.21
925.026	0.21
925.398	0.21
925.769	0.21
926.141	0.21
926.513	0.21
926.884	0.2
927.256	0.2
927.627	0.21
927.999	0.2
928.37	0.2
928.741	0.2
929.113	0.2
929.484	0.2
929.855	0.2
930.226	0.2
930.597	0.2
930.968	0.2
931.339	0.2
931.709	0.2
932.08	0.2
932.451	0.2
932.821	0.2
933.192	0.2
933.562	0.2
933.933	0.2
934.303	0.2
934.673	0.2
935.044	0.19
935.414	0.19
935.784	0.19
936.154	0.2
936.524	0.2
936.894	0.19
937.264	0.19
937.634	0.2
938.004	0.19
938.373	0.19
938.743	0.19
939.113	0.19
939.482	0.19
939.852	0.19
940.221	0.19
940.59	0.19
940.96	0.19
941.329	0.19
941.698	0.19
942.067	0.19
942.436	0.19
942.805	0.19
943.174	0.19
943.543	0.19
943.912	0.19
944.28	0.19
944.649	0.19
945.018	0.19
945.386	0.19
945.755	0.19
946.123	0.19
946.492	0.19
946.86	0.19
947.228	0.19
947.596	0.19
947.965	0.19
948.333	0.19
948.701	0.19
949.069	0.18
949.437	0.19
949.804	0.19
950.172	0.18
950.54	0.18
950.908	0.18
951.275	0.18
951.643	0.18
952.01	0.18
952.378	0.18
952.745	0.18
953.112	0.18
953.479	0.18
953.847	0.18
954.214	0.18
954.581	0.18
954.948	0.18
955.315	0.18
955.682	0.18
956.048	0.18
956.415	0.18
956.782	0.18
957.148	0.17
957.515	0.17
957.881	0.18
958.248	0.17
958.614	0.18
958.981	0.18
959.347	0.17
959.713	0.17
960.079	0.17
960.445	0.17
960.811	0.17
961.177	0.17
961.543	0.17
961.909	0.17
962.275	0.17
962.641	0.17
963.006	0.17
963.372	0.17
963.737	0.17
964.103	0.17
964.468	0.17
964.834	0.17
965.199	0.16
965.564	0.16
965.929	0.17
966.294	0.17
966.659	0.17
967.024	0.17
967.389	0.17
967.754	0.17
968.119	0.17
968.484	0.17
968.848	0.16
969.213	0.16
969.578	0.16
969.942	0.16
970.307	0.16
970.671	0.16
971.035	0.16
971.399	0.16
971.764	0.16
972.128	0.16
972.492	0.16
972.856	0.16
973.22	0.16
973.584	0.16
973.948	0.16
974.311	0.16
974.675	0.16
975.039	0.16
975.402	0.15
975.766	0.16
976.129	0.16
976.493	0.16
976.856	0.16
977.219	0.16
977.582	0.16
977.946	0.15
978.309	0.15
978.672	0.15
979.035	0.15
979.398	0.15
979.761	0.15
980.123	0.15
980.486	0.15
980.849	0.15
981.211	0.15
981.574	0.15
981.936	0.15
982.299	0.15
982.661	0.15
983.023	0.15
983.386	0.15
983.748	0.15
984.11	0.15
984.472	0.15
984.834	0.15
985.196	0.15
985.558	0.15
985.92	0.14
986.281	0.15
986.643	0.15
987.005	0.15
987.366	0.14
987.728	0.15
988.089	0.14
988.451	0.15
988.812	0.15
989.173	0.15
989.534	0.15
989.895	0.14
990.257	0.15
990.618	0.14
990.979	0.14
991.339	0.14
991.7	0.14
992.061	0.14
992.422	0.14
992.782	0.14
993.143	0.14
993.503	0.14
993.864	0.14
994.224	0.14
994.585	0.14
994.945	0.14
995.305	0.14
995.665	0.14
996.025	0.14
996.385	0.14
996.745	0.14
997.105	0.14
997.465	0.14
997.825	0.13
998.185	0.14
998.544	0.14
998.904	0.14
999.263	0.14
999.623	0.14
999.982	0.14
1000.342	0.13
1000.701	0.14
1001.06	0.14
1001.419	0.13
1001.778	0.14
1002.138	0.14
1002.497	0.13
1002.855	0.13
1003.214	0.13
1003.573	0.13
1003.932	0.13
1004.29	0.13
1004.649	0.13
1005.008	0.14
1005.366	0.14
1005.725	0.14
1006.083	0.13
1006.441	0.13
1006.799	0.13
1007.158	0.13
1007.516	0.13
1007.874	0.13
1008.232	0.13
1008.59	0.13
1008.948	0.13
1009.305	0.13
1009.663	0.13
1010.021	0.13
1010.379	0.13
1010.736	0.13
1011.094	0.13
1011.451	0.13
1011.808	0.13
1012.166	0.13
1012.523	0.12
1012.88	0.13
1013.237	0.13
1013.594	0.12
1013.951	0.12
1014.308	0.13
1014.665	0.12
1015.022	0.12
1015.379	0.13
1015.735	0.12
1016.092	0.12
1016.449	0.13
1016.805	0.12
1017.162	0.12
1017.518	0.12
1017.874	0.13
1018.231	0.12
1018.587	0.12
1018.943	0.13
1019.299	0.12
1019.655	0.12
1020.011	0.12
1020.367	0.12
1020.723	0.12
1021.078	0.12
1021.434	0.12
1021.79	0.12
1022.145	0.12
1022.501	0.12
1022.856	0.12
1023.212	0.12
1023.567	0.12
1023.922	0.12
1024.278	0.12
1024.633	0.12
1024.988	0.12
1025.343	0.12
1025.698	0.12
1026.053	0.12
1026.408	0.12
1026.762	0.12
1027.117	0.12
1027.472	0.12
1027.826	0.12
1028.181	0.12
1028.535	0.12
1028.89	0.12
1029.244	0.12
1029.598	0.12
1029.952	0.11
1030.307	0.12
1030.661	0.12
1031.015	0.12
1031.369	0.12
1031.723	0.12
1032.076	0.12
