Data from Rubpy_EV_EDTA_TU(3000)_Blank_Blue_Flow_Absorbance__4306__12-07-39-585.txt Node

Date: Mon Aug 03 12:07:39 BST 2026
User: fpm-admin
Spectrometer: SR600986
Trigger mode: 0
Integration Time (sec): 8.000000E-3
Scans to average: 3
Nonlinearity correction enabled: true
Boxcar width: 0
Storing dark spectrum: false
XAxis mode: Wavelengths
Number of Pixels in Spectrum: 2048
>>>>>Begin Spectral Data<<<<<
188.613	0.31
189.078	0.31
189.542	0.3
190.007	0.31
190.472	0.28
190.936	0.29
191.401	0.32
191.865	0.31
192.33	0.31
192.794	0.32
193.258	0.31
193.723	0.32
194.187	0.31
194.651	0.3
195.115	0.28
195.579	0.3
196.043	0.3
196.507	0.3
196.971	0.29
197.435	0.3
197.899	0.27
198.363	0.31
198.827	0.33
199.29	0.28
199.754	0.31
200.218	0.29
200.681	0.3
201.145	0.29
201.608	0.29
202.072	0.31
202.535	0.3
202.998	0.3
203.462	0.3
203.925	0.3
204.388	0.31
204.851	0.28
205.314	0.31
205.777	0.29
206.24	0.31
206.703	0.31
207.166	0.3
207.629	0.29
208.092	0.31
208.555	0.29
209.018	0.31
209.48	0.3
209.943	0.3
210.406	0.3
210.868	0.28
211.331	0.31
211.793	0.27
212.256	0.3
212.718	0.3
213.18	0.3
213.643	0.29
214.105	0.3
214.567	0.29
215.029	0.31
215.491	0.28
215.953	0.3
216.415	0.31
216.877	0.31
217.339	0.29
217.801	0.29
218.263	0.31
218.725	0.31
219.186	0.29
219.648	0.29
220.11	0.3
220.571	0.3
221.033	0.3
221.494	0.31
221.956	0.27
222.417	0.29
222.878	0.29
223.34	0.31
223.801	0.28
224.262	0.3
224.723	0.3
225.185	0.29
225.646	0.3
226.107	0.3
226.568	0.31
227.029	0.32
227.489	0.28
227.95	0.3
228.411	0.28
228.872	0.3
229.332	0.28
229.793	0.3
230.254	0.32
230.714	0.31
231.175	0.28
231.635	0.32
232.096	0.28
232.556	0.32
233.016	0.28
233.477	0.3
233.937	0.3
234.397	0.32
234.857	0.3
235.317	0.3
235.777	0.28
236.237	0.29
236.697	0.32
237.157	0.3
237.617	0.31
238.077	0.31
238.537	0.31
238.996	0.29
239.456	0.31
239.916	0.3
240.375	0.32
240.835	0.29
241.294	0.26
241.754	0.3
242.213	0.29
242.672	0.3
243.132	0.29
243.591	0.3
244.05	0.32
244.509	0.3
244.968	0.29
245.427	0.3
245.886	0.29
246.345	0.31
246.804	0.3
247.263	0.29
247.722	0.31
248.181	0.29
248.639	0.3
249.098	0.29
249.557	0.28
250.015	0.33
250.474	0.29
250.932	0.3
251.391	0.31
251.849	0.29
252.308	0.3
252.766	0.3
253.224	0.29
253.682	0.31
254.14	0.31
254.599	0.3
255.057	0.28
255.515	0.31
255.973	0.28
256.431	0.28
256.888	0.3
257.346	0.3
257.804	0.3
258.262	0.29
258.719	0.3
259.177	0.3
259.635	0.3
260.092	0.32
260.55	0.31
261.007	0.32
261.465	0.28
261.922	0.28
262.379	0.28
262.836	0.28
263.294	0.3
263.751	0.31
264.208	0.29
264.665	0.3
265.122	0.3
265.579	0.32
266.036	0.3
266.493	0.31
266.95	0.28
267.406	0.29
267.863	0.3
268.32	0.29
268.777	0.29
269.233	0.32
269.69	0.3
270.146	0.28
270.603	0.31
271.059	0.28
271.515	0.28
271.972	0.32
272.428	0.3
272.884	0.33
273.34	0.29
273.796	0.29
274.253	0.32
274.709	0.3
275.165	0.29
275.62	0.32
276.076	0.32
276.532	0.31
276.988	0.28
277.444	0.3
277.899	0.33
278.355	0.3
278.811	0.3
279.266	0.29
279.722	0.32
280.177	0.31
280.633	0.31
281.088	0.29
281.543	0.3
281.998	0.27
282.454	0.33
282.909	0.32
283.364	0.32
283.819	0.3
284.274	0.28
284.729	0.31
285.184	0.3
285.639	0.28
286.094	0.32
286.548	0.31
287.003	0.31
287.458	0.32
287.913	0.31
288.367	0.29
288.822	0.3
289.276	0.31
289.731	0.3
290.185	0.31
290.639	0.3
291.094	0.3
291.548	0.32
292.002	0.3
292.456	0.31
292.91	0.33
293.365	0.29
293.819	0.31
294.273	0.32
294.726	0.32
295.18	0.31
295.634	0.32
296.088	0.31
296.542	0.33
296.995	0.32
297.449	0.3
297.903	0.33
298.356	0.29
298.81	0.31
299.263	0.31
299.716	0.31
300.17	0.31
300.623	0.3
301.076	0.34
301.53	0.31
301.983	0.3
302.436	0.31
302.889	0.32
303.342	0.33
303.795	0.34
304.248	0.33
304.701	0.3
305.153	0.33
305.606	0.32
306.059	0.33
306.512	0.32
306.964	0.32
307.417	0.31
307.869	0.33
308.322	0.34
308.774	0.33
309.227	0.34
309.679	0.34
310.131	0.35
310.584	0.36
311.036	0.35
311.488	0.38
311.94	0.36
312.392	0.37
312.844	0.38
313.296	0.38
313.748	0.39
314.2	0.39
314.652	0.39
315.103	0.4
315.555	0.41
316.007	0.43
316.458	0.42
316.91	0.43
317.361	0.43
317.813	0.44
318.264	0.44
318.716	0.45
319.167	0.46
319.618	0.45
320.07	0.47
320.521	0.46
320.972	0.48
321.423	0.49
321.874	0.49
322.325	0.49
322.776	0.49
323.227	0.5
323.678	0.51
324.128	0.51
324.579	0.53
325.03	0.53
325.48	0.53
325.931	0.55
326.382	0.55
326.832	0.56
327.283	0.58
327.733	0.58
328.183	0.61
328.634	0.6
329.084	0.64
329.534	0.64
329.984	0.66
330.434	0.66
330.884	0.67
331.334	0.7
331.784	0.72
332.234	0.71
332.684	0.74
333.134	0.74
333.584	0.76
334.034	0.77
334.483	0.78
334.933	0.81
335.382	0.82
335.832	0.82
336.281	0.84
336.731	0.85
337.18	0.88
337.63	0.89
338.079	0.9
338.528	0.91
338.977	0.94
339.426	0.94
339.876	0.97
340.325	0.97
340.774	0.99
341.223	1
341.671	1.03
342.12	1.05
342.569	1.05
343.018	1.07
343.467	1.07
343.915	1.09
344.364	1.12
344.812	1.12
345.261	1.14
345.709	1.15
346.158	1.17
346.606	1.17
347.054	1.2
347.503	1.22
347.951	1.23
348.399	1.26
348.847	1.24
349.295	1.27
349.743	1.27
350.191	1.31
350.639	1.31
351.087	1.31
351.535	1.33
351.983	1.35
352.43	1.36
352.878	1.38
353.326	1.38
353.773	1.4
354.221	1.42
354.668	1.42
355.116	1.44
355.563	1.45
356.01	1.47
356.458	1.46
356.905	1.49
357.352	1.5
357.799	1.52
358.246	1.54
358.693	1.53
359.14	1.57
359.587	1.58
360.034	1.59
360.481	1.57
360.928	1.59
361.375	1.61
361.821	1.61
362.268	1.6
362.714	1.63
363.161	1.65
363.608	1.65
364.054	1.67
364.5	1.66
364.947	1.68
365.393	1.68
365.839	1.68
366.285	1.69
366.732	1.69
367.178	1.69
367.624	1.7
368.07	1.68
368.516	1.69
368.962	1.68
369.408	1.66
369.853	1.68
370.299	1.67
370.745	1.65
371.19	1.64
371.636	1.64
372.082	1.62
372.527	1.61
372.973	1.6
373.418	1.6
373.863	1.58
374.309	1.58
374.754	1.57
375.199	1.56
375.644	1.56
376.09	1.55
376.535	1.52
376.98	1.54
377.425	1.52
377.87	1.52
378.314	1.53
378.759	1.53
379.204	1.53
379.649	1.52
380.093	1.52
380.538	1.53
380.983	1.51
381.427	1.53
381.872	1.54
382.316	1.54
382.76	1.55
383.205	1.55
383.649	1.54
384.093	1.55
384.537	1.53
384.982	1.53
385.426	1.53
385.87	1.51
386.314	1.51
386.758	1.49
387.201	1.48
387.645	1.47
388.089	1.48
388.533	1.45
388.976	1.45
389.42	1.45
389.864	1.44
390.307	1.43
390.751	1.45
391.194	1.46
391.638	1.48
392.081	1.49
392.524	1.53
392.967	1.51
393.411	1.52
393.854	1.54
394.297	1.52
394.74	1.53
395.183	1.52
395.626	1.52
396.069	1.52
396.512	1.5
396.954	1.5
397.397	1.49
397.84	1.45
398.282	1.42
398.725	1.4
399.168	1.36
399.61	1.32
400.052	1.25
400.495	1.19
400.937	1.15
401.38	1.08
401.822	1.02
402.264	0.96
402.706	0.9
403.148	0.84
403.59	0.8
404.032	0.75
404.474	0.71
404.916	0.67
405.358	0.63
405.8	0.59
406.241	0.57
406.683	0.52
407.125	0.5
407.566	0.48
408.008	0.46
408.449	0.44
408.891	0.42
409.332	0.41
409.774	0.38
410.215	0.37
410.656	0.36
411.097	0.36
411.539	0.33
411.98	0.33
412.421	0.32
412.862	0.3
413.303	0.3
413.744	0.3
414.184	0.3
414.625	0.28
415.066	0.29
415.507	0.28
415.947	0.28
416.388	0.27
416.828	0.27
417.269	0.26
417.709	0.26
418.15	0.26
418.59	0.27
419.03	0.26
419.471	0.26
419.911	0.25
420.351	0.26
420.791	0.24
421.231	0.24
421.671	0.25
422.111	0.26
422.551	0.25
422.991	0.24
423.431	0.24
423.87	0.26
424.31	0.25
424.75	0.24
425.189	0.24
425.629	0.26
426.068	0.25
426.508	0.24
426.947	0.24
427.386	0.24
427.826	0.22
428.265	0.24
428.704	0.25
429.143	0.24
429.582	0.25
430.021	0.24
430.46	0.24
430.899	0.25
431.338	0.26
431.777	0.25
432.216	0.26
432.655	0.27
433.093	0.24
433.532	0.25
433.971	0.24
434.409	0.27
434.848	0.26
435.286	0.26
435.724	0.26
436.163	0.26
436.601	0.26
437.039	0.27
437.477	0.26
437.916	0.27
438.354	0.27
438.792	0.27
439.23	0.26
439.668	0.26
440.105	0.23
440.543	0.29
440.981	0.27
441.419	0.26
441.856	0.26
442.294	0.26
442.732	0.26
443.169	0.28
443.607	0.28
444.044	0.28
444.481	0.28
444.919	0.28
445.356	0.29
445.793	0.27
446.23	0.29
446.668	0.28
447.105	0.29
447.542	0.29
447.979	0.28
448.416	0.28
448.852	0.28
449.289	0.29
449.726	0.28
450.163	0.29
450.599	0.3
451.036	0.28
451.473	0.32
451.909	0.28
452.346	0.29
452.782	0.28
453.218	0.32
453.655	0.31
454.091	0.3
454.527	0.33
454.963	0.31
455.399	0.34
455.835	0.3
456.271	0.31
456.707	0.29
457.143	0.31
457.579	0.31
458.015	0.3
458.451	0.31
458.886	0.32
459.322	0.32
459.758	0.33
460.193	0.32
460.629	0.31
461.064	0.32
461.5	0.33
461.935	0.32
462.37	0.32
462.805	0.33
463.241	0.34
463.676	0.34
464.111	0.32
464.546	0.35
464.981	0.34
465.416	0.34
465.851	0.36
466.286	0.35
466.72	0.36
467.155	0.37
467.59	0.36
468.024	0.37
468.459	0.37
468.893	0.37
469.328	0.38
469.762	0.37
470.197	0.38
470.631	0.38
471.065	0.4
471.5	0.39
471.934	0.39
472.368	0.39
472.802	0.41
473.236	0.41
473.67	0.41
474.104	0.41
474.538	0.42
474.972	0.43
475.405	0.43
475.839	0.44
476.273	0.44
476.706	0.44
477.14	0.45
477.573	0.45
478.007	0.47
478.44	0.47
478.874	0.47
479.307	0.47
479.74	0.48
480.173	0.49
480.606	0.49
481.04	0.49
481.473	0.49
481.906	0.5
482.339	0.51
482.771	0.51
483.204	0.53
483.637	0.52
484.07	0.53
484.502	0.54
484.935	0.54
485.368	0.54
485.8	0.55
486.233	0.56
486.665	0.55
487.098	0.56
487.53	0.56
487.962	0.57
488.394	0.57
488.827	0.58
489.259	0.58
489.691	0.59
490.123	0.59
490.555	0.59
490.987	0.6
491.418	0.61
491.85	0.61
492.282	0.61
492.714	0.62
493.145	0.63
493.577	0.63
494.009	0.63
494.44	0.63
494.872	0.64
495.303	0.65
495.734	0.66
496.166	0.66
496.597	0.66
497.028	0.67
497.459	0.67
497.89	0.68
498.321	0.68
498.752	0.68
499.183	0.69
499.614	0.69
500.045	0.7
500.476	0.7
500.906	0.71
501.337	0.71
501.768	0.72
502.198	0.72
502.629	0.73
503.059	0.73
503.49	0.73
503.92	0.74
504.35	0.74
504.781	0.75
505.211	0.75
505.641	0.76
506.071	0.76
506.501	0.76
506.931	0.77
507.361	0.77
507.791	0.78
508.221	0.78
508.651	0.79
509.081	0.79
509.51	0.8
509.94	0.8
510.37	0.8
510.799	0.81
511.229	0.81
511.658	0.81
512.087	0.82
512.517	0.82
512.946	0.83
513.375	0.82
513.804	0.83
514.234	0.83
514.663	0.84
515.092	0.85
515.521	0.84
515.95	0.85
516.378	0.85
516.807	0.85
517.236	0.85
517.665	0.86
518.093	0.87
518.522	0.87
518.951	0.87
519.379	0.88
519.807	0.87
520.236	0.88
520.664	0.89
521.093	0.89
521.521	0.89
521.949	0.89
522.377	0.89
522.805	0.89
523.233	0.89
523.661	0.91
524.089	0.91
524.517	0.9
524.945	0.91
525.373	0.91
525.8	0.92
526.228	0.92
526.656	0.92
527.083	0.93
527.511	0.93
527.938	0.93
528.366	0.93
528.793	0.94
529.22	0.93
529.648	0.94
530.075	0.94
530.502	0.94
530.929	0.94
531.356	0.95
531.783	0.95
532.21	0.95
532.637	0.96
533.064	0.96
533.49	0.97
533.917	0.96
534.344	0.97
534.771	0.97
535.197	0.96
535.624	0.97
536.05	0.97
536.477	0.97
536.903	0.98
537.329	0.98
537.755	0.98
538.182	0.99
538.608	0.99
539.034	0.99
539.46	1
539.886	1
540.312	1
540.738	1
541.164	1
541.589	1
542.015	1.01
542.441	1.01
542.867	1.01
543.292	1
543.718	1.01
544.143	1.01
544.569	1.01
544.994	1.02
545.419	1.02
545.845	1.02
546.27	1.02
546.695	1.02
547.12	1.02
547.545	1.04
547.97	1.03
548.395	1.03
548.82	1.03
549.245	1.03
549.67	1.03
550.094	1.03
550.519	1.03
550.944	1.03
551.368	1.03
551.793	1.03
552.217	1.03
552.642	1.03
553.066	1.04
553.49	1.03
553.915	1.04
554.339	1.03
554.763	1.03
555.187	1.03
555.611	1.03
556.035	1.04
556.459	1.03
556.883	1.04
557.307	1.03
557.731	1.03
558.154	1.04
558.578	1.03
559.002	1.03
559.425	1.03
559.849	1.03
560.272	1.03
560.696	1.03
561.119	1.03
561.543	1.02
561.966	1.02
562.389	1.03
562.812	1.02
563.235	1.02
563.658	1.02
564.081	1.01
564.504	1.02
564.927	1.02
565.35	1.01
565.773	1.01
566.196	1.01
566.618	1.01
567.041	1.01
567.463	1
567.886	1.01
568.309	1.01
568.731	1.01
569.153	1.01
569.576	1
569.998	1.01
570.42	1.01
570.842	1
571.264	1
571.686	1
572.108	1
572.53	0.99
572.952	0.99
573.374	0.99
573.796	0.99
574.218	0.99
574.639	0.98
575.061	0.98
575.483	0.98
575.904	0.98
576.326	0.98
576.747	0.98
577.168	0.98
577.59	0.98
578.011	0.98
578.432	0.98
578.853	0.97
579.274	0.97
579.695	0.97
580.116	0.97
580.537	0.97
580.958	0.97
581.379	0.97
581.8	0.97
582.221	0.97
582.641	0.96
583.062	0.96
583.482	0.97
583.903	0.96
584.323	0.97
584.744	0.97
585.164	0.96
585.584	0.97
586.005	0.97
586.425	0.97
586.845	0.97
587.265	0.97
587.685	0.96
588.105	0.97
588.525	0.97
588.945	0.97
589.365	0.97
589.785	0.97
590.204	0.97
590.624	0.97
591.044	0.98
591.463	0.98
591.883	0.98
592.302	0.98
592.721	0.98
593.141	0.98
593.56	0.98
593.979	0.99
594.399	0.99
594.818	0.99
595.237	0.98
595.656	0.99
596.075	0.99
596.494	0.99
596.913	0.99
597.331	0.99
597.75	0.99
598.169	0.99
598.587	0.99
599.006	0.99
599.425	0.99
599.843	0.99
600.262	0.99
600.68	0.99
601.098	0.98
601.517	0.98
601.935	0.98
602.353	0.98
602.771	0.98
603.189	0.98
603.607	0.97
604.025	0.97
604.443	0.97
604.861	0.97
605.279	0.96
605.696	0.96
606.114	0.95
606.532	0.96
606.949	0.95
607.367	0.95
607.784	0.94
608.202	0.94
608.619	0.94
609.036	0.93
609.454	0.93
609.871	0.93
610.288	0.92
610.705	0.92
611.122	0.92
611.539	0.92
611.956	0.91
612.373	0.91
612.79	0.9
613.207	0.89
613.623	0.89
614.04	0.89
614.457	0.89
614.873	0.88
615.29	0.88
615.706	0.87
616.122	0.87
616.539	0.87
616.955	0.86
617.371	0.86
617.788	0.85
618.204	0.85
618.62	0.85
619.036	0.84
619.452	0.84
619.868	0.84
620.284	0.83
620.699	0.83
621.115	0.82
621.531	0.82
621.946	0.81
622.362	0.8
622.778	0.8
623.193	0.8
623.608	0.8
624.024	0.79
624.439	0.79
624.854	0.78
625.27	0.78
625.685	0.78
626.1	0.77
626.515	0.76
626.93	0.75
627.345	0.75
627.76	0.75
628.175	0.74
628.589	0.74
629.004	0.73
629.419	0.73
629.833	0.71
630.248	0.71
630.663	0.71
631.077	0.7
631.491	0.69
631.906	0.69
632.32	0.68
632.734	0.68
633.148	0.67
633.563	0.66
633.977	0.66
634.391	0.65
634.805	0.64
635.219	0.64
635.632	0.63
636.046	0.63
636.46	0.62
636.874	0.62
637.287	0.61
637.701	0.61
638.115	0.6
638.528	0.59
638.941	0.59
639.355	0.58
639.768	0.57
640.181	0.57
640.595	0.57
641.008	0.56
641.421	0.56
641.834	0.55
642.247	0.55
642.66	0.55
643.073	0.54
643.486	0.54
643.898	0.54
644.311	0.53
644.724	0.53
645.136	0.53
645.549	0.52
645.961	0.52
646.374	0.52
646.786	0.51
647.199	0.51
647.611	0.51
648.023	0.51
648.435	0.5
648.847	0.51
649.26	0.5
649.672	0.5
650.084	0.5
650.495	0.5
650.907	0.49
651.319	0.49
651.731	0.49
652.143	0.49
652.554	0.49
652.966	0.48
653.377	0.48
653.789	0.48
654.2	0.48
654.612	0.48
655.023	0.48
655.434	0.45
655.845	0.44
656.256	0.46
656.668	0.49
657.079	0.48
657.49	0.47
657.901	0.47
658.311	0.47
658.722	0.47
659.133	0.47
659.544	0.46
659.954	0.46
660.365	0.46
660.775	0.46
661.186	0.46
661.596	0.46
662.007	0.46
662.417	0.46
662.827	0.46
663.238	0.45
663.648	0.45
664.058	0.45
664.468	0.45
664.878	0.44
665.288	0.45
665.698	0.44
666.108	0.44
666.517	0.44
666.927	0.43
667.337	0.43
667.746	0.43
668.156	0.43
668.565	0.43
668.975	0.42
669.384	0.42
669.794	0.42
670.203	0.41
670.612	0.41
671.021	0.41
671.43	0.41
671.84	0.4
672.249	0.4
672.658	0.4
673.066	0.39
673.475	0.39
673.884	0.39
674.293	0.38
674.702	0.38
675.11	0.38
675.519	0.37
675.927	0.37
676.336	0.37
676.744	0.36
677.152	0.36
677.561	0.36
677.969	0.35
678.377	0.35
678.785	0.35
679.193	0.34
679.601	0.34
680.009	0.34
680.417	0.34
680.825	0.33
681.233	0.33
681.641	0.32
682.048	0.32
682.456	0.32
682.864	0.31
683.271	0.31
683.679	0.31
684.086	0.3
684.493	0.3
684.901	0.3
685.308	0.29
685.715	0.29
686.122	0.29
686.529	0.29
686.936	0.28
687.343	0.28
687.75	0.28
688.157	0.27
688.564	0.27
688.971	0.27
689.378	0.27
689.784	0.26
690.191	0.26
690.597	0.25
691.004	0.25
691.41	0.25
691.817	0.25
692.223	0.24
692.629	0.24
693.035	0.24
693.442	0.24
693.848	0.23
694.254	0.23
694.66	0.23
695.066	0.23
695.471	0.22
695.877	0.22
696.283	0.22
696.689	0.22
697.094	0.22
697.5	0.22
697.906	0.21
698.311	0.21
698.716	0.21
699.122	0.21
699.527	0.21
699.932	0.2
700.338	0.2
700.743	0.2
701.148	0.2
701.553	0.2
701.958	0.2
702.363	0.2
702.768	0.19
703.173	0.19
703.577	0.19
703.982	0.19
704.387	0.19
704.791	0.19
705.196	0.19
705.6	0.19
706.005	0.19
706.409	0.19
706.814	0.19
707.218	0.19
707.622	0.19
708.026	0.19
708.43	0.19
708.834	0.19
709.238	0.18
709.642	0.19
710.046	0.19
710.45	0.19
710.854	0.19
711.257	0.19
711.661	0.18
712.065	0.18
712.468	0.19
712.872	0.19
713.275	0.19
713.679	0.19
714.082	0.19
714.485	0.19
714.888	0.19
715.291	0.19
715.695	0.19
716.098	0.19
716.501	0.19
716.904	0.19
717.306	0.19
717.709	0.19
718.112	0.19
718.515	0.19
718.917	0.19
719.32	0.2
719.723	0.19
720.125	0.19
720.527	0.2
720.93	0.2
721.332	0.2
721.734	0.2
722.137	0.2
722.539	0.2
722.941	0.2
723.343	0.2
723.745	0.2
724.147	0.2
724.549	0.2
724.95	0.2
725.352	0.21
725.754	0.2
726.156	0.21
726.557	0.21
726.959	0.21
727.36	0.21
727.762	0.21
728.163	0.21
728.564	0.21
728.966	0.21
729.367	0.21
729.768	0.21
730.169	0.21
730.57	0.21
730.971	0.21
731.372	0.21
731.773	0.21
732.174	0.21
732.574	0.21
732.975	0.21
733.376	0.21
733.776	0.21
734.177	0.21
734.577	0.21
734.978	0.21
735.378	0.21
735.778	0.21
736.179	0.21
736.579	0.21
736.979	0.21
737.379	0.21
737.779	0.21
738.179	0.21
738.579	0.21
738.979	0.21
739.379	0.21
739.778	0.2
740.178	0.2
740.578	0.2
740.977	0.2
741.377	0.2
741.776	0.2
742.176	0.2
742.575	0.2
742.974	0.2
743.374	0.19
743.773	0.2
744.172	0.2
744.571	0.19
744.97	0.19
745.369	0.19
745.768	0.19
746.167	0.19
746.565	0.19
746.964	0.19
747.363	0.19
747.761	0.19
748.16	0.19
748.559	0.18
748.957	0.18
749.355	0.18
749.754	0.18
750.152	0.18
750.55	0.18
750.948	0.18
751.347	0.18
751.745	0.18
752.143	0.18
752.541	0.18
752.938	0.17
753.336	0.18
753.734	0.17
754.132	0.17
754.529	0.17
754.927	0.17
755.325	0.17
755.722	0.17
756.119	0.17
756.517	0.17
756.914	0.17
757.311	0.17
757.709	0.17
758.106	0.17
758.503	0.17
758.9	0.17
759.297	0.17
759.694	0.16
760.091	0.17
760.488	0.16
760.884	0.16
761.281	0.17
761.678	0.16
762.074	0.16
762.471	0.16
762.867	0.16
763.264	0.16
763.66	0.16
764.056	0.16
764.453	0.17
764.849	0.16
765.245	0.16
765.641	0.16
766.037	0.16
766.433	0.16
766.829	0.16
767.225	0.16
767.621	0.16
768.016	0.16
768.412	0.16
768.808	0.16
769.203	0.16
769.599	0.17
769.994	0.16
770.389	0.16
770.785	0.16
771.18	0.17
771.575	0.17
771.971	0.17
772.366	0.17
772.761	0.17
773.156	0.17
773.551	0.17
773.945	0.17
774.34	0.17
774.735	0.17
775.13	0.17
775.524	0.17
775.919	0.17
776.314	0.17
776.708	0.17
777.103	0.17
777.497	0.17
777.891	0.17
778.285	0.18
778.68	0.17
779.074	0.18
779.468	0.18
779.862	0.18
780.256	0.18
780.65	0.18
781.044	0.18
781.438	0.18
781.831	0.18
782.225	0.18
782.619	0.18
783.012	0.18
783.406	0.18
783.799	0.18
784.193	0.18
784.586	0.18
784.979	0.18
785.372	0.18
785.766	0.19
786.159	0.19
786.552	0.19
786.945	0.19
787.338	0.19
787.731	0.19
788.123	0.19
788.516	0.19
788.909	0.19
789.302	0.19
789.694	0.19
790.087	0.19
790.479	0.19
790.872	0.2
791.264	0.2
791.656	0.2
792.049	0.2
792.441	0.2
792.833	0.2
793.225	0.2
793.617	0.2
794.009	0.2
794.401	0.21
794.793	0.21
795.185	0.21
795.576	0.21
795.968	0.21
796.36	0.21
796.751	0.21
797.143	0.21
797.534	0.21
797.926	0.21
798.317	0.21
798.708	0.21
799.1	0.21
799.491	0.21
799.882	0.22
800.273	0.22
800.664	0.22
801.055	0.22
801.446	0.22
801.837	0.22
802.227	0.22
802.618	0.22
803.009	0.22
803.399	0.22
803.79	0.22
804.18	0.22
804.571	0.22
804.961	0.22
805.351	0.22
805.742	0.23
806.132	0.23
806.522	0.23
806.912	0.23
807.302	0.23
807.692	0.23
808.082	0.23
808.472	0.23
808.862	0.24
809.251	0.23
809.641	0.23
810.031	0.24
810.42	0.24
810.81	0.24
811.199	0.24
811.589	0.24
811.978	0.24
812.367	0.24
812.756	0.24
813.146	0.24
813.535	0.24
813.924	0.24
814.313	0.24
814.702	0.25
815.091	0.25
815.479	0.24
815.868	0.25
816.257	0.25
816.645	0.25
817.034	0.25
817.423	0.25
817.811	0.25
818.199	0.25
818.588	0.25
818.976	0.25
819.364	0.25
819.753	0.25
820.141	0.25
820.529	0.25
820.917	0.26
821.305	0.26
821.693	0.26
822.08	0.26
822.468	0.26
822.856	0.26
823.244	0.25
823.631	0.26
824.019	0.26
824.406	0.26
824.794	0.26
825.181	0.26
825.568	0.26
825.956	0.26
826.343	0.26
826.73	0.26
827.117	0.27
827.504	0.27
827.891	0.27
828.278	0.27
828.665	0.27
829.052	0.26
829.438	0.27
829.825	0.27
830.212	0.27
830.598	0.27
830.985	0.27
831.371	0.27
831.757	0.27
832.144	0.27
832.53	0.28
832.916	0.27
833.302	0.27
833.688	0.28
834.075	0.27
834.461	0.28
834.846	0.28
835.232	0.28
835.618	0.28
836.004	0.28
836.39	0.28
836.775	0.28
837.161	0.28
837.546	0.28
837.932	0.28
838.317	0.28
838.702	0.28
839.088	0.28
839.473	0.28
839.858	0.28
840.243	0.28
840.628	0.28
841.013	0.28
841.398	0.28
841.783	0.29
842.168	0.28
842.553	0.29
842.937	0.29
843.322	0.29
843.707	0.28
844.091	0.29
844.476	0.28
844.86	0.29
845.244	0.29
845.629	0.29
846.013	0.29
846.397	0.29
846.781	0.29
847.165	0.29
847.549	0.29
847.933	0.29
848.317	0.29
848.701	0.29
849.085	0.29
849.468	0.29
849.852	0.29
850.236	0.29
850.619	0.29
851.003	0.29
851.386	0.29
851.769	0.29
852.153	0.29
852.536	0.29
852.919	0.29
853.302	0.29
853.685	0.29
854.068	0.29
854.451	0.29
854.834	0.29
855.217	0.29
855.6	0.29
855.982	0.3
856.365	0.3
856.748	0.3
857.13	0.3
857.513	0.3
857.895	0.3
858.277	0.3
858.66	0.29
859.042	0.3
859.424	0.3
859.806	0.3
860.188	0.29
860.57	0.3
860.952	0.3
861.334	0.3
861.716	0.3
862.098	0.3
862.48	0.3
862.861	0.3
863.243	0.3
863.624	0.3
864.006	0.3
864.387	0.3
864.769	0.3
865.15	0.29
865.531	0.3
865.912	0.3
866.294	0.29
866.675	0.3
867.056	0.3
867.437	0.3
867.818	0.3
868.198	0.3
868.579	0.3
868.96	0.3
869.341	0.3
869.721	0.3
870.102	0.3
870.482	0.3
870.863	0.3
871.243	0.3
871.623	0.3
872.003	0.3
872.384	0.3
872.764	0.3
873.144	0.3
873.524	0.3
873.904	0.3
874.284	0.3
874.664	0.3
875.043	0.3
875.423	0.3
875.803	0.3
876.182	0.3
876.562	0.3
876.941	0.3
877.321	0.3
877.7	0.3
878.079	0.3
878.459	0.3
878.838	0.3
879.217	0.3
879.596	0.3
879.975	0.29
880.354	0.3
880.733	0.3
881.112	0.3
881.491	0.3
881.869	0.29
882.248	0.3
882.627	0.3
883.005	0.29
883.384	0.3
883.762	0.3
884.14	0.29
884.519	0.3
884.897	0.29
885.275	0.29
885.653	0.3
886.031	0.3
886.409	0.29
886.787	0.3
887.165	0.29
887.543	0.29
887.921	0.3
888.298	0.29
888.676	0.29
889.054	0.29
889.431	0.3
889.809	0.29
890.186	0.29
890.563	0.29
890.941	0.29
891.318	0.29
891.695	0.29
892.072	0.29
892.449	0.29
892.826	0.29
893.203	0.29
893.58	0.29
893.957	0.29
894.334	0.29
894.71	0.29
895.087	0.29
895.464	0.29
895.84	0.29
896.217	0.29
896.593	0.29
896.969	0.29
897.346	0.28
897.722	0.29
898.098	0.29
898.474	0.29
898.85	0.29
899.226	0.29
899.602	0.28
899.978	0.28
900.354	0.28
900.73	0.29
901.105	0.28
901.481	0.29
901.857	0.29
902.232	0.29
902.608	0.28
902.983	0.28
903.358	0.28
903.734	0.28
904.109	0.28
904.484	0.28
904.859	0.28
905.234	0.28
905.609	0.28
905.984	0.28
906.359	0.28
906.734	0.28
907.108	0.28
907.483	0.28
907.858	0.28
908.232	0.28
908.607	0.28
908.981	0.28
909.356	0.28
909.73	0.28
910.104	0.28
910.478	0.28
910.853	0.28
911.227	0.28
911.601	0.27
911.975	0.27
912.349	0.27
912.722	0.27
913.096	0.27
913.47	0.27
913.844	0.27
914.217	0.27
914.591	0.27
914.964	0.27
915.338	0.27
915.711	0.27
916.084	0.27
916.458	0.27
916.831	0.27
917.204	0.27
917.577	0.27
917.95	0.27
918.323	0.27
918.696	0.27
919.069	0.26
919.441	0.27
919.814	0.27
920.187	0.27
920.559	0.27
920.932	0.27
921.304	0.26
921.677	0.26
922.049	0.26
922.421	0.26
922.794	0.26
923.166	0.26
923.538	0.26
923.91	0.26
924.282	0.26
924.654	0.26
925.026	0.26
925.398	0.26
925.769	0.26
926.141	0.26
926.513	0.26
926.884	0.26
927.256	0.26
927.627	0.26
927.999	0.26
928.37	0.26
928.741	0.26
929.113	0.26
929.484	0.26
929.855	0.26
930.226	0.26
930.597	0.26
930.968	0.25
931.339	0.25
931.709	0.26
932.08	0.25
932.451	0.25
932.821	0.25
933.192	0.25
933.562	0.25
933.933	0.25
934.303	0.25
934.673	0.25
935.044	0.25
935.414	0.25
935.784	0.25
936.154	0.25
936.524	0.25
936.894	0.25
937.264	0.25
937.634	0.25
938.004	0.24
938.373	0.25
938.743	0.25
939.113	0.25
939.482	0.25
939.852	0.24
940.221	0.24
940.59	0.25
940.96	0.24
941.329	0.24
941.698	0.24
942.067	0.24
942.436	0.24
942.805	0.24
943.174	0.24
943.543	0.24
943.912	0.24
944.28	0.24
944.649	0.24
945.018	0.24
945.386	0.24
945.755	0.23
946.123	0.24
946.492	0.23
946.86	0.24
947.228	0.24
947.596	0.24
947.965	0.24
948.333	0.24
948.701	0.24
949.069	0.23
949.437	0.24
949.804	0.23
950.172	0.23
950.54	0.23
950.908	0.23
951.275	0.23
951.643	0.23
952.01	0.23
952.378	0.23
952.745	0.23
953.112	0.23
953.479	0.23
953.847	0.23
954.214	0.23
954.581	0.23
954.948	0.23
955.315	0.22
955.682	0.22
956.048	0.22
956.415	0.22
956.782	0.22
957.148	0.22
957.515	0.22
957.881	0.22
958.248	0.22
958.614	0.22
958.981	0.22
959.347	0.22
959.713	0.22
960.079	0.21
960.445	0.22
960.811	0.22
961.177	0.22
961.543	0.22
961.909	0.21
962.275	0.22
962.641	0.22
963.006	0.22
963.372	0.22
963.737	0.21
964.103	0.22
964.468	0.22
964.834	0.21
965.199	0.21
965.564	0.21
965.929	0.21
966.294	0.21
966.659	0.21
967.024	0.21
967.389	0.21
967.754	0.21
968.119	0.21
968.484	0.21
968.848	0.21
969.213	0.2
969.578	0.21
969.942	0.21
970.307	0.2
970.671	0.21
971.035	0.2
971.399	0.21
971.764	0.21
972.128	0.21
972.492	0.21
972.856	0.2
973.22	0.2
973.584	0.2
973.948	0.2
974.311	0.2
974.675	0.2
975.039	0.2
975.402	0.2
975.766	0.2
976.129	0.2
976.493	0.2
976.856	0.2
977.219	0.2
977.582	0.2
977.946	0.2
978.309	0.2
978.672	0.2
979.035	0.19
979.398	0.19
979.761	0.19
980.123	0.19
980.486	0.19
980.849	0.19
981.211	0.19
981.574	0.19
981.936	0.19
982.299	0.19
982.661	0.19
983.023	0.19
983.386	0.19
983.748	0.2
984.11	0.19
984.472	0.19
984.834	0.19
985.196	0.19
985.558	0.19
985.92	0.19
986.281	0.18
986.643	0.18
987.005	0.19
987.366	0.19
987.728	0.19
988.089	0.18
988.451	0.18
988.812	0.19
989.173	0.19
989.534	0.18
989.895	0.19
990.257	0.18
990.618	0.19
990.979	0.18
991.339	0.18
991.7	0.18
992.061	0.18
992.422	0.18
992.782	0.19
993.143	0.18
993.503	0.18
993.864	0.18
994.224	0.18
994.585	0.18
994.945	0.18
995.305	0.18
995.665	0.18
996.025	0.18
996.385	0.18
996.745	0.18
997.105	0.18
997.465	0.18
997.825	0.18
998.185	0.18
998.544	0.18
998.904	0.17
999.263	0.17
999.623	0.17
999.982	0.17
1000.342	0.17
1000.701	0.17
1001.06	0.18
1001.419	0.17
1001.778	0.17
1002.138	0.17
1002.497	0.17
1002.855	0.17
1003.214	0.17
1003.573	0.17
1003.932	0.17
1004.29	0.17
1004.649	0.18
1005.008	0.17
1005.366	0.17
1005.725	0.17
1006.083	0.17
1006.441	0.17
1006.799	0.17
1007.158	0.16
1007.516	0.16
1007.874	0.16
1008.232	0.17
1008.59	0.16
1008.948	0.16
1009.305	0.17
1009.663	0.16
1010.021	0.16
1010.379	0.17
1010.736	0.16
1011.094	0.16
1011.451	0.16
1011.808	0.16
1012.166	0.16
1012.523	0.16
1012.88	0.16
1013.237	0.16
1013.594	0.16
1013.951	0.16
1014.308	0.16
1014.665	0.16
1015.022	0.15
1015.379	0.16
1015.735	0.16
1016.092	0.16
1016.449	0.16
1016.805	0.16
1017.162	0.16
1017.518	0.15
1017.874	0.16
1018.231	0.15
1018.587	0.16
1018.943	0.16
1019.299	0.15
1019.655	0.15
1020.011	0.16
1020.367	0.16
1020.723	0.15
1021.078	0.15
1021.434	0.15
1021.79	0.15
1022.145	0.15
1022.501	0.15
1022.856	0.15
1023.212	0.16
1023.567	0.15
1023.922	0.15
1024.278	0.15
1024.633	0.15
1024.988	0.15
1025.343	0.15
1025.698	0.15
1026.053	0.15
1026.408	0.15
1026.762	0.15
1027.117	0.15
1027.472	0.15
1027.826	0.14
1028.181	0.15
1028.535	0.15
1028.89	0.15
1029.244	0.15
1029.598	0.15
1029.952	0.14
1030.307	0.14
1030.661	0.15
1031.015	0.15
1031.369	0.15
1031.723	0.15
1032.076	0.15
