Data from Rubpy_EV_EDTA_TU(3000)_Blank_Blue_Flow_Absorbance__4513__12-11-06-563.txt Node

Date: Mon Aug 03 12:11:06 BST 2026
User: fpm-admin
Spectrometer: SR600986
Trigger mode: 0
Integration Time (sec): 8.000000E-3
Scans to average: 3
Nonlinearity correction enabled: true
Boxcar width: 0
Storing dark spectrum: false
XAxis mode: Wavelengths
Number of Pixels in Spectrum: 2048
>>>>>Begin Spectral Data<<<<<
188.613	0.3
189.078	0.29
189.542	0.29
190.007	0.3
190.472	0.27
190.936	0.28
191.401	0.29
191.865	0.3
192.33	0.28
192.794	0.3
193.258	0.3
193.723	0.29
194.187	0.3
194.651	0.33
195.115	0.31
195.579	0.29
196.043	0.31
196.507	0.3
196.971	0.29
197.435	0.29
197.899	0.28
198.363	0.31
198.827	0.31
199.29	0.28
199.754	0.31
200.218	0.29
200.681	0.31
201.145	0.28
201.608	0.3
202.072	0.29
202.535	0.3
202.998	0.29
203.462	0.3
203.925	0.29
204.388	0.3
204.851	0.3
205.314	0.31
205.777	0.27
206.24	0.31
206.703	0.29
207.166	0.28
207.629	0.28
208.092	0.31
208.555	0.31
209.018	0.31
209.48	0.3
209.943	0.31
210.406	0.29
210.868	0.27
211.331	0.31
211.793	0.27
212.256	0.27
212.718	0.27
213.18	0.3
213.643	0.3
214.105	0.3
214.567	0.28
215.029	0.28
215.491	0.3
215.953	0.31
216.415	0.29
216.877	0.28
217.339	0.27
217.801	0.29
218.263	0.28
218.725	0.29
219.186	0.3
219.648	0.31
220.11	0.29
220.571	0.3
221.033	0.3
221.494	0.31
221.956	0.27
222.417	0.29
222.878	0.29
223.34	0.27
223.801	0.28
224.262	0.3
224.723	0.3
225.185	0.3
225.646	0.29
226.107	0.3
226.568	0.31
227.029	0.3
227.489	0.3
227.95	0.31
228.411	0.29
228.872	0.32
229.332	0.28
229.793	0.3
230.254	0.29
230.714	0.29
231.175	0.29
231.635	0.27
232.096	0.29
232.556	0.32
233.016	0.28
233.477	0.28
233.937	0.3
234.397	0.31
234.857	0.29
235.317	0.29
235.777	0.27
236.237	0.31
236.697	0.31
237.157	0.3
237.617	0.29
238.077	0.3
238.537	0.31
238.996	0.31
239.456	0.28
239.916	0.31
240.375	0.3
240.835	0.28
241.294	0.26
241.754	0.3
242.213	0.29
242.672	0.3
243.132	0.27
243.591	0.29
244.05	0.32
244.509	0.3
244.968	0.29
245.427	0.3
245.886	0.29
246.345	0.27
246.804	0.3
247.263	0.3
247.722	0.3
248.181	0.29
248.639	0.31
249.098	0.3
249.557	0.27
250.015	0.29
250.474	0.32
250.932	0.29
251.391	0.29
251.849	0.28
252.308	0.3
252.766	0.29
253.224	0.26
253.682	0.3
254.14	0.28
254.599	0.29
255.057	0.3
255.515	0.29
255.973	0.28
256.431	0.3
256.888	0.3
257.346	0.29
257.804	0.28
258.262	0.32
258.719	0.3
259.177	0.28
259.635	0.29
260.092	0.31
260.55	0.3
261.007	0.31
261.465	0.28
261.922	0.27
262.379	0.29
262.836	0.29
263.294	0.31
263.751	0.31
264.208	0.28
264.665	0.29
265.122	0.3
265.579	0.3
266.036	0.3
266.493	0.31
266.95	0.29
267.406	0.31
267.863	0.3
268.32	0.29
268.777	0.28
269.233	0.31
269.69	0.28
270.146	0.29
270.603	0.31
271.059	0.29
271.515	0.31
271.972	0.3
272.428	0.3
272.884	0.3
273.34	0.29
273.796	0.3
274.253	0.32
274.709	0.29
275.165	0.29
275.62	0.3
276.076	0.3
276.532	0.3
276.988	0.27
277.444	0.28
277.899	0.29
278.355	0.33
278.811	0.29
279.266	0.3
279.722	0.3
280.177	0.29
280.633	0.3
281.088	0.29
281.543	0.3
281.998	0.27
282.454	0.3
282.909	0.31
283.364	0.29
283.819	0.28
284.274	0.31
284.729	0.3
285.184	0.28
285.639	0.3
286.094	0.3
286.548	0.31
287.003	0.32
287.458	0.28
287.913	0.3
288.367	0.3
288.822	0.31
289.276	0.3
289.731	0.31
290.185	0.28
290.639	0.3
291.094	0.31
291.548	0.32
292.002	0.32
292.456	0.32
292.91	0.3
293.365	0.3
293.819	0.3
294.273	0.33
294.726	0.3
295.18	0.3
295.634	0.3
296.088	0.32
296.542	0.34
296.995	0.29
297.449	0.32
297.903	0.33
298.356	0.3
298.81	0.31
299.263	0.3
299.716	0.3
300.17	0.31
300.623	0.29
301.076	0.32
301.53	0.31
301.983	0.32
302.436	0.3
302.889	0.3
303.342	0.33
303.795	0.29
304.248	0.32
304.701	0.33
305.153	0.32
305.606	0.32
306.059	0.32
306.512	0.31
306.964	0.32
307.417	0.34
307.869	0.33
308.322	0.33
308.774	0.32
309.227	0.33
309.679	0.33
310.131	0.35
310.584	0.35
311.036	0.36
311.488	0.38
311.94	0.35
312.392	0.38
312.844	0.39
313.296	0.4
313.748	0.4
314.2	0.38
314.652	0.41
315.103	0.4
315.555	0.4
316.007	0.43
316.458	0.41
316.91	0.43
317.361	0.42
317.813	0.44
318.264	0.45
318.716	0.46
319.167	0.45
319.618	0.45
320.07	0.45
320.521	0.47
320.972	0.46
321.423	0.45
321.874	0.49
322.325	0.49
322.776	0.48
323.227	0.49
323.678	0.5
324.128	0.51
324.579	0.52
325.03	0.52
325.48	0.52
325.931	0.54
326.382	0.55
326.832	0.55
327.283	0.57
327.733	0.59
328.183	0.59
328.634	0.61
329.084	0.62
329.534	0.63
329.984	0.66
330.434	0.67
330.884	0.67
331.334	0.69
331.784	0.71
332.234	0.71
332.684	0.73
333.134	0.74
333.584	0.76
334.034	0.76
334.483	0.77
334.933	0.79
335.382	0.81
335.832	0.82
336.281	0.84
336.731	0.85
337.18	0.85
337.63	0.88
338.079	0.89
338.528	0.91
338.977	0.92
339.426	0.94
339.876	0.95
340.325	0.97
340.774	0.99
341.223	0.99
341.671	1.02
342.12	1.04
342.569	1.04
343.018	1.05
343.467	1.07
343.915	1.09
344.364	1.1
344.812	1.11
345.261	1.13
345.709	1.15
346.158	1.16
346.606	1.18
347.054	1.19
347.503	1.19
347.951	1.21
348.399	1.23
348.847	1.24
349.295	1.26
349.743	1.25
350.191	1.29
350.639	1.28
351.087	1.31
351.535	1.31
351.983	1.34
352.43	1.34
352.878	1.37
353.326	1.38
353.773	1.38
354.221	1.4
354.668	1.43
355.116	1.44
355.563	1.44
356.01	1.47
356.458	1.47
356.905	1.49
357.352	1.49
357.799	1.52
358.246	1.53
358.693	1.54
359.14	1.55
359.587	1.53
360.034	1.57
360.481	1.56
360.928	1.59
361.375	1.62
361.821	1.6
362.268	1.63
362.714	1.64
363.161	1.63
363.608	1.63
364.054	1.67
364.5	1.64
364.947	1.66
365.393	1.68
365.839	1.68
366.285	1.67
366.732	1.68
367.178	1.67
367.624	1.69
368.07	1.69
368.516	1.67
368.962	1.66
369.408	1.67
369.853	1.67
370.299	1.63
370.745	1.64
371.19	1.62
371.636	1.63
372.082	1.62
372.527	1.62
372.973	1.59
373.418	1.58
373.863	1.58
374.309	1.56
374.754	1.55
375.199	1.53
375.644	1.54
376.09	1.55
376.535	1.53
376.98	1.53
377.425	1.52
377.87	1.51
378.314	1.52
378.759	1.51
379.204	1.52
379.649	1.52
380.093	1.52
380.538	1.51
380.983	1.51
381.427	1.51
381.872	1.52
382.316	1.53
382.76	1.53
383.205	1.53
383.649	1.52
384.093	1.54
384.537	1.53
384.982	1.52
385.426	1.52
385.87	1.5
386.314	1.51
386.758	1.47
387.201	1.46
387.645	1.45
388.089	1.45
388.533	1.44
388.976	1.43
389.42	1.44
389.864	1.44
390.307	1.44
390.751	1.45
391.194	1.46
391.638	1.48
392.081	1.47
392.524	1.53
392.967	1.52
393.411	1.53
393.854	1.52
394.297	1.53
394.74	1.53
395.183	1.54
395.626	1.52
396.069	1.51
396.512	1.51
396.954	1.49
397.397	1.47
397.84	1.45
398.282	1.44
398.725	1.4
399.168	1.35
399.61	1.3
400.052	1.26
400.495	1.2
400.937	1.13
401.38	1.07
401.822	1.01
402.264	0.97
402.706	0.89
403.148	0.83
403.59	0.79
404.032	0.75
404.474	0.7
404.916	0.65
405.358	0.61
405.8	0.58
406.241	0.56
406.683	0.52
407.125	0.5
407.566	0.46
408.008	0.45
408.449	0.43
408.891	0.41
409.332	0.4
409.774	0.39
410.215	0.37
410.656	0.36
411.097	0.34
411.539	0.32
411.98	0.33
412.421	0.32
412.862	0.3
413.303	0.29
413.744	0.3
414.184	0.3
414.625	0.28
415.066	0.28
415.507	0.27
415.947	0.28
416.388	0.27
416.828	0.26
417.269	0.27
417.709	0.27
418.15	0.26
418.59	0.26
419.03	0.25
419.471	0.25
419.911	0.25
420.351	0.25
420.791	0.24
421.231	0.25
421.671	0.25
422.111	0.25
422.551	0.24
422.991	0.25
423.431	0.24
423.87	0.24
424.31	0.26
424.75	0.23
425.189	0.25
425.629	0.24
426.068	0.25
426.508	0.26
426.947	0.24
427.386	0.25
427.826	0.24
428.265	0.23
428.704	0.25
429.143	0.24
429.582	0.24
430.021	0.24
430.46	0.24
430.899	0.25
431.338	0.25
431.777	0.25
432.216	0.25
432.655	0.26
433.093	0.25
433.532	0.25
433.971	0.25
434.409	0.26
434.848	0.25
435.286	0.25
435.724	0.26
436.163	0.26
436.601	0.26
437.039	0.26
437.477	0.27
437.916	0.26
438.354	0.26
438.792	0.26
439.23	0.27
439.668	0.27
440.105	0.26
440.543	0.27
440.981	0.26
441.419	0.26
441.856	0.27
442.294	0.26
442.732	0.27
443.169	0.27
443.607	0.28
444.044	0.28
444.481	0.28
444.919	0.27
445.356	0.29
445.793	0.27
446.23	0.28
446.668	0.26
447.105	0.29
447.542	0.28
447.979	0.29
448.416	0.29
448.852	0.28
449.289	0.29
449.726	0.29
450.163	0.29
450.599	0.3
451.036	0.29
451.473	0.3
451.909	0.29
452.346	0.29
452.782	0.29
453.218	0.28
453.655	0.3
454.091	0.3
454.527	0.31
454.963	0.3
455.399	0.31
455.835	0.29
456.271	0.33
456.707	0.29
457.143	0.31
457.579	0.31
458.015	0.31
458.451	0.31
458.886	0.32
459.322	0.32
459.758	0.32
460.193	0.32
460.629	0.3
461.064	0.32
461.5	0.31
461.935	0.3
462.37	0.31
462.805	0.31
463.241	0.33
463.676	0.33
464.111	0.32
464.546	0.36
464.981	0.33
465.416	0.33
465.851	0.35
466.286	0.34
466.72	0.36
467.155	0.36
467.59	0.35
468.024	0.37
468.459	0.36
468.893	0.35
469.328	0.39
469.762	0.38
470.197	0.38
470.631	0.37
471.065	0.38
471.5	0.39
471.934	0.39
472.368	0.39
472.802	0.4
473.236	0.41
473.67	0.41
474.104	0.4
474.538	0.42
474.972	0.43
475.405	0.42
475.839	0.43
476.273	0.43
476.706	0.44
477.14	0.45
477.573	0.45
478.007	0.46
478.44	0.46
478.874	0.47
479.307	0.46
479.74	0.48
480.173	0.47
480.606	0.48
481.04	0.48
481.473	0.49
481.906	0.5
482.339	0.51
482.771	0.51
483.204	0.51
483.637	0.52
484.07	0.52
484.502	0.53
484.935	0.53
485.368	0.53
485.8	0.54
486.233	0.54
486.665	0.54
487.098	0.55
487.53	0.56
487.962	0.57
488.394	0.57
488.827	0.57
489.259	0.57
489.691	0.58
490.123	0.58
490.555	0.59
490.987	0.59
491.418	0.6
491.85	0.6
492.282	0.6
492.714	0.61
493.145	0.61
493.577	0.62
494.009	0.63
494.44	0.63
494.872	0.64
495.303	0.64
495.734	0.64
496.166	0.65
496.597	0.65
497.028	0.66
497.459	0.67
497.89	0.67
498.321	0.67
498.752	0.67
499.183	0.68
499.614	0.68
500.045	0.69
500.476	0.69
500.906	0.7
501.337	0.7
501.768	0.71
502.198	0.72
502.629	0.72
503.059	0.72
503.49	0.73
503.92	0.73
504.35	0.73
504.781	0.74
505.211	0.74
505.641	0.75
506.071	0.75
506.501	0.75
506.931	0.76
507.361	0.76
507.791	0.77
508.221	0.77
508.651	0.78
509.081	0.78
509.51	0.79
509.94	0.79
510.37	0.79
510.799	0.8
511.229	0.8
511.658	0.81
512.087	0.81
512.517	0.81
512.946	0.81
513.375	0.81
513.804	0.83
514.234	0.83
514.663	0.83
515.092	0.84
515.521	0.84
515.95	0.84
516.378	0.84
516.807	0.84
517.236	0.85
517.665	0.85
518.093	0.85
518.522	0.86
518.951	0.86
519.379	0.87
519.807	0.86
520.236	0.87
520.664	0.87
521.093	0.87
521.521	0.88
521.949	0.88
522.377	0.88
522.805	0.88
523.233	0.89
523.661	0.88
524.089	0.89
524.517	0.89
524.945	0.89
525.373	0.9
525.8	0.91
526.228	0.91
526.656	0.9
527.083	0.92
527.511	0.92
527.938	0.91
528.366	0.92
528.793	0.93
529.22	0.93
529.648	0.93
530.075	0.93
530.502	0.94
530.929	0.93
531.356	0.93
531.783	0.94
532.21	0.94
532.637	0.94
533.064	0.94
533.49	0.95
533.917	0.95
534.344	0.95
534.771	0.96
535.197	0.96
535.624	0.96
536.05	0.96
536.477	0.96
536.903	0.96
537.329	0.97
537.755	0.98
538.182	0.98
538.608	0.97
539.034	0.98
539.46	0.98
539.886	0.99
540.312	0.98
540.738	0.99
541.164	0.98
541.589	0.99
542.015	0.99
542.441	1
542.867	1
543.292	0.99
543.718	1
544.143	1
544.569	1.01
544.994	1.01
545.419	1.01
545.845	1.01
546.27	1.01
546.695	1.01
547.12	1.02
547.545	1.01
547.97	1.02
548.395	1.02
548.82	1.02
549.245	1.02
549.67	1.02
550.094	1.02
550.519	1.02
550.944	1.01
551.368	1.02
551.793	1.03
552.217	1.02
552.642	1.03
553.066	1.02
553.49	1.02
553.915	1.02
554.339	1.02
554.763	1.02
555.187	1.02
555.611	1.02
556.035	1.02
556.459	1.02
556.883	1.03
557.307	1.03
557.731	1.02
558.154	1.02
558.578	1.01
559.002	1.02
559.425	1.01
559.849	1.02
560.272	1.02
560.696	1.02
561.119	1.02
561.543	1.02
561.966	1.01
562.389	1.01
562.812	1.01
563.235	1.01
563.658	1.01
564.081	1.01
564.504	1.01
564.927	1.01
565.35	1
565.773	1
566.196	1
566.618	1
567.041	1
567.463	1
567.886	1
568.309	1
568.731	0.99
569.153	0.99
569.576	0.99
569.998	1
570.42	0.99
570.842	0.99
571.264	0.99
571.686	0.98
572.108	0.99
572.53	0.99
572.952	0.98
573.374	0.98
573.796	0.98
574.218	0.98
574.639	0.98
575.061	0.98
575.483	0.98
575.904	0.97
576.326	0.97
576.747	0.97
577.168	0.97
577.59	0.97
578.011	0.97
578.432	0.97
578.853	0.96
579.274	0.96
579.695	0.96
580.116	0.96
580.537	0.96
580.958	0.96
581.379	0.96
581.8	0.96
582.221	0.96
582.641	0.96
583.062	0.95
583.482	0.96
583.903	0.96
584.323	0.96
584.744	0.96
585.164	0.95
585.584	0.96
586.005	0.96
586.425	0.95
586.845	0.96
587.265	0.96
587.685	0.95
588.105	0.96
588.525	0.96
588.945	0.96
589.365	0.96
589.785	0.96
590.204	0.96
590.624	0.97
591.044	0.97
591.463	0.96
591.883	0.97
592.302	0.97
592.721	0.98
593.141	0.97
593.56	0.98
593.979	0.97
594.399	0.97
594.818	0.97
595.237	0.97
595.656	0.98
596.075	0.98
596.494	0.98
596.913	0.98
597.331	0.98
597.75	0.98
598.169	0.99
598.587	0.99
599.006	0.98
599.425	0.99
599.843	0.98
600.262	0.98
600.68	0.98
601.098	0.98
601.517	0.97
601.935	0.97
602.353	0.97
602.771	0.97
603.189	0.97
603.607	0.97
604.025	0.96
604.443	0.96
604.861	0.96
605.279	0.95
605.696	0.95
606.114	0.95
606.532	0.95
606.949	0.94
607.367	0.94
607.784	0.94
608.202	0.93
608.619	0.93
609.036	0.92
609.454	0.92
609.871	0.91
610.288	0.92
610.705	0.91
611.122	0.91
611.539	0.9
611.956	0.9
612.373	0.9
612.79	0.89
613.207	0.89
613.623	0.89
614.04	0.88
614.457	0.88
614.873	0.87
615.29	0.87
615.706	0.87
616.122	0.87
616.539	0.86
616.955	0.85
617.371	0.85
617.788	0.85
618.204	0.84
618.62	0.84
619.036	0.84
619.452	0.83
619.868	0.83
620.284	0.82
620.699	0.82
621.115	0.81
621.531	0.81
621.946	0.81
622.362	0.8
622.778	0.8
623.193	0.79
623.608	0.79
624.024	0.79
624.439	0.78
624.854	0.78
625.27	0.77
625.685	0.77
626.1	0.76
626.515	0.75
626.93	0.75
627.345	0.75
627.76	0.74
628.175	0.73
628.589	0.73
629.004	0.72
629.419	0.72
629.833	0.71
630.248	0.71
630.663	0.7
631.077	0.7
631.491	0.69
631.906	0.68
632.32	0.67
632.734	0.67
633.148	0.66
633.563	0.65
633.977	0.65
634.391	0.65
634.805	0.64
635.219	0.63
635.632	0.63
636.046	0.62
636.46	0.62
636.874	0.61
637.287	0.61
637.701	0.6
638.115	0.59
638.528	0.59
638.941	0.59
639.355	0.58
639.768	0.57
640.181	0.57
640.595	0.57
641.008	0.56
641.421	0.56
641.834	0.55
642.247	0.55
642.66	0.54
643.073	0.54
643.486	0.54
643.898	0.53
644.311	0.53
644.724	0.52
645.136	0.52
645.549	0.52
645.961	0.51
646.374	0.51
646.786	0.51
647.199	0.51
647.611	0.5
648.023	0.5
648.435	0.5
648.847	0.5
649.26	0.5
649.672	0.49
650.084	0.49
650.495	0.49
650.907	0.49
651.319	0.49
651.731	0.48
652.143	0.49
652.554	0.49
652.966	0.48
653.377	0.47
653.789	0.47
654.2	0.47
654.612	0.48
655.023	0.48
655.434	0.45
655.845	0.44
656.256	0.46
656.668	0.49
657.079	0.47
657.49	0.47
657.901	0.47
658.311	0.47
658.722	0.46
659.133	0.46
659.544	0.46
659.954	0.46
660.365	0.46
660.775	0.46
661.186	0.46
661.596	0.45
662.007	0.45
662.417	0.45
662.827	0.45
663.238	0.45
663.648	0.45
664.058	0.45
664.468	0.44
664.878	0.44
665.288	0.44
665.698	0.44
666.108	0.43
666.517	0.43
666.927	0.43
667.337	0.43
667.746	0.42
668.156	0.42
668.565	0.42
668.975	0.42
669.384	0.42
669.794	0.41
670.203	0.41
670.612	0.41
671.021	0.4
671.43	0.4
671.84	0.4
672.249	0.4
672.658	0.39
673.066	0.39
673.475	0.39
673.884	0.39
674.293	0.38
674.702	0.38
675.11	0.38
675.519	0.37
675.927	0.37
676.336	0.37
676.744	0.36
677.152	0.36
677.561	0.36
677.969	0.35
678.377	0.35
678.785	0.35
679.193	0.34
679.601	0.34
680.009	0.33
680.417	0.33
680.825	0.33
681.233	0.33
681.641	0.32
682.048	0.32
682.456	0.32
682.864	0.31
683.271	0.31
683.679	0.3
684.086	0.3
684.493	0.3
684.901	0.3
685.308	0.29
685.715	0.29
686.122	0.29
686.529	0.28
686.936	0.28
687.343	0.28
687.75	0.27
688.157	0.27
688.564	0.27
688.971	0.26
689.378	0.26
689.784	0.26
690.191	0.26
690.597	0.25
691.004	0.25
691.41	0.25
691.817	0.24
692.223	0.24
692.629	0.24
693.035	0.24
693.442	0.23
693.848	0.23
694.254	0.23
694.66	0.23
695.066	0.22
695.471	0.22
695.877	0.22
696.283	0.22
696.689	0.22
697.094	0.21
697.5	0.21
697.906	0.21
698.311	0.21
698.716	0.21
699.122	0.21
699.527	0.21
699.932	0.2
700.338	0.2
700.743	0.2
701.148	0.2
701.553	0.2
701.958	0.2
702.363	0.19
702.768	0.19
703.173	0.19
703.577	0.19
703.982	0.19
704.387	0.19
704.791	0.19
705.196	0.19
705.6	0.19
706.005	0.19
706.409	0.19
706.814	0.19
707.218	0.18
707.622	0.19
708.026	0.18
708.43	0.19
708.834	0.19
709.238	0.18
709.642	0.19
710.046	0.19
710.45	0.18
710.854	0.18
711.257	0.18
711.661	0.18
712.065	0.18
712.468	0.19
712.872	0.18
713.275	0.19
713.679	0.19
714.082	0.18
714.485	0.19
714.888	0.19
715.291	0.19
715.695	0.19
716.098	0.19
716.501	0.19
716.904	0.19
717.306	0.19
717.709	0.19
718.112	0.19
718.515	0.19
718.917	0.19
719.32	0.19
719.723	0.19
720.125	0.19
720.527	0.19
720.93	0.2
721.332	0.2
721.734	0.2
722.137	0.2
722.539	0.2
722.941	0.2
723.343	0.2
723.745	0.2
724.147	0.2
724.549	0.2
724.95	0.2
725.352	0.21
725.754	0.2
726.156	0.2
726.557	0.2
726.959	0.2
727.36	0.2
727.762	0.2
728.163	0.21
728.564	0.21
728.966	0.21
729.367	0.21
729.768	0.21
730.169	0.21
730.57	0.21
730.971	0.21
731.372	0.21
731.773	0.21
732.174	0.21
732.574	0.21
732.975	0.21
733.376	0.21
733.776	0.21
734.177	0.21
734.577	0.21
734.978	0.21
735.378	0.21
735.778	0.21
736.179	0.21
736.579	0.21
736.979	0.2
737.379	0.21
737.779	0.2
738.179	0.2
738.579	0.2
738.979	0.2
739.379	0.2
739.778	0.2
740.178	0.2
740.578	0.2
740.977	0.2
741.377	0.2
741.776	0.2
742.176	0.2
742.575	0.2
742.974	0.2
743.374	0.19
743.773	0.19
744.172	0.19
744.571	0.19
744.97	0.19
745.369	0.19
745.768	0.19
746.167	0.19
746.565	0.19
746.964	0.19
747.363	0.19
747.761	0.18
748.16	0.18
748.559	0.18
748.957	0.18
749.355	0.18
749.754	0.18
750.152	0.18
750.55	0.18
750.948	0.18
751.347	0.18
751.745	0.18
752.143	0.18
752.541	0.17
752.938	0.17
753.336	0.17
753.734	0.17
754.132	0.17
754.529	0.17
754.927	0.17
755.325	0.17
755.722	0.17
756.119	0.17
756.517	0.17
756.914	0.17
757.311	0.16
757.709	0.17
758.106	0.16
758.503	0.16
758.9	0.16
759.297	0.16
759.694	0.16
760.091	0.16
760.488	0.16
760.884	0.16
761.281	0.16
761.678	0.16
762.074	0.16
762.471	0.16
762.867	0.16
763.264	0.16
763.66	0.16
764.056	0.16
764.453	0.16
764.849	0.16
765.245	0.16
765.641	0.16
766.037	0.16
766.433	0.16
766.829	0.16
767.225	0.16
767.621	0.16
768.016	0.16
768.412	0.16
768.808	0.16
769.203	0.16
769.599	0.16
769.994	0.16
770.389	0.16
770.785	0.16
771.18	0.16
771.575	0.16
771.971	0.16
772.366	0.16
772.761	0.16
773.156	0.17
773.551	0.16
773.945	0.17
774.34	0.17
774.735	0.17
775.13	0.17
775.524	0.17
775.919	0.17
776.314	0.17
776.708	0.17
777.103	0.17
777.497	0.17
777.891	0.17
778.285	0.17
778.68	0.17
779.074	0.17
779.468	0.17
779.862	0.17
780.256	0.18
780.65	0.18
781.044	0.18
781.438	0.18
781.831	0.18
782.225	0.18
782.619	0.18
783.012	0.18
783.406	0.18
783.799	0.18
784.193	0.18
784.586	0.18
784.979	0.18
785.372	0.18
785.766	0.18
786.159	0.19
786.552	0.18
786.945	0.18
787.338	0.19
787.731	0.19
788.123	0.19
788.516	0.19
788.909	0.19
789.302	0.19
789.694	0.19
790.087	0.19
790.479	0.19
790.872	0.19
791.264	0.2
791.656	0.2
792.049	0.2
792.441	0.2
792.833	0.2
793.225	0.2
793.617	0.2
794.009	0.2
794.401	0.2
794.793	0.2
795.185	0.2
795.576	0.2
795.968	0.2
796.36	0.2
796.751	0.21
797.143	0.21
797.534	0.21
797.926	0.21
798.317	0.21
798.708	0.21
799.1	0.21
799.491	0.21
799.882	0.21
800.273	0.21
800.664	0.21
801.055	0.21
801.446	0.22
801.837	0.21
802.227	0.22
802.618	0.22
803.009	0.22
803.399	0.22
803.79	0.22
804.18	0.22
804.571	0.22
804.961	0.22
805.351	0.22
805.742	0.22
806.132	0.22
806.522	0.23
806.912	0.23
807.302	0.23
807.692	0.23
808.082	0.23
808.472	0.23
808.862	0.23
809.251	0.23
809.641	0.23
810.031	0.23
810.42	0.23
810.81	0.23
811.199	0.23
811.589	0.23
811.978	0.24
812.367	0.24
812.756	0.24
813.146	0.24
813.535	0.24
813.924	0.24
814.313	0.24
814.702	0.24
815.091	0.24
815.479	0.24
815.868	0.25
816.257	0.24
816.645	0.24
817.034	0.24
817.423	0.24
817.811	0.24
818.199	0.25
818.588	0.25
818.976	0.25
819.364	0.25
819.753	0.25
820.141	0.25
820.529	0.25
820.917	0.25
821.305	0.25
821.693	0.25
822.08	0.25
822.468	0.25
822.856	0.25
823.244	0.25
823.631	0.26
824.019	0.26
824.406	0.26
824.794	0.26
825.181	0.26
825.568	0.26
825.956	0.26
826.343	0.26
826.73	0.26
827.117	0.26
827.504	0.26
827.891	0.26
828.278	0.26
828.665	0.26
829.052	0.26
829.438	0.26
829.825	0.27
830.212	0.27
830.598	0.27
830.985	0.27
831.371	0.27
831.757	0.27
832.144	0.27
832.53	0.27
832.916	0.27
833.302	0.27
833.688	0.27
834.075	0.27
834.461	0.27
834.846	0.27
835.232	0.27
835.618	0.27
836.004	0.27
836.39	0.27
836.775	0.27
837.161	0.28
837.546	0.27
837.932	0.28
838.317	0.28
838.702	0.28
839.088	0.28
839.473	0.28
839.858	0.28
840.243	0.28
840.628	0.28
841.013	0.28
841.398	0.28
841.783	0.28
842.168	0.28
842.553	0.28
842.937	0.28
843.322	0.28
843.707	0.28
844.091	0.28
844.476	0.28
844.86	0.28
845.244	0.28
845.629	0.28
846.013	0.28
846.397	0.28
846.781	0.28
847.165	0.28
847.549	0.29
847.933	0.29
848.317	0.29
848.701	0.28
849.085	0.29
849.468	0.29
849.852	0.29
850.236	0.29
850.619	0.29
851.003	0.29
851.386	0.29
851.769	0.29
852.153	0.29
852.536	0.29
852.919	0.29
853.302	0.29
853.685	0.29
854.068	0.29
854.451	0.29
854.834	0.29
855.217	0.29
855.6	0.29
855.982	0.29
856.365	0.29
856.748	0.29
857.13	0.29
857.513	0.29
857.895	0.29
858.277	0.29
858.66	0.29
859.042	0.29
859.424	0.29
859.806	0.29
860.188	0.29
860.57	0.29
860.952	0.29
861.334	0.29
861.716	0.29
862.098	0.29
862.48	0.29
862.861	0.29
863.243	0.29
863.624	0.29
864.006	0.29
864.387	0.29
864.769	0.29
865.15	0.29
865.531	0.29
865.912	0.29
866.294	0.29
866.675	0.29
867.056	0.29
867.437	0.29
867.818	0.29
868.198	0.29
868.579	0.29
868.96	0.29
869.341	0.3
869.721	0.29
870.102	0.29
870.482	0.29
870.863	0.29
871.243	0.29
871.623	0.29
872.003	0.29
872.384	0.29
872.764	0.29
873.144	0.29
873.524	0.29
873.904	0.29
874.284	0.29
874.664	0.29
875.043	0.29
875.423	0.29
875.803	0.29
876.182	0.29
876.562	0.29
876.941	0.29
877.321	0.29
877.7	0.3
878.079	0.29
878.459	0.29
878.838	0.29
879.217	0.3
879.596	0.29
879.975	0.29
880.354	0.29
880.733	0.29
881.112	0.29
881.491	0.29
881.869	0.29
882.248	0.29
882.627	0.29
883.005	0.29
883.384	0.29
883.762	0.29
884.14	0.29
884.519	0.29
884.897	0.29
885.275	0.29
885.653	0.29
886.031	0.29
886.409	0.29
886.787	0.29
887.165	0.29
887.543	0.29
887.921	0.29
888.298	0.29
888.676	0.29
889.054	0.29
889.431	0.29
889.809	0.29
890.186	0.29
890.563	0.29
890.941	0.29
891.318	0.29
891.695	0.29
892.072	0.29
892.449	0.29
892.826	0.28
893.203	0.29
893.58	0.28
893.957	0.29
894.334	0.28
894.71	0.29
895.087	0.28
895.464	0.28
895.84	0.29
896.217	0.28
896.593	0.28
896.969	0.28
897.346	0.28
897.722	0.28
898.098	0.28
898.474	0.28
898.85	0.28
899.226	0.28
899.602	0.28
899.978	0.28
900.354	0.28
900.73	0.28
901.105	0.28
901.481	0.28
901.857	0.28
902.232	0.28
902.608	0.28
902.983	0.28
903.358	0.28
903.734	0.28
904.109	0.28
904.484	0.28
904.859	0.28
905.234	0.28
905.609	0.28
905.984	0.28
906.359	0.28
906.734	0.28
907.108	0.27
907.483	0.27
907.858	0.27
908.232	0.28
908.607	0.28
908.981	0.27
909.356	0.28
909.73	0.27
910.104	0.27
910.478	0.27
910.853	0.27
911.227	0.27
911.601	0.27
911.975	0.27
912.349	0.27
912.722	0.27
913.096	0.27
913.47	0.27
913.844	0.27
914.217	0.27
914.591	0.27
914.964	0.27
915.338	0.26
915.711	0.26
916.084	0.26
916.458	0.27
916.831	0.27
917.204	0.26
917.577	0.26
917.95	0.26
918.323	0.26
918.696	0.26
919.069	0.26
919.441	0.26
919.814	0.26
920.187	0.26
920.559	0.26
920.932	0.26
921.304	0.26
921.677	0.26
922.049	0.26
922.421	0.26
922.794	0.26
923.166	0.26
923.538	0.26
923.91	0.26
924.282	0.26
924.654	0.26
925.026	0.26
925.398	0.26
925.769	0.25
926.141	0.26
926.513	0.26
926.884	0.26
927.256	0.25
927.627	0.26
927.999	0.26
928.37	0.25
928.741	0.25
929.113	0.25
929.484	0.25
929.855	0.25
930.226	0.25
930.597	0.25
930.968	0.25
931.339	0.25
931.709	0.25
932.08	0.25
932.451	0.25
932.821	0.25
933.192	0.25
933.562	0.25
933.933	0.25
934.303	0.25
934.673	0.25
935.044	0.24
935.414	0.24
935.784	0.24
936.154	0.25
936.524	0.25
936.894	0.24
937.264	0.24
937.634	0.24
938.004	0.25
938.373	0.24
938.743	0.24
939.113	0.24
939.482	0.24
939.852	0.24
940.221	0.24
940.59	0.24
940.96	0.24
941.329	0.24
941.698	0.24
942.067	0.24
942.436	0.24
942.805	0.24
943.174	0.24
943.543	0.24
943.912	0.24
944.28	0.23
944.649	0.23
945.018	0.24
945.386	0.23
945.755	0.24
946.123	0.24
946.492	0.23
946.86	0.24
947.228	0.24
947.596	0.24
947.965	0.23
948.333	0.23
948.701	0.23
949.069	0.23
949.437	0.23
949.804	0.23
950.172	0.23
950.54	0.23
950.908	0.23
951.275	0.22
951.643	0.23
952.01	0.22
952.378	0.23
952.745	0.22
953.112	0.23
953.479	0.22
953.847	0.22
954.214	0.22
954.581	0.22
954.948	0.22
955.315	0.22
955.682	0.22
956.048	0.22
956.415	0.22
956.782	0.22
957.148	0.22
957.515	0.22
957.881	0.22
958.248	0.22
958.614	0.22
958.981	0.22
959.347	0.22
959.713	0.22
960.079	0.21
960.445	0.22
960.811	0.21
961.177	0.22
961.543	0.22
961.909	0.21
962.275	0.21
962.641	0.21
963.006	0.21
963.372	0.21
963.737	0.21
964.103	0.21
964.468	0.21
964.834	0.21
965.199	0.21
965.564	0.2
965.929	0.21
966.294	0.21
966.659	0.21
967.024	0.21
967.389	0.21
967.754	0.21
968.119	0.21
968.484	0.2
968.848	0.21
969.213	0.2
969.578	0.2
969.942	0.2
970.307	0.2
970.671	0.2
971.035	0.2
971.399	0.2
971.764	0.2
972.128	0.2
972.492	0.2
972.856	0.2
973.22	0.2
973.584	0.2
973.948	0.2
974.311	0.2
974.675	0.2
975.039	0.2
975.402	0.2
975.766	0.2
976.129	0.2
976.493	0.19
976.856	0.19
977.219	0.19
977.582	0.2
977.946	0.19
978.309	0.19
978.672	0.19
979.035	0.19
979.398	0.19
979.761	0.19
980.123	0.19
980.486	0.19
980.849	0.19
981.211	0.19
981.574	0.19
981.936	0.19
982.299	0.19
982.661	0.19
983.023	0.19
983.386	0.18
983.748	0.19
984.11	0.19
984.472	0.19
984.834	0.18
985.196	0.19
985.558	0.19
985.92	0.18
986.281	0.19
986.643	0.18
987.005	0.18
987.366	0.18
987.728	0.19
988.089	0.18
988.451	0.18
988.812	0.18
989.173	0.18
989.534	0.18
989.895	0.18
990.257	0.19
990.618	0.18
990.979	0.18
991.339	0.18
991.7	0.18
992.061	0.18
992.422	0.18
992.782	0.18
993.143	0.18
993.503	0.18
993.864	0.18
994.224	0.17
994.585	0.17
994.945	0.17
995.305	0.17
995.665	0.17
996.025	0.17
996.385	0.18
996.745	0.17
997.105	0.18
997.465	0.17
997.825	0.17
998.185	0.17
998.544	0.17
998.904	0.17
999.263	0.17
999.623	0.17
999.982	0.17
1000.342	0.17
1000.701	0.17
1001.06	0.17
1001.419	0.17
1001.778	0.17
1002.138	0.17
1002.497	0.17
1002.855	0.17
1003.214	0.17
1003.573	0.17
1003.932	0.17
1004.29	0.16
1004.649	0.17
1005.008	0.17
1005.366	0.17
1005.725	0.17
1006.083	0.16
1006.441	0.16
1006.799	0.16
1007.158	0.16
1007.516	0.16
1007.874	0.16
1008.232	0.16
1008.59	0.16
1008.948	0.16
1009.305	0.16
1009.663	0.16
1010.021	0.16
1010.379	0.16
1010.736	0.16
1011.094	0.16
1011.451	0.16
1011.808	0.16
1012.166	0.16
1012.523	0.16
1012.88	0.16
1013.237	0.16
1013.594	0.16
1013.951	0.16
1014.308	0.16
1014.665	0.16
1015.022	0.16
1015.379	0.15
1015.735	0.15
1016.092	0.15
1016.449	0.16
1016.805	0.16
1017.162	0.15
1017.518	0.15
1017.874	0.15
1018.231	0.15
1018.587	0.15
1018.943	0.16
1019.299	0.15
1019.655	0.15
1020.011	0.15
1020.367	0.15
1020.723	0.15
1021.078	0.15
1021.434	0.15
1021.79	0.15
1022.145	0.15
1022.501	0.15
1022.856	0.15
1023.212	0.14
1023.567	0.15
1023.922	0.16
1024.278	0.15
1024.633	0.15
1024.988	0.15
1025.343	0.15
1025.698	0.16
1026.053	0.15
1026.408	0.14
1026.762	0.15
1027.117	0.14
1027.472	0.15
1027.826	0.15
1028.181	0.15
1028.535	0.15
1028.89	0.14
1029.244	0.14
1029.598	0.15
1029.952	0.14
1030.307	0.15
1030.661	0.15
1031.015	0.14
1031.369	0.14
1031.723	0.15
1032.076	0.14
