Data from Rubpy_EV_EDTA_TU(3000)_Blank_Blue_Flow_Absorbance__1438__11-19-51-579.txt Node

Date: Mon Aug 03 11:19:51 BST 2026
User: fpm-admin
Spectrometer: SR600986
Trigger mode: 0
Integration Time (sec): 8.000000E-3
Scans to average: 3
Nonlinearity correction enabled: true
Boxcar width: 0
Storing dark spectrum: false
XAxis mode: Wavelengths
Number of Pixels in Spectrum: 2048
>>>>>Begin Spectral Data<<<<<
188.613	0.23
189.078	0.21
189.542	0.2
190.007	0.21
190.472	0.18
190.936	0.19
191.401	0.2
191.865	0.2
192.33	0.19
192.794	0.22
193.258	0.2
193.723	0.21
194.187	0.21
194.651	0.2
195.115	0.19
195.579	0.21
196.043	0.21
196.507	0.2
196.971	0.2
197.435	0.21
197.899	0.2
198.363	0.21
198.827	0.21
199.29	0.19
199.754	0.21
200.218	0.21
200.681	0.19
201.145	0.21
201.608	0.2
202.072	0.2
202.535	0.18
202.998	0.22
203.462	0.21
203.925	0.19
204.388	0.21
204.851	0.19
205.314	0.22
205.777	0.2
206.24	0.2
206.703	0.2
207.166	0.21
207.629	0.19
208.092	0.2
208.555	0.2
209.018	0.21
209.48	0.21
209.943	0.2
210.406	0.21
210.868	0.18
211.331	0.2
211.793	0.19
212.256	0.2
212.718	0.19
213.18	0.2
213.643	0.19
214.105	0.2
214.567	0.22
215.029	0.23
215.491	0.19
215.953	0.21
216.415	0.2
216.877	0.19
217.339	0.19
217.801	0.2
218.263	0.2
218.725	0.2
219.186	0.2
219.648	0.19
220.11	0.2
220.571	0.2
221.033	0.19
221.494	0.2
221.956	0.21
222.417	0.2
222.878	0.19
223.34	0.18
223.801	0.17
224.262	0.19
224.723	0.19
225.185	0.19
225.646	0.2
226.107	0.19
226.568	0.22
227.029	0.23
227.489	0.18
227.95	0.2
228.411	0.19
228.872	0.21
229.332	0.18
229.793	0.2
230.254	0.22
230.714	0.18
231.175	0.21
231.635	0.19
232.096	0.18
232.556	0.2
233.016	0.2
233.477	0.2
233.937	0.18
234.397	0.21
234.857	0.2
235.317	0.2
235.777	0.17
236.237	0.22
236.697	0.2
237.157	0.22
237.617	0.21
238.077	0.23
238.537	0.2
238.996	0.2
239.456	0.21
239.916	0.21
240.375	0.22
240.835	0.18
241.294	0.19
241.754	0.2
242.213	0.18
242.672	0.21
243.132	0.19
243.591	0.21
244.05	0.19
244.509	0.2
244.968	0.2
245.427	0.21
245.886	0.2
246.345	0.19
246.804	0.18
247.263	0.21
247.722	0.21
248.181	0.2
248.639	0.2
249.098	0.2
249.557	0.2
250.015	0.2
250.474	0.21
250.932	0.21
251.391	0.2
251.849	0.2
252.308	0.2
252.766	0.18
253.224	0.18
253.682	0.2
254.14	0.2
254.599	0.21
255.057	0.21
255.515	0.19
255.973	0.21
256.431	0.19
256.888	0.21
257.346	0.19
257.804	0.19
258.262	0.21
258.719	0.19
259.177	0.17
259.635	0.2
260.092	0.21
260.55	0.21
261.007	0.21
261.465	0.18
261.922	0.19
262.379	0.19
262.836	0.19
263.294	0.2
263.751	0.21
264.208	0.18
264.665	0.19
265.122	0.2
265.579	0.21
266.036	0.23
266.493	0.19
266.95	0.2
267.406	0.22
267.863	0.19
268.32	0.2
268.777	0.2
269.233	0.21
269.69	0.21
270.146	0.19
270.603	0.2
271.059	0.2
271.515	0.2
271.972	0.22
272.428	0.22
272.884	0.24
273.34	0.19
273.796	0.19
274.253	0.22
274.709	0.21
275.165	0.2
275.62	0.19
276.076	0.22
276.532	0.2
276.988	0.19
277.444	0.18
277.899	0.2
278.355	0.22
278.811	0.2
279.266	0.2
279.722	0.21
280.177	0.2
280.633	0.2
281.088	0.2
281.543	0.2
281.998	0.18
282.454	0.2
282.909	0.2
283.364	0.22
283.819	0.19
284.274	0.21
284.729	0.19
285.184	0.19
285.639	0.21
286.094	0.21
286.548	0.21
287.003	0.2
287.458	0.22
287.913	0.22
288.367	0.21
288.822	0.2
289.276	0.19
289.731	0.2
290.185	0.2
290.639	0.21
291.094	0.21
291.548	0.23
292.002	0.19
292.456	0.2
292.91	0.21
293.365	0.21
293.819	0.2
294.273	0.23
294.726	0.21
295.18	0.2
295.634	0.21
296.088	0.21
296.542	0.21
296.995	0.2
297.449	0.24
297.903	0.21
298.356	0.21
298.81	0.21
299.263	0.19
299.716	0.21
300.17	0.2
300.623	0.23
301.076	0.22
301.53	0.21
301.983	0.21
302.436	0.2
302.889	0.22
303.342	0.23
303.795	0.22
304.248	0.2
304.701	0.21
305.153	0.23
305.606	0.22
306.059	0.21
306.512	0.22
306.964	0.23
307.417	0.23
307.869	0.24
308.322	0.23
308.774	0.23
309.227	0.23
309.679	0.23
310.131	0.24
310.584	0.25
311.036	0.25
311.488	0.26
311.94	0.22
312.392	0.27
312.844	0.26
313.296	0.26
313.748	0.27
314.2	0.27
314.652	0.27
315.103	0.28
315.555	0.26
316.007	0.29
316.458	0.29
316.91	0.28
317.361	0.28
317.813	0.3
318.264	0.29
318.716	0.3
319.167	0.31
319.618	0.3
320.07	0.31
320.521	0.32
320.972	0.3
321.423	0.31
321.874	0.32
322.325	0.31
322.776	0.32
323.227	0.33
323.678	0.34
324.128	0.34
324.579	0.35
325.03	0.35
325.48	0.35
325.931	0.35
326.382	0.36
326.832	0.37
327.283	0.38
327.733	0.38
328.183	0.39
328.634	0.4
329.084	0.4
329.534	0.42
329.984	0.42
330.434	0.43
330.884	0.43
331.334	0.44
331.784	0.45
332.234	0.46
332.684	0.46
333.134	0.48
333.584	0.48
334.034	0.49
334.483	0.49
334.933	0.5
335.382	0.52
335.832	0.52
336.281	0.54
336.731	0.54
337.18	0.56
337.63	0.56
338.079	0.58
338.528	0.59
338.977	0.6
339.426	0.6
339.876	0.61
340.325	0.63
340.774	0.63
341.223	0.64
341.671	0.66
342.12	0.67
342.569	0.67
343.018	0.68
343.467	0.7
343.915	0.71
344.364	0.73
344.812	0.73
345.261	0.74
345.709	0.75
346.158	0.76
346.606	0.78
347.054	0.78
347.503	0.8
347.951	0.81
348.399	0.82
348.847	0.83
349.295	0.85
349.743	0.86
350.191	0.88
350.639	0.89
351.087	0.91
351.535	0.92
351.983	0.94
352.43	0.95
352.878	0.96
353.326	0.97
353.773	0.98
354.221	1.01
354.668	1.01
355.116	1.02
355.563	1.04
356.01	1.06
356.458	1.07
356.905	1.08
357.352	1.1
357.799	1.12
358.246	1.13
358.693	1.13
359.14	1.15
359.587	1.16
360.034	1.17
360.481	1.18
360.928	1.19
361.375	1.21
361.821	1.21
362.268	1.22
362.714	1.23
363.161	1.24
363.608	1.26
364.054	1.26
364.5	1.27
364.947	1.26
365.393	1.27
365.839	1.28
366.285	1.28
366.732	1.28
367.178	1.3
367.624	1.29
368.07	1.28
368.516	1.28
368.962	1.27
369.408	1.26
369.853	1.25
370.299	1.24
370.745	1.22
371.19	1.22
371.636	1.21
372.082	1.21
372.527	1.19
372.973	1.18
373.418	1.17
373.863	1.14
374.309	1.15
374.754	1.14
375.199	1.13
375.644	1.12
376.09	1.12
376.535	1.12
376.98	1.12
377.425	1.12
377.87	1.1
378.314	1.11
378.759	1.11
379.204	1.12
379.649	1.12
380.093	1.12
380.538	1.13
380.983	1.15
381.427	1.15
381.872	1.16
382.316	1.17
382.76	1.19
383.205	1.18
383.649	1.18
384.093	1.19
384.537	1.18
384.982	1.19
385.426	1.18
385.87	1.17
386.314	1.17
386.758	1.15
387.201	1.14
387.645	1.14
388.089	1.13
388.533	1.12
388.976	1.13
389.42	1.12
389.864	1.13
390.307	1.15
390.751	1.15
391.194	1.18
391.638	1.18
392.081	1.22
392.524	1.23
392.967	1.26
393.411	1.28
393.854	1.28
394.297	1.3
394.74	1.33
395.183	1.32
395.626	1.32
396.069	1.31
396.512	1.3
396.954	1.28
397.397	1.26
397.84	1.22
398.282	1.21
398.725	1.16
399.168	1.11
399.61	1.06
400.052	1.01
400.495	0.95
400.937	0.89
401.38	0.83
401.822	0.78
402.264	0.73
402.706	0.68
403.148	0.63
403.59	0.6
404.032	0.56
404.474	0.51
404.916	0.49
405.358	0.47
405.8	0.43
406.241	0.41
406.683	0.38
407.125	0.36
407.566	0.34
408.008	0.33
408.449	0.31
408.891	0.3
409.332	0.29
409.774	0.27
410.215	0.26
410.656	0.27
411.097	0.26
411.539	0.23
411.98	0.23
412.421	0.23
412.862	0.22
413.303	0.22
413.744	0.22
414.184	0.21
414.625	0.2
415.066	0.2
415.507	0.2
415.947	0.2
416.388	0.2
416.828	0.18
417.269	0.19
417.709	0.19
418.15	0.19
418.59	0.18
419.03	0.18
419.471	0.17
419.911	0.17
420.351	0.18
420.791	0.18
421.231	0.18
421.671	0.18
422.111	0.18
422.551	0.17
422.991	0.19
423.431	0.16
423.87	0.17
424.31	0.18
424.75	0.16
425.189	0.17
425.629	0.17
426.068	0.17
426.508	0.17
426.947	0.17
427.386	0.16
427.826	0.15
428.265	0.16
428.704	0.18
429.143	0.17
429.582	0.17
430.021	0.17
430.46	0.17
430.899	0.18
431.338	0.18
431.777	0.17
432.216	0.16
432.655	0.19
433.093	0.18
433.532	0.17
433.971	0.15
434.409	0.18
434.848	0.18
435.286	0.16
435.724	0.18
436.163	0.17
436.601	0.18
437.039	0.17
437.477	0.19
437.916	0.18
438.354	0.19
438.792	0.17
439.23	0.19
439.668	0.18
440.105	0.18
440.543	0.17
440.981	0.17
441.419	0.18
441.856	0.19
442.294	0.18
442.732	0.17
443.169	0.19
443.607	0.18
444.044	0.19
444.481	0.2
444.919	0.18
445.356	0.19
445.793	0.18
446.23	0.19
446.668	0.17
447.105	0.19
447.542	0.17
447.979	0.2
448.416	0.2
448.852	0.19
449.289	0.2
449.726	0.19
450.163	0.21
450.599	0.2
451.036	0.19
451.473	0.2
451.909	0.2
452.346	0.19
452.782	0.2
453.218	0.18
453.655	0.19
454.091	0.19
454.527	0.22
454.963	0.21
455.399	0.21
455.835	0.2
456.271	0.21
456.707	0.2
457.143	0.21
457.579	0.2
458.015	0.21
458.451	0.21
458.886	0.2
459.322	0.22
459.758	0.21
460.193	0.21
460.629	0.2
461.064	0.22
461.5	0.21
461.935	0.2
462.37	0.22
462.805	0.2
463.241	0.23
463.676	0.22
464.111	0.23
464.546	0.23
464.981	0.21
465.416	0.23
465.851	0.22
466.286	0.22
466.72	0.24
467.155	0.22
467.59	0.23
468.024	0.24
468.459	0.23
468.893	0.24
469.328	0.25
469.762	0.24
470.197	0.24
470.631	0.24
471.065	0.24
471.5	0.24
471.934	0.23
472.368	0.24
472.802	0.25
473.236	0.26
473.67	0.25
474.104	0.26
474.538	0.26
474.972	0.26
475.405	0.26
475.839	0.26
476.273	0.27
476.706	0.27
477.14	0.27
477.573	0.28
478.007	0.28
478.44	0.28
478.874	0.28
479.307	0.29
479.74	0.29
480.173	0.29
480.606	0.29
481.04	0.29
481.473	0.29
481.906	0.3
482.339	0.31
482.771	0.3
483.204	0.31
483.637	0.31
484.07	0.31
484.502	0.32
484.935	0.32
485.368	0.32
485.8	0.33
486.233	0.33
486.665	0.32
487.098	0.33
487.53	0.34
487.962	0.34
488.394	0.33
488.827	0.34
489.259	0.34
489.691	0.35
490.123	0.35
490.555	0.36
490.987	0.36
491.418	0.36
491.85	0.36
492.282	0.36
492.714	0.37
493.145	0.37
493.577	0.37
494.009	0.37
494.44	0.38
494.872	0.38
495.303	0.38
495.734	0.38
496.166	0.39
496.597	0.39
497.028	0.4
497.459	0.39
497.89	0.4
498.321	0.4
498.752	0.4
499.183	0.41
499.614	0.41
500.045	0.41
500.476	0.41
500.906	0.42
501.337	0.42
501.768	0.43
502.198	0.43
502.629	0.43
503.059	0.44
503.49	0.44
503.92	0.44
504.35	0.44
504.781	0.44
505.211	0.45
505.641	0.45
506.071	0.46
506.501	0.46
506.931	0.46
507.361	0.46
507.791	0.47
508.221	0.47
508.651	0.47
509.081	0.48
509.51	0.48
509.94	0.48
510.37	0.48
510.799	0.49
511.229	0.49
511.658	0.49
512.087	0.49
512.517	0.5
512.946	0.5
513.375	0.5
513.804	0.51
514.234	0.51
514.663	0.5
515.092	0.51
515.521	0.51
515.95	0.51
516.378	0.52
516.807	0.52
517.236	0.52
517.665	0.52
518.093	0.53
518.522	0.52
518.951	0.53
519.379	0.53
519.807	0.54
520.236	0.54
520.664	0.54
521.093	0.54
521.521	0.55
521.949	0.54
522.377	0.55
522.805	0.55
523.233	0.55
523.661	0.56
524.089	0.56
524.517	0.56
524.945	0.56
525.373	0.57
525.8	0.57
526.228	0.57
526.656	0.57
527.083	0.57
527.511	0.57
527.938	0.58
528.366	0.57
528.793	0.58
529.22	0.58
529.648	0.59
530.075	0.59
530.502	0.59
530.929	0.59
531.356	0.59
531.783	0.6
532.21	0.59
532.637	0.6
533.064	0.6
533.49	0.6
533.917	0.6
534.344	0.6
534.771	0.6
535.197	0.6
535.624	0.61
536.05	0.62
536.477	0.61
536.903	0.61
537.329	0.62
537.755	0.62
538.182	0.62
538.608	0.62
539.034	0.62
539.46	0.63
539.886	0.63
540.312	0.63
540.738	0.63
541.164	0.63
541.589	0.63
542.015	0.64
542.441	0.64
542.867	0.64
543.292	0.64
543.718	0.64
544.143	0.65
544.569	0.65
544.994	0.66
545.419	0.65
545.845	0.66
546.27	0.65
546.695	0.66
547.12	0.66
547.545	0.66
547.97	0.66
548.395	0.66
548.82	0.66
549.245	0.66
549.67	0.66
550.094	0.67
550.519	0.66
550.944	0.67
551.368	0.67
551.793	0.67
552.217	0.67
552.642	0.67
553.066	0.67
553.49	0.67
553.915	0.67
554.339	0.67
554.763	0.68
555.187	0.67
555.611	0.67
556.035	0.67
556.459	0.67
556.883	0.67
557.307	0.67
557.731	0.67
558.154	0.67
558.578	0.67
559.002	0.68
559.425	0.68
559.849	0.67
560.272	0.67
560.696	0.67
561.119	0.67
561.543	0.67
561.966	0.67
562.389	0.67
562.812	0.67
563.235	0.67
563.658	0.67
564.081	0.67
564.504	0.67
564.927	0.67
565.35	0.67
565.773	0.67
566.196	0.67
566.618	0.67
567.041	0.67
567.463	0.67
567.886	0.67
568.309	0.67
568.731	0.66
569.153	0.66
569.576	0.66
569.998	0.66
570.42	0.66
570.842	0.66
571.264	0.66
571.686	0.66
572.108	0.66
572.53	0.66
572.952	0.66
573.374	0.66
573.796	0.65
574.218	0.66
574.639	0.66
575.061	0.65
575.483	0.65
575.904	0.65
576.326	0.65
576.747	0.65
577.168	0.65
577.59	0.65
578.011	0.65
578.432	0.65
578.853	0.65
579.274	0.65
579.695	0.65
580.116	0.65
580.537	0.65
580.958	0.65
581.379	0.65
581.8	0.65
582.221	0.65
582.641	0.65
583.062	0.65
583.482	0.65
583.903	0.65
584.323	0.65
584.744	0.65
585.164	0.65
585.584	0.65
586.005	0.65
586.425	0.65
586.845	0.65
587.265	0.65
587.685	0.65
588.105	0.66
588.525	0.66
588.945	0.66
589.365	0.66
589.785	0.66
590.204	0.66
590.624	0.66
591.044	0.66
591.463	0.67
591.883	0.67
592.302	0.67
592.721	0.67
593.141	0.67
593.56	0.67
593.979	0.68
594.399	0.67
594.818	0.67
595.237	0.68
595.656	0.68
596.075	0.68
596.494	0.68
596.913	0.68
597.331	0.68
597.75	0.68
598.169	0.68
598.587	0.69
599.006	0.68
599.425	0.68
599.843	0.68
600.262	0.68
600.68	0.68
601.098	0.68
601.517	0.68
601.935	0.68
602.353	0.68
602.771	0.68
603.189	0.68
603.607	0.68
604.025	0.68
604.443	0.67
604.861	0.67
605.279	0.67
605.696	0.67
606.114	0.66
606.532	0.66
606.949	0.66
607.367	0.66
607.784	0.66
608.202	0.65
608.619	0.65
609.036	0.65
609.454	0.65
609.871	0.64
610.288	0.64
610.705	0.64
611.122	0.64
611.539	0.64
611.956	0.63
612.373	0.63
612.79	0.63
613.207	0.63
613.623	0.62
614.04	0.62
614.457	0.62
614.873	0.62
615.29	0.61
615.706	0.61
616.122	0.61
616.539	0.6
616.955	0.6
617.371	0.6
617.788	0.6
618.204	0.59
618.62	0.59
619.036	0.59
619.452	0.59
619.868	0.58
620.284	0.58
620.699	0.58
621.115	0.58
621.531	0.57
621.946	0.57
622.362	0.57
622.778	0.56
623.193	0.56
623.608	0.56
624.024	0.55
624.439	0.55
624.854	0.55
625.27	0.54
625.685	0.54
626.1	0.54
626.515	0.53
626.93	0.53
627.345	0.53
627.76	0.53
628.175	0.52
628.589	0.52
629.004	0.51
629.419	0.51
629.833	0.5
630.248	0.5
630.663	0.5
631.077	0.49
631.491	0.49
631.906	0.48
632.32	0.48
632.734	0.47
633.148	0.47
633.563	0.47
633.977	0.46
634.391	0.46
634.805	0.45
635.219	0.45
635.632	0.44
636.046	0.44
636.46	0.44
636.874	0.43
637.287	0.43
637.701	0.43
638.115	0.42
638.528	0.42
638.941	0.41
639.355	0.41
639.768	0.41
640.181	0.4
640.595	0.4
641.008	0.4
641.421	0.39
641.834	0.39
642.247	0.39
642.66	0.38
643.073	0.38
643.486	0.38
643.898	0.37
644.311	0.38
644.724	0.37
645.136	0.37
645.549	0.37
645.961	0.37
646.374	0.36
646.786	0.36
647.199	0.36
647.611	0.36
648.023	0.36
648.435	0.36
648.847	0.36
649.26	0.35
649.672	0.35
650.084	0.35
650.495	0.35
650.907	0.35
651.319	0.35
651.731	0.34
652.143	0.35
652.554	0.34
652.966	0.34
653.377	0.34
653.789	0.34
654.2	0.34
654.612	0.34
655.023	0.34
655.434	0.31
655.845	0.3
656.256	0.32
656.668	0.35
657.079	0.33
657.49	0.33
657.901	0.33
658.311	0.33
658.722	0.33
659.133	0.33
659.544	0.33
659.954	0.33
660.365	0.33
660.775	0.33
661.186	0.33
661.596	0.33
662.007	0.33
662.417	0.32
662.827	0.32
663.238	0.32
663.648	0.32
664.058	0.32
664.468	0.32
664.878	0.31
665.288	0.32
665.698	0.31
666.108	0.31
666.517	0.31
666.927	0.31
667.337	0.31
667.746	0.31
668.156	0.31
668.565	0.3
668.975	0.3
669.384	0.3
669.794	0.3
670.203	0.3
670.612	0.29
671.021	0.29
671.43	0.29
671.84	0.29
672.249	0.28
672.658	0.28
673.066	0.28
673.475	0.28
673.884	0.28
674.293	0.28
674.702	0.27
675.11	0.27
675.519	0.27
675.927	0.27
676.336	0.27
676.744	0.26
677.152	0.26
677.561	0.26
677.969	0.25
678.377	0.25
678.785	0.25
679.193	0.24
679.601	0.25
680.009	0.24
680.417	0.24
680.825	0.24
681.233	0.23
681.641	0.23
682.048	0.23
682.456	0.23
682.864	0.22
683.271	0.22
683.679	0.22
684.086	0.22
684.493	0.21
684.901	0.21
685.308	0.21
685.715	0.21
686.122	0.2
686.529	0.2
686.936	0.2
687.343	0.2
687.75	0.19
688.157	0.19
688.564	0.19
688.971	0.19
689.378	0.19
689.784	0.18
690.191	0.18
690.597	0.18
691.004	0.18
691.41	0.17
691.817	0.17
692.223	0.17
692.629	0.17
693.035	0.17
693.442	0.17
693.848	0.16
694.254	0.16
694.66	0.16
695.066	0.16
695.471	0.16
695.877	0.16
696.283	0.15
696.689	0.15
697.094	0.15
697.5	0.15
697.906	0.15
698.311	0.15
698.716	0.15
699.122	0.15
699.527	0.14
699.932	0.14
700.338	0.14
700.743	0.14
701.148	0.14
701.553	0.14
701.958	0.14
702.363	0.14
702.768	0.14
703.173	0.14
703.577	0.13
703.982	0.13
704.387	0.14
704.791	0.13
705.196	0.13
705.6	0.13
706.005	0.13
706.409	0.13
706.814	0.13
707.218	0.13
707.622	0.13
708.026	0.13
708.43	0.13
708.834	0.13
709.238	0.13
709.642	0.13
710.046	0.13
710.45	0.13
710.854	0.13
711.257	0.13
711.661	0.13
712.065	0.13
712.468	0.13
712.872	0.13
713.275	0.13
713.679	0.13
714.082	0.13
714.485	0.13
714.888	0.13
715.291	0.13
715.695	0.13
716.098	0.13
716.501	0.13
716.904	0.13
717.306	0.13
717.709	0.13
718.112	0.13
718.515	0.13
718.917	0.13
719.32	0.13
719.723	0.13
720.125	0.14
720.527	0.14
720.93	0.14
721.332	0.14
721.734	0.14
722.137	0.14
722.539	0.14
722.941	0.14
723.343	0.14
723.745	0.14
724.147	0.14
724.549	0.14
724.95	0.14
725.352	0.14
725.754	0.14
726.156	0.14
726.557	0.14
726.959	0.14
727.36	0.14
727.762	0.14
728.163	0.14
728.564	0.14
728.966	0.14
729.367	0.14
729.768	0.15
730.169	0.14
730.57	0.14
730.971	0.14
731.372	0.14
731.773	0.14
732.174	0.14
732.574	0.14
732.975	0.14
733.376	0.15
733.776	0.14
734.177	0.14
734.577	0.14
734.978	0.14
735.378	0.14
735.778	0.14
736.179	0.14
736.579	0.14
736.979	0.14
737.379	0.14
737.779	0.14
738.179	0.14
738.579	0.14
738.979	0.14
739.379	0.14
739.778	0.14
740.178	0.14
740.578	0.14
740.977	0.14
741.377	0.13
741.776	0.13
742.176	0.14
742.575	0.13
742.974	0.13
743.374	0.13
743.773	0.13
744.172	0.13
744.571	0.13
744.97	0.13
745.369	0.13
745.768	0.13
746.167	0.13
746.565	0.13
746.964	0.13
747.363	0.12
747.761	0.12
748.16	0.12
748.559	0.12
748.957	0.12
749.355	0.12
749.754	0.12
750.152	0.12
750.55	0.12
750.948	0.12
751.347	0.12
751.745	0.12
752.143	0.11
752.541	0.11
752.938	0.11
753.336	0.11
753.734	0.11
754.132	0.11
754.529	0.11
754.927	0.11
755.325	0.11
755.722	0.11
756.119	0.11
756.517	0.11
756.914	0.1
757.311	0.1
757.709	0.11
758.106	0.1
758.503	0.1
758.9	0.1
759.297	0.1
759.694	0.1
760.091	0.1
760.488	0.1
760.884	0.1
761.281	0.1
761.678	0.1
762.074	0.1
762.471	0.1
762.867	0.1
763.264	0.1
763.66	0.1
764.056	0.1
764.453	0.1
764.849	0.1
765.245	0.1
765.641	0.1
766.037	0.1
766.433	0.1
766.829	0.1
767.225	0.1
767.621	0.1
768.016	0.1
768.412	0.1
768.808	0.1
769.203	0.1
769.599	0.1
769.994	0.1
770.389	0.1
770.785	0.1
771.18	0.1
771.575	0.1
771.971	0.1
772.366	0.1
772.761	0.1
773.156	0.1
773.551	0.1
773.945	0.1
774.34	0.1
774.735	0.1
775.13	0.1
775.524	0.1
775.919	0.1
776.314	0.1
776.708	0.1
777.103	0.1
777.497	0.1
777.891	0.1
778.285	0.1
778.68	0.1
779.074	0.1
779.468	0.1
779.862	0.1
780.256	0.1
780.65	0.11
781.044	0.1
781.438	0.1
781.831	0.1
782.225	0.11
782.619	0.11
783.012	0.11
783.406	0.1
783.799	0.11
784.193	0.11
784.586	0.11
784.979	0.11
785.372	0.11
785.766	0.11
786.159	0.11
786.552	0.11
786.945	0.11
787.338	0.11
787.731	0.11
788.123	0.11
788.516	0.11
788.909	0.11
789.302	0.11
789.694	0.11
790.087	0.11
790.479	0.11
790.872	0.11
791.264	0.11
791.656	0.12
792.049	0.11
792.441	0.12
792.833	0.11
793.225	0.11
793.617	0.12
794.009	0.12
794.401	0.12
794.793	0.12
795.185	0.12
795.576	0.12
795.968	0.12
796.36	0.12
796.751	0.12
797.143	0.12
797.534	0.12
797.926	0.12
798.317	0.12
798.708	0.12
799.1	0.12
799.491	0.12
799.882	0.12
800.273	0.12
800.664	0.12
801.055	0.12
801.446	0.13
801.837	0.12
802.227	0.13
802.618	0.13
803.009	0.13
803.399	0.13
803.79	0.13
804.18	0.13
804.571	0.13
804.961	0.13
805.351	0.13
805.742	0.13
806.132	0.13
806.522	0.13
806.912	0.13
807.302	0.13
807.692	0.13
808.082	0.13
808.472	0.13
808.862	0.13
809.251	0.13
809.641	0.14
810.031	0.14
810.42	0.13
810.81	0.14
811.199	0.14
811.589	0.14
811.978	0.14
812.367	0.14
812.756	0.14
813.146	0.14
813.535	0.14
813.924	0.14
814.313	0.14
814.702	0.14
815.091	0.14
815.479	0.14
815.868	0.14
816.257	0.14
816.645	0.14
817.034	0.14
817.423	0.14
817.811	0.14
818.199	0.15
818.588	0.14
818.976	0.14
819.364	0.14
819.753	0.14
820.141	0.15
820.529	0.14
820.917	0.14
821.305	0.14
821.693	0.15
822.08	0.15
822.468	0.15
822.856	0.15
823.244	0.15
823.631	0.15
824.019	0.15
824.406	0.15
824.794	0.15
825.181	0.15
825.568	0.15
825.956	0.15
826.343	0.15
826.73	0.15
827.117	0.15
827.504	0.15
827.891	0.15
828.278	0.15
828.665	0.15
829.052	0.15
829.438	0.15
829.825	0.15
830.212	0.15
830.598	0.16
830.985	0.15
831.371	0.16
831.757	0.16
832.144	0.15
832.53	0.16
832.916	0.16
833.302	0.16
833.688	0.16
834.075	0.16
834.461	0.16
834.846	0.16
835.232	0.16
835.618	0.16
836.004	0.16
836.39	0.16
836.775	0.16
837.161	0.16
837.546	0.16
837.932	0.16
838.317	0.16
838.702	0.16
839.088	0.16
839.473	0.16
839.858	0.16
840.243	0.16
840.628	0.16
841.013	0.16
841.398	0.16
841.783	0.16
842.168	0.16
842.553	0.16
842.937	0.16
843.322	0.16
843.707	0.16
844.091	0.16
844.476	0.16
844.86	0.16
845.244	0.16
845.629	0.16
846.013	0.16
846.397	0.16
846.781	0.16
847.165	0.17
847.549	0.16
847.933	0.17
848.317	0.16
848.701	0.16
849.085	0.17
849.468	0.17
849.852	0.17
850.236	0.17
850.619	0.17
851.003	0.17
851.386	0.17
851.769	0.17
852.153	0.17
852.536	0.17
852.919	0.17
853.302	0.17
853.685	0.16
854.068	0.17
854.451	0.17
854.834	0.17
855.217	0.17
855.6	0.17
855.982	0.17
856.365	0.17
856.748	0.17
857.13	0.17
857.513	0.17
857.895	0.17
858.277	0.17
858.66	0.17
859.042	0.16
859.424	0.17
859.806	0.17
860.188	0.17
860.57	0.17
860.952	0.17
861.334	0.17
861.716	0.17
862.098	0.17
862.48	0.17
862.861	0.17
863.243	0.17
863.624	0.17
864.006	0.17
864.387	0.17
864.769	0.17
865.15	0.17
865.531	0.17
865.912	0.17
866.294	0.17
866.675	0.17
867.056	0.17
867.437	0.17
867.818	0.17
868.198	0.17
868.579	0.17
868.96	0.17
869.341	0.17
869.721	0.17
870.102	0.17
870.482	0.17
870.863	0.17
871.243	0.17
871.623	0.17
872.003	0.17
872.384	0.17
872.764	0.17
873.144	0.17
873.524	0.17
873.904	0.17
874.284	0.17
874.664	0.17
875.043	0.17
875.423	0.17
875.803	0.17
876.182	0.17
876.562	0.17
876.941	0.17
877.321	0.17
877.7	0.17
878.079	0.17
878.459	0.17
878.838	0.17
879.217	0.17
879.596	0.17
879.975	0.17
880.354	0.17
880.733	0.17
881.112	0.17
881.491	0.17
881.869	0.17
882.248	0.17
882.627	0.17
883.005	0.17
883.384	0.17
883.762	0.17
884.14	0.17
884.519	0.17
884.897	0.17
885.275	0.17
885.653	0.17
886.031	0.17
886.409	0.17
886.787	0.17
887.165	0.17
887.543	0.17
887.921	0.17
888.298	0.17
888.676	0.17
889.054	0.17
889.431	0.17
889.809	0.17
890.186	0.17
890.563	0.16
890.941	0.16
891.318	0.16
891.695	0.16
892.072	0.17
892.449	0.16
892.826	0.16
893.203	0.17
893.58	0.16
893.957	0.16
894.334	0.17
894.71	0.17
895.087	0.16
895.464	0.16
895.84	0.16
896.217	0.16
896.593	0.16
896.969	0.16
897.346	0.16
897.722	0.16
898.098	0.16
898.474	0.16
898.85	0.16
899.226	0.16
899.602	0.16
899.978	0.16
900.354	0.16
900.73	0.16
901.105	0.16
901.481	0.16
901.857	0.16
902.232	0.16
902.608	0.16
902.983	0.16
903.358	0.17
903.734	0.16
904.109	0.16
904.484	0.16
904.859	0.16
905.234	0.16
905.609	0.16
905.984	0.16
906.359	0.16
906.734	0.16
907.108	0.16
907.483	0.16
907.858	0.16
908.232	0.16
908.607	0.16
908.981	0.16
909.356	0.16
909.73	0.16
910.104	0.16
910.478	0.16
910.853	0.16
911.227	0.16
911.601	0.16
911.975	0.16
912.349	0.16
912.722	0.16
913.096	0.16
913.47	0.15
913.844	0.16
914.217	0.15
914.591	0.16
914.964	0.15
915.338	0.15
915.711	0.15
916.084	0.15
916.458	0.15
916.831	0.15
917.204	0.15
917.577	0.15
917.95	0.15
918.323	0.15
918.696	0.15
919.069	0.15
919.441	0.15
919.814	0.15
920.187	0.15
920.559	0.15
920.932	0.15
921.304	0.15
921.677	0.15
922.049	0.15
922.421	0.15
922.794	0.15
923.166	0.15
923.538	0.15
923.91	0.15
924.282	0.15
924.654	0.15
925.026	0.15
925.398	0.15
925.769	0.15
926.141	0.15
926.513	0.15
926.884	0.14
927.256	0.14
927.627	0.15
927.999	0.15
928.37	0.15
928.741	0.14
929.113	0.14
929.484	0.15
929.855	0.14
930.226	0.14
930.597	0.14
930.968	0.14
931.339	0.14
931.709	0.14
932.08	0.14
932.451	0.14
932.821	0.14
933.192	0.14
933.562	0.14
933.933	0.14
934.303	0.14
934.673	0.14
935.044	0.14
935.414	0.14
935.784	0.14
936.154	0.14
936.524	0.14
936.894	0.14
937.264	0.14
937.634	0.14
938.004	0.14
938.373	0.14
938.743	0.14
939.113	0.14
939.482	0.14
939.852	0.14
940.221	0.14
940.59	0.14
940.96	0.14
941.329	0.14
941.698	0.14
942.067	0.14
942.436	0.14
942.805	0.14
943.174	0.14
943.543	0.14
943.912	0.13
944.28	0.14
944.649	0.13
945.018	0.14
945.386	0.14
945.755	0.13
946.123	0.13
946.492	0.14
946.86	0.13
947.228	0.14
947.596	0.14
947.965	0.13
948.333	0.14
948.701	0.14
949.069	0.13
949.437	0.13
949.804	0.14
950.172	0.14
950.54	0.13
950.908	0.13
951.275	0.13
951.643	0.13
952.01	0.13
952.378	0.13
952.745	0.13
953.112	0.13
953.479	0.13
953.847	0.13
954.214	0.13
954.581	0.13
954.948	0.13
955.315	0.13
955.682	0.13
956.048	0.13
956.415	0.12
956.782	0.13
957.148	0.13
957.515	0.12
957.881	0.13
958.248	0.12
958.614	0.13
958.981	0.13
959.347	0.12
959.713	0.12
960.079	0.12
960.445	0.13
960.811	0.12
961.177	0.13
961.543	0.12
961.909	0.12
962.275	0.12
962.641	0.12
963.006	0.12
963.372	0.12
963.737	0.12
964.103	0.12
964.468	0.12
964.834	0.12
965.199	0.12
965.564	0.12
965.929	0.12
966.294	0.12
966.659	0.12
967.024	0.11
967.389	0.12
967.754	0.12
968.119	0.12
968.484	0.12
968.848	0.11
969.213	0.11
969.578	0.12
969.942	0.12
970.307	0.12
970.671	0.12
971.035	0.11
971.399	0.12
971.764	0.12
972.128	0.11
972.492	0.12
972.856	0.11
973.22	0.12
973.584	0.11
973.948	0.11
974.311	0.11
974.675	0.11
975.039	0.12
975.402	0.11
975.766	0.11
976.129	0.11
976.493	0.11
976.856	0.11
977.219	0.11
977.582	0.11
977.946	0.11
978.309	0.11
978.672	0.11
979.035	0.11
979.398	0.11
979.761	0.11
980.123	0.11
980.486	0.11
980.849	0.11
981.211	0.11
981.574	0.11
981.936	0.11
982.299	0.1
982.661	0.11
983.023	0.1
983.386	0.11
983.748	0.11
984.11	0.11
984.472	0.11
984.834	0.11
985.196	0.11
985.558	0.11
985.92	0.1
986.281	0.1
986.643	0.1
987.005	0.1
987.366	0.11
987.728	0.11
988.089	0.1
988.451	0.1
988.812	0.11
989.173	0.11
989.534	0.1
989.895	0.11
990.257	0.11
990.618	0.1
990.979	0.1
991.339	0.1
991.7	0.1
992.061	0.11
992.422	0.1
992.782	0.1
993.143	0.1
993.503	0.1
993.864	0.1
994.224	0.1
994.585	0.1
994.945	0.1
995.305	0.1
995.665	0.1
996.025	0.1
996.385	0.1
996.745	0.1
997.105	0.1
997.465	0.1
997.825	0.1
998.185	0.1
998.544	0.1
998.904	0.1
999.263	0.1
999.623	0.1
999.982	0.1
1000.342	0.1
1000.701	0.1
1001.06	0.1
1001.419	0.1
1001.778	0.1
1002.138	0.1
1002.497	0.1
1002.855	0.1
1003.214	0.09
1003.573	0.09
1003.932	0.1
1004.29	0.1
1004.649	0.1
1005.008	0.1
1005.366	0.1
1005.725	0.1
1006.083	0.09
1006.441	0.09
1006.799	0.09
1007.158	0.09
1007.516	0.09
1007.874	0.1
1008.232	0.09
1008.59	0.1
1008.948	0.1
1009.305	0.1
1009.663	0.09
1010.021	0.1
1010.379	0.1
1010.736	0.09
1011.094	0.09
1011.451	0.1
1011.808	0.09
1012.166	0.09
1012.523	0.09
1012.88	0.09
1013.237	0.09
1013.594	0.09
1013.951	0.09
1014.308	0.09
1014.665	0.09
1015.022	0.09
1015.379	0.09
1015.735	0.09
1016.092	0.09
1016.449	0.09
1016.805	0.09
1017.162	0.09
1017.518	0.09
1017.874	0.09
1018.231	0.09
1018.587	0.09
1018.943	0.09
1019.299	0.09
1019.655	0.09
1020.011	0.09
1020.367	0.09
1020.723	0.09
1021.078	0.09
1021.434	0.08
1021.79	0.08
1022.145	0.09
1022.501	0.09
1022.856	0.09
1023.212	0.09
1023.567	0.09
1023.922	0.09
1024.278	0.09
1024.633	0.08
1024.988	0.09
1025.343	0.09
1025.698	0.09
1026.053	0.08
1026.408	0.08
1026.762	0.09
1027.117	0.08
1027.472	0.09
1027.826	0.08
1028.181	0.09
1028.535	0.09
1028.89	0.08
1029.244	0.09
1029.598	0.09
1029.952	0.08
1030.307	0.09
1030.661	0.09
1031.015	0.09
1031.369	0.08
1031.723	0.09
1032.076	0.08
