Data from Rubpy_EV_EDTA_TU(3000)_Blank_Blue_Flow_Absorbance__1134__11-14-47-563.txt Node

Date: Mon Aug 03 11:14:47 BST 2026
User: fpm-admin
Spectrometer: SR600986
Trigger mode: 0
Integration Time (sec): 8.000000E-3
Scans to average: 3
Nonlinearity correction enabled: true
Boxcar width: 0
Storing dark spectrum: false
XAxis mode: Wavelengths
Number of Pixels in Spectrum: 2048
>>>>>Begin Spectral Data<<<<<
188.613	0.19
189.078	0.18
189.542	0.17
190.007	0.17
190.472	0.16
190.936	0.17
191.401	0.17
191.865	0.17
192.33	0.18
192.794	0.19
193.258	0.18
193.723	0.19
194.187	0.19
194.651	0.17
195.115	0.17
195.579	0.17
196.043	0.18
196.507	0.19
196.971	0.19
197.435	0.16
197.899	0.17
198.363	0.18
198.827	0.17
199.29	0.16
199.754	0.19
200.218	0.17
200.681	0.17
201.145	0.18
201.608	0.17
202.072	0.16
202.535	0.17
202.998	0.19
203.462	0.18
203.925	0.17
204.388	0.17
204.851	0.16
205.314	0.18
205.777	0.18
206.24	0.17
206.703	0.17
207.166	0.18
207.629	0.17
208.092	0.18
208.555	0.16
209.018	0.18
209.48	0.19
209.943	0.17
210.406	0.18
210.868	0.15
211.331	0.19
211.793	0.14
212.256	0.17
212.718	0.16
213.18	0.17
213.643	0.19
214.105	0.18
214.567	0.17
215.029	0.18
215.491	0.16
215.953	0.2
216.415	0.16
216.877	0.18
217.339	0.17
217.801	0.17
218.263	0.17
218.725	0.17
219.186	0.17
219.648	0.17
220.11	0.18
220.571	0.17
221.033	0.17
221.494	0.18
221.956	0.17
222.417	0.17
222.878	0.18
223.34	0.16
223.801	0.16
224.262	0.17
224.723	0.18
225.185	0.18
225.646	0.17
226.107	0.18
226.568	0.19
227.029	0.19
227.489	0.16
227.95	0.19
228.411	0.16
228.872	0.18
229.332	0.18
229.793	0.18
230.254	0.19
230.714	0.16
231.175	0.17
231.635	0.16
232.096	0.16
232.556	0.17
233.016	0.17
233.477	0.16
233.937	0.17
234.397	0.18
234.857	0.18
235.317	0.16
235.777	0.18
236.237	0.18
236.697	0.18
237.157	0.18
237.617	0.18
238.077	0.19
238.537	0.17
238.996	0.16
239.456	0.18
239.916	0.2
240.375	0.18
240.835	0.17
241.294	0.16
241.754	0.19
242.213	0.18
242.672	0.19
243.132	0.15
243.591	0.17
244.05	0.18
244.509	0.17
244.968	0.17
245.427	0.18
245.886	0.16
246.345	0.17
246.804	0.19
247.263	0.18
247.722	0.18
248.181	0.16
248.639	0.2
249.098	0.15
249.557	0.18
250.015	0.18
250.474	0.2
250.932	0.18
251.391	0.17
251.849	0.19
252.308	0.17
252.766	0.18
253.224	0.15
253.682	0.2
254.14	0.18
254.599	0.17
255.057	0.17
255.515	0.18
255.973	0.16
256.431	0.16
256.888	0.19
257.346	0.17
257.804	0.18
258.262	0.17
258.719	0.17
259.177	0.17
259.635	0.19
260.092	0.18
260.55	0.17
261.007	0.18
261.465	0.19
261.922	0.18
262.379	0.16
262.836	0.17
263.294	0.16
263.751	0.19
264.208	0.17
264.665	0.16
265.122	0.19
265.579	0.19
266.036	0.19
266.493	0.18
266.95	0.18
267.406	0.18
267.863	0.17
268.32	0.18
268.777	0.16
269.233	0.19
269.69	0.19
270.146	0.18
270.603	0.18
271.059	0.18
271.515	0.17
271.972	0.19
272.428	0.18
272.884	0.2
273.34	0.16
273.796	0.19
274.253	0.19
274.709	0.18
275.165	0.18
275.62	0.18
276.076	0.2
276.532	0.18
276.988	0.16
277.444	0.15
277.899	0.18
278.355	0.18
278.811	0.16
279.266	0.17
279.722	0.18
280.177	0.17
280.633	0.19
281.088	0.17
281.543	0.18
281.998	0.16
282.454	0.19
282.909	0.19
283.364	0.17
283.819	0.18
284.274	0.16
284.729	0.18
285.184	0.18
285.639	0.15
286.094	0.17
286.548	0.2
287.003	0.19
287.458	0.18
287.913	0.19
288.367	0.18
288.822	0.18
289.276	0.17
289.731	0.17
290.185	0.18
290.639	0.19
291.094	0.18
291.548	0.2
292.002	0.18
292.456	0.18
292.91	0.19
293.365	0.19
293.819	0.18
294.273	0.2
294.726	0.2
295.18	0.19
295.634	0.19
296.088	0.19
296.542	0.2
296.995	0.21
297.449	0.2
297.903	0.2
298.356	0.19
298.81	0.19
299.263	0.19
299.716	0.19
300.17	0.18
300.623	0.17
301.076	0.19
301.53	0.17
301.983	0.17
302.436	0.18
302.889	0.18
303.342	0.2
303.795	0.21
304.248	0.2
304.701	0.19
305.153	0.19
305.606	0.21
306.059	0.19
306.512	0.19
306.964	0.18
307.417	0.19
307.869	0.21
308.322	0.2
308.774	0.19
309.227	0.19
309.679	0.22
310.131	0.22
310.584	0.21
311.036	0.22
311.488	0.24
311.94	0.22
312.392	0.24
312.844	0.23
313.296	0.22
313.748	0.23
314.2	0.24
314.652	0.24
315.103	0.25
315.555	0.24
316.007	0.24
316.458	0.26
316.91	0.25
317.361	0.25
317.813	0.27
318.264	0.26
318.716	0.28
319.167	0.25
319.618	0.27
320.07	0.26
320.521	0.28
320.972	0.27
321.423	0.28
321.874	0.28
322.325	0.28
322.776	0.28
323.227	0.3
323.678	0.3
324.128	0.29
324.579	0.29
325.03	0.29
325.48	0.29
325.931	0.32
326.382	0.31
326.832	0.32
327.283	0.33
327.733	0.33
328.183	0.34
328.634	0.35
329.084	0.35
329.534	0.36
329.984	0.37
330.434	0.38
330.884	0.38
331.334	0.39
331.784	0.39
332.234	0.4
332.684	0.41
333.134	0.41
333.584	0.43
334.034	0.43
334.483	0.43
334.933	0.44
335.382	0.45
335.832	0.45
336.281	0.46
336.731	0.48
337.18	0.48
337.63	0.5
338.079	0.5
338.528	0.51
338.977	0.52
339.426	0.52
339.876	0.54
340.325	0.55
340.774	0.55
341.223	0.56
341.671	0.57
342.12	0.59
342.569	0.59
343.018	0.61
343.467	0.61
343.915	0.62
344.364	0.63
344.812	0.64
345.261	0.64
345.709	0.65
346.158	0.66
346.606	0.68
347.054	0.68
347.503	0.7
347.951	0.71
348.399	0.72
348.847	0.72
349.295	0.75
349.743	0.75
350.191	0.77
350.639	0.77
351.087	0.78
351.535	0.81
351.983	0.82
352.43	0.83
352.878	0.84
353.326	0.85
353.773	0.87
354.221	0.9
354.668	0.9
355.116	0.91
355.563	0.93
356.01	0.93
356.458	0.95
356.905	0.97
357.352	0.97
357.799	0.99
358.246	1.02
358.693	1.02
359.14	1.02
359.587	1.04
360.034	1.05
360.481	1.06
360.928	1.07
361.375	1.06
361.821	1.08
362.268	1.09
362.714	1.1
363.161	1.11
363.608	1.11
364.054	1.13
364.5	1.14
364.947	1.14
365.393	1.14
365.839	1.15
366.285	1.15
366.732	1.15
367.178	1.17
367.624	1.14
368.07	1.16
368.516	1.15
368.962	1.14
369.408	1.14
369.853	1.13
370.299	1.11
370.745	1.1
371.19	1.09
371.636	1.09
372.082	1.08
372.527	1.06
372.973	1.05
373.418	1.05
373.863	1.04
374.309	1.02
374.754	1.02
375.199	1.02
375.644	1.02
376.09	1
376.535	1.01
376.98	1.01
377.425	1
377.87	1
378.314	1.01
378.759	1.01
379.204	1.01
379.649	1.02
380.093	1.02
380.538	1.03
380.983	1.04
381.427	1.05
381.872	1.06
382.316	1.06
382.76	1.07
383.205	1.09
383.649	1.09
384.093	1.09
384.537	1.1
384.982	1.1
385.426	1.09
385.87	1.08
386.314	1.08
386.758	1.07
387.201	1.06
387.645	1.04
388.089	1.04
388.533	1.04
388.976	1.03
389.42	1.05
389.864	1.05
390.307	1.05
390.751	1.07
391.194	1.09
391.638	1.1
392.081	1.14
392.524	1.16
392.967	1.18
393.411	1.21
393.854	1.21
394.297	1.24
394.74	1.24
395.183	1.24
395.626	1.24
396.069	1.25
396.512	1.23
396.954	1.21
397.397	1.2
397.84	1.16
398.282	1.12
398.725	1.09
399.168	1.04
399.61	1
400.052	0.94
400.495	0.88
400.937	0.82
401.38	0.77
401.822	0.73
402.264	0.68
402.706	0.62
403.148	0.58
403.59	0.55
404.032	0.51
404.474	0.47
404.916	0.45
405.358	0.42
405.8	0.38
406.241	0.37
406.683	0.34
407.125	0.33
407.566	0.31
408.008	0.3
408.449	0.27
408.891	0.27
409.332	0.26
409.774	0.25
410.215	0.24
410.656	0.24
411.097	0.23
411.539	0.21
411.98	0.22
412.421	0.21
412.862	0.2
413.303	0.19
413.744	0.19
414.184	0.19
414.625	0.18
415.066	0.18
415.507	0.17
415.947	0.19
416.388	0.18
416.828	0.17
417.269	0.16
417.709	0.16
418.15	0.16
418.59	0.17
419.03	0.17
419.471	0.16
419.911	0.15
420.351	0.16
420.791	0.16
421.231	0.15
421.671	0.16
422.111	0.16
422.551	0.16
422.991	0.16
423.431	0.14
423.87	0.16
424.31	0.15
424.75	0.15
425.189	0.15
425.629	0.15
426.068	0.15
426.508	0.15
426.947	0.14
427.386	0.16
427.826	0.13
428.265	0.15
428.704	0.15
429.143	0.14
429.582	0.17
430.021	0.14
430.46	0.15
430.899	0.16
431.338	0.14
431.777	0.16
432.216	0.16
432.655	0.17
433.093	0.14
433.532	0.17
433.971	0.14
434.409	0.15
434.848	0.15
435.286	0.16
435.724	0.17
436.163	0.17
436.601	0.16
437.039	0.16
437.477	0.16
437.916	0.16
438.354	0.16
438.792	0.15
439.23	0.16
439.668	0.17
440.105	0.15
440.543	0.15
440.981	0.15
441.419	0.16
441.856	0.16
442.294	0.16
442.732	0.16
443.169	0.17
443.607	0.16
444.044	0.16
444.481	0.18
444.919	0.17
445.356	0.18
445.793	0.16
446.23	0.16
446.668	0.16
447.105	0.17
447.542	0.16
447.979	0.18
448.416	0.19
448.852	0.18
449.289	0.17
449.726	0.17
450.163	0.18
450.599	0.18
451.036	0.17
451.473	0.19
451.909	0.17
452.346	0.17
452.782	0.18
453.218	0.17
453.655	0.18
454.091	0.18
454.527	0.19
454.963	0.19
455.399	0.19
455.835	0.19
456.271	0.17
456.707	0.16
457.143	0.17
457.579	0.19
458.015	0.18
458.451	0.17
458.886	0.17
459.322	0.19
459.758	0.17
460.193	0.19
460.629	0.17
461.064	0.17
461.5	0.2
461.935	0.17
462.37	0.2
462.805	0.2
463.241	0.19
463.676	0.2
464.111	0.18
464.546	0.2
464.981	0.18
465.416	0.19
465.851	0.2
466.286	0.19
466.72	0.19
467.155	0.21
467.59	0.2
468.024	0.21
468.459	0.2
468.893	0.21
469.328	0.21
469.762	0.2
470.197	0.21
470.631	0.21
471.065	0.21
471.5	0.21
471.934	0.21
472.368	0.21
472.802	0.21
473.236	0.22
473.67	0.22
474.104	0.22
474.538	0.22
474.972	0.23
475.405	0.22
475.839	0.23
476.273	0.23
476.706	0.24
477.14	0.24
477.573	0.24
478.007	0.25
478.44	0.24
478.874	0.24
479.307	0.24
479.74	0.25
480.173	0.25
480.606	0.25
481.04	0.25
481.473	0.25
481.906	0.26
482.339	0.26
482.771	0.26
483.204	0.27
483.637	0.27
484.07	0.27
484.502	0.27
484.935	0.28
485.368	0.28
485.8	0.28
486.233	0.28
486.665	0.28
487.098	0.28
487.53	0.29
487.962	0.29
488.394	0.29
488.827	0.29
489.259	0.29
489.691	0.3
490.123	0.3
490.555	0.3
490.987	0.31
491.418	0.3
491.85	0.31
492.282	0.31
492.714	0.32
493.145	0.32
493.577	0.32
494.009	0.32
494.44	0.33
494.872	0.33
495.303	0.33
495.734	0.33
496.166	0.34
496.597	0.34
497.028	0.34
497.459	0.34
497.89	0.34
498.321	0.35
498.752	0.35
499.183	0.35
499.614	0.35
500.045	0.36
500.476	0.36
500.906	0.37
501.337	0.36
501.768	0.37
502.198	0.37
502.629	0.37
503.059	0.37
503.49	0.37
503.92	0.38
504.35	0.38
504.781	0.38
505.211	0.39
505.641	0.39
506.071	0.39
506.501	0.39
506.931	0.4
507.361	0.4
507.791	0.4
508.221	0.4
508.651	0.41
509.081	0.41
509.51	0.41
509.94	0.41
510.37	0.42
510.799	0.42
511.229	0.42
511.658	0.42
512.087	0.42
512.517	0.43
512.946	0.43
513.375	0.43
513.804	0.44
514.234	0.44
514.663	0.44
515.092	0.44
515.521	0.44
515.95	0.44
516.378	0.45
516.807	0.44
517.236	0.45
517.665	0.45
518.093	0.45
518.522	0.46
518.951	0.46
519.379	0.46
519.807	0.47
520.236	0.47
520.664	0.47
521.093	0.47
521.521	0.47
521.949	0.47
522.377	0.48
522.805	0.48
523.233	0.48
523.661	0.49
524.089	0.49
524.517	0.48
524.945	0.48
525.373	0.48
525.8	0.49
526.228	0.49
526.656	0.49
527.083	0.49
527.511	0.5
527.938	0.5
528.366	0.5
528.793	0.51
529.22	0.51
529.648	0.51
530.075	0.51
530.502	0.51
530.929	0.51
531.356	0.52
531.783	0.52
532.21	0.51
532.637	0.52
533.064	0.52
533.49	0.52
533.917	0.52
534.344	0.52
534.771	0.53
535.197	0.53
535.624	0.53
536.05	0.53
536.477	0.53
536.903	0.54
537.329	0.54
537.755	0.54
538.182	0.54
538.608	0.54
539.034	0.54
539.46	0.55
539.886	0.55
540.312	0.55
540.738	0.55
541.164	0.56
541.589	0.55
542.015	0.56
542.441	0.56
542.867	0.56
543.292	0.56
543.718	0.56
544.143	0.57
544.569	0.57
544.994	0.57
545.419	0.57
545.845	0.57
546.27	0.58
546.695	0.58
547.12	0.58
547.545	0.58
547.97	0.58
548.395	0.58
548.82	0.58
549.245	0.59
549.67	0.58
550.094	0.59
550.519	0.58
550.944	0.59
551.368	0.59
551.793	0.59
552.217	0.59
552.642	0.59
553.066	0.59
553.49	0.59
553.915	0.59
554.339	0.59
554.763	0.59
555.187	0.59
555.611	0.59
556.035	0.6
556.459	0.59
556.883	0.59
557.307	0.59
557.731	0.59
558.154	0.59
558.578	0.59
559.002	0.59
559.425	0.6
559.849	0.6
560.272	0.59
560.696	0.59
561.119	0.59
561.543	0.59
561.966	0.6
562.389	0.59
562.812	0.59
563.235	0.59
563.658	0.59
564.081	0.59
564.504	0.59
564.927	0.59
565.35	0.59
565.773	0.59
566.196	0.59
566.618	0.59
567.041	0.59
567.463	0.59
567.886	0.59
568.309	0.59
568.731	0.59
569.153	0.59
569.576	0.59
569.998	0.59
570.42	0.59
570.842	0.59
571.264	0.59
571.686	0.58
572.108	0.59
572.53	0.58
572.952	0.59
573.374	0.58
573.796	0.58
574.218	0.58
574.639	0.58
575.061	0.58
575.483	0.58
575.904	0.58
576.326	0.58
576.747	0.58
577.168	0.58
577.59	0.58
578.011	0.58
578.432	0.58
578.853	0.58
579.274	0.58
579.695	0.58
580.116	0.58
580.537	0.58
580.958	0.58
581.379	0.58
581.8	0.58
582.221	0.58
582.641	0.58
583.062	0.58
583.482	0.58
583.903	0.58
584.323	0.58
584.744	0.58
585.164	0.58
585.584	0.58
586.005	0.58
586.425	0.58
586.845	0.58
587.265	0.58
587.685	0.59
588.105	0.58
588.525	0.59
588.945	0.59
589.365	0.59
589.785	0.59
590.204	0.59
590.624	0.59
591.044	0.59
591.463	0.6
591.883	0.6
592.302	0.6
592.721	0.6
593.141	0.6
593.56	0.6
593.979	0.6
594.399	0.61
594.818	0.61
595.237	0.61
595.656	0.61
596.075	0.61
596.494	0.61
596.913	0.61
597.331	0.62
597.75	0.61
598.169	0.62
598.587	0.61
599.006	0.62
599.425	0.62
599.843	0.62
600.262	0.61
600.68	0.61
601.098	0.61
601.517	0.61
601.935	0.61
602.353	0.61
602.771	0.61
603.189	0.61
603.607	0.61
604.025	0.61
604.443	0.61
604.861	0.6
605.279	0.6
605.696	0.6
606.114	0.6
606.532	0.6
606.949	0.59
607.367	0.59
607.784	0.59
608.202	0.59
608.619	0.59
609.036	0.58
609.454	0.58
609.871	0.58
610.288	0.58
610.705	0.58
611.122	0.58
611.539	0.57
611.956	0.57
612.373	0.57
612.79	0.57
613.207	0.56
613.623	0.56
614.04	0.56
614.457	0.56
614.873	0.55
615.29	0.55
615.706	0.55
616.122	0.55
616.539	0.54
616.955	0.55
617.371	0.54
617.788	0.54
618.204	0.53
618.62	0.53
619.036	0.53
619.452	0.53
619.868	0.52
620.284	0.53
620.699	0.52
621.115	0.52
621.531	0.52
621.946	0.51
622.362	0.51
622.778	0.51
623.193	0.51
623.608	0.51
624.024	0.5
624.439	0.5
624.854	0.49
625.27	0.49
625.685	0.49
626.1	0.48
626.515	0.48
626.93	0.48
627.345	0.48
627.76	0.47
628.175	0.47
628.589	0.46
629.004	0.46
629.419	0.46
629.833	0.45
630.248	0.45
630.663	0.45
631.077	0.44
631.491	0.44
631.906	0.43
632.32	0.43
632.734	0.43
633.148	0.42
633.563	0.42
633.977	0.42
634.391	0.41
634.805	0.41
635.219	0.4
635.632	0.4
636.046	0.4
636.46	0.39
636.874	0.39
637.287	0.39
637.701	0.38
638.115	0.38
638.528	0.37
638.941	0.37
639.355	0.37
639.768	0.37
640.181	0.36
640.595	0.36
641.008	0.36
641.421	0.35
641.834	0.35
642.247	0.35
642.66	0.35
643.073	0.34
643.486	0.34
643.898	0.34
644.311	0.33
644.724	0.33
645.136	0.33
645.549	0.33
645.961	0.33
646.374	0.33
646.786	0.32
647.199	0.32
647.611	0.32
648.023	0.32
648.435	0.32
648.847	0.32
649.26	0.32
649.672	0.32
650.084	0.32
650.495	0.31
650.907	0.31
651.319	0.31
651.731	0.31
652.143	0.31
652.554	0.31
652.966	0.31
653.377	0.31
653.789	0.31
654.2	0.31
654.612	0.31
655.023	0.31
655.434	0.28
655.845	0.27
656.256	0.29
656.668	0.31
657.079	0.3
657.49	0.3
657.901	0.3
658.311	0.3
658.722	0.3
659.133	0.3
659.544	0.3
659.954	0.29
660.365	0.3
660.775	0.3
661.186	0.3
661.596	0.29
662.007	0.29
662.417	0.29
662.827	0.29
663.238	0.29
663.648	0.29
664.058	0.29
664.468	0.29
664.878	0.29
665.288	0.28
665.698	0.28
666.108	0.28
666.517	0.28
666.927	0.28
667.337	0.28
667.746	0.28
668.156	0.28
668.565	0.27
668.975	0.27
669.384	0.27
669.794	0.27
670.203	0.26
670.612	0.27
671.021	0.26
671.43	0.26
671.84	0.26
672.249	0.26
672.658	0.26
673.066	0.26
673.475	0.25
673.884	0.25
674.293	0.25
674.702	0.24
675.11	0.25
675.519	0.24
675.927	0.24
676.336	0.24
676.744	0.23
677.152	0.24
677.561	0.23
677.969	0.23
678.377	0.23
678.785	0.22
679.193	0.22
679.601	0.22
680.009	0.22
680.417	0.21
680.825	0.21
681.233	0.21
681.641	0.21
682.048	0.21
682.456	0.21
682.864	0.2
683.271	0.2
683.679	0.2
684.086	0.19
684.493	0.19
684.901	0.19
685.308	0.19
685.715	0.19
686.122	0.18
686.529	0.18
686.936	0.18
687.343	0.18
687.75	0.17
688.157	0.18
688.564	0.17
688.971	0.17
689.378	0.17
689.784	0.16
690.191	0.16
690.597	0.16
691.004	0.16
691.41	0.16
691.817	0.16
692.223	0.15
692.629	0.15
693.035	0.15
693.442	0.15
693.848	0.15
694.254	0.15
694.66	0.14
695.066	0.14
695.471	0.14
695.877	0.14
696.283	0.14
696.689	0.14
697.094	0.13
697.5	0.13
697.906	0.14
698.311	0.13
698.716	0.13
699.122	0.13
699.527	0.13
699.932	0.13
700.338	0.13
700.743	0.13
701.148	0.12
701.553	0.12
701.958	0.12
702.363	0.12
702.768	0.12
703.173	0.12
703.577	0.12
703.982	0.12
704.387	0.12
704.791	0.12
705.196	0.12
705.6	0.12
706.005	0.12
706.409	0.12
706.814	0.12
707.218	0.12
707.622	0.12
708.026	0.11
708.43	0.11
708.834	0.12
709.238	0.11
709.642	0.12
710.046	0.12
710.45	0.12
710.854	0.12
711.257	0.11
711.661	0.12
712.065	0.11
712.468	0.12
712.872	0.11
713.275	0.12
713.679	0.12
714.082	0.12
714.485	0.12
714.888	0.12
715.291	0.12
715.695	0.12
716.098	0.12
716.501	0.12
716.904	0.12
717.306	0.12
717.709	0.12
718.112	0.12
718.515	0.12
718.917	0.12
719.32	0.12
719.723	0.12
720.125	0.12
720.527	0.12
720.93	0.12
721.332	0.12
721.734	0.12
722.137	0.12
722.539	0.12
722.941	0.12
723.343	0.13
723.745	0.13
724.147	0.13
724.549	0.13
724.95	0.13
725.352	0.13
725.754	0.13
726.156	0.13
726.557	0.13
726.959	0.13
727.36	0.13
727.762	0.13
728.163	0.13
728.564	0.13
728.966	0.13
729.367	0.13
729.768	0.13
730.169	0.13
730.57	0.13
730.971	0.13
731.372	0.13
731.773	0.13
732.174	0.13
732.574	0.13
732.975	0.13
733.376	0.13
733.776	0.13
734.177	0.13
734.577	0.13
734.978	0.13
735.378	0.13
735.778	0.13
736.179	0.13
736.579	0.13
736.979	0.12
737.379	0.13
737.779	0.13
738.179	0.13
738.579	0.12
738.979	0.12
739.379	0.12
739.778	0.12
740.178	0.12
740.578	0.12
740.977	0.12
741.377	0.12
741.776	0.12
742.176	0.12
742.575	0.12
742.974	0.12
743.374	0.12
743.773	0.12
744.172	0.12
744.571	0.12
744.97	0.11
745.369	0.11
745.768	0.11
746.167	0.11
746.565	0.11
746.964	0.11
747.363	0.11
747.761	0.11
748.16	0.11
748.559	0.11
748.957	0.11
749.355	0.11
749.754	0.1
750.152	0.1
750.55	0.1
750.948	0.1
751.347	0.1
751.745	0.1
752.143	0.1
752.541	0.1
752.938	0.1
753.336	0.1
753.734	0.1
754.132	0.1
754.529	0.1
754.927	0.09
755.325	0.09
755.722	0.09
756.119	0.09
756.517	0.09
756.914	0.09
757.311	0.09
757.709	0.09
758.106	0.09
758.503	0.09
758.9	0.09
759.297	0.09
759.694	0.09
760.091	0.09
760.488	0.09
760.884	0.09
761.281	0.09
761.678	0.09
762.074	0.09
762.471	0.08
762.867	0.09
763.264	0.09
763.66	0.09
764.056	0.09
764.453	0.08
764.849	0.08
765.245	0.09
765.641	0.08
766.037	0.08
766.433	0.08
766.829	0.08
767.225	0.09
767.621	0.08
768.016	0.09
768.412	0.08
768.808	0.08
769.203	0.08
769.599	0.09
769.994	0.08
770.389	0.08
770.785	0.08
771.18	0.09
771.575	0.09
771.971	0.09
772.366	0.08
772.761	0.08
773.156	0.08
773.551	0.08
773.945	0.09
774.34	0.08
774.735	0.09
775.13	0.09
775.524	0.08
775.919	0.09
776.314	0.08
776.708	0.08
777.103	0.09
777.497	0.09
777.891	0.09
778.285	0.09
778.68	0.09
779.074	0.09
779.468	0.08
779.862	0.09
780.256	0.09
780.65	0.09
781.044	0.09
781.438	0.09
781.831	0.09
782.225	0.09
782.619	0.09
783.012	0.09
783.406	0.09
783.799	0.09
784.193	0.09
784.586	0.09
784.979	0.09
785.372	0.09
785.766	0.09
786.159	0.09
786.552	0.09
786.945	0.09
787.338	0.09
787.731	0.09
788.123	0.09
788.516	0.09
788.909	0.09
789.302	0.09
789.694	0.09
790.087	0.1
790.479	0.09
790.872	0.09
791.264	0.1
791.656	0.1
792.049	0.1
792.441	0.1
792.833	0.1
793.225	0.1
793.617	0.1
794.009	0.1
794.401	0.1
794.793	0.1
795.185	0.1
795.576	0.1
795.968	0.1
796.36	0.1
796.751	0.1
797.143	0.1
797.534	0.1
797.926	0.1
798.317	0.1
798.708	0.1
799.1	0.1
799.491	0.1
799.882	0.1
800.273	0.1
800.664	0.1
801.055	0.1
801.446	0.11
801.837	0.1
802.227	0.1
802.618	0.11
803.009	0.11
803.399	0.11
803.79	0.11
804.18	0.11
804.571	0.11
804.961	0.11
805.351	0.11
805.742	0.11
806.132	0.11
806.522	0.11
806.912	0.11
807.302	0.11
807.692	0.11
808.082	0.11
808.472	0.11
808.862	0.11
809.251	0.11
809.641	0.11
810.031	0.11
810.42	0.11
810.81	0.11
811.199	0.12
811.589	0.11
811.978	0.11
812.367	0.12
812.756	0.12
813.146	0.11
813.535	0.12
813.924	0.12
814.313	0.12
814.702	0.12
815.091	0.12
815.479	0.12
815.868	0.12
816.257	0.12
816.645	0.12
817.034	0.12
817.423	0.12
817.811	0.12
818.199	0.12
818.588	0.12
818.976	0.12
819.364	0.12
819.753	0.12
820.141	0.12
820.529	0.12
820.917	0.12
821.305	0.12
821.693	0.12
822.08	0.12
822.468	0.12
822.856	0.12
823.244	0.12
823.631	0.12
824.019	0.12
824.406	0.12
824.794	0.12
825.181	0.13
825.568	0.13
825.956	0.13
826.343	0.13
826.73	0.12
827.117	0.13
827.504	0.13
827.891	0.13
828.278	0.13
828.665	0.13
829.052	0.13
829.438	0.13
829.825	0.13
830.212	0.13
830.598	0.13
830.985	0.13
831.371	0.13
831.757	0.13
832.144	0.13
832.53	0.13
832.916	0.13
833.302	0.13
833.688	0.13
834.075	0.13
834.461	0.13
834.846	0.13
835.232	0.13
835.618	0.13
836.004	0.13
836.39	0.13
836.775	0.13
837.161	0.13
837.546	0.13
837.932	0.13
838.317	0.14
838.702	0.13
839.088	0.13
839.473	0.13
839.858	0.13
840.243	0.14
840.628	0.13
841.013	0.14
841.398	0.13
841.783	0.14
842.168	0.14
842.553	0.14
842.937	0.14
843.322	0.13
843.707	0.13
844.091	0.14
844.476	0.14
844.86	0.14
845.244	0.14
845.629	0.14
846.013	0.14
846.397	0.13
846.781	0.14
847.165	0.14
847.549	0.14
847.933	0.14
848.317	0.14
848.701	0.14
849.085	0.14
849.468	0.14
849.852	0.14
850.236	0.14
850.619	0.14
851.003	0.14
851.386	0.14
851.769	0.14
852.153	0.14
852.536	0.14
852.919	0.14
853.302	0.14
853.685	0.14
854.068	0.14
854.451	0.14
854.834	0.14
855.217	0.14
855.6	0.14
855.982	0.14
856.365	0.14
856.748	0.14
857.13	0.14
857.513	0.14
857.895	0.14
858.277	0.14
858.66	0.14
859.042	0.14
859.424	0.14
859.806	0.14
860.188	0.14
860.57	0.14
860.952	0.14
861.334	0.14
861.716	0.14
862.098	0.14
862.48	0.14
862.861	0.14
863.243	0.14
863.624	0.14
864.006	0.14
864.387	0.14
864.769	0.14
865.15	0.14
865.531	0.14
865.912	0.14
866.294	0.14
866.675	0.14
867.056	0.14
867.437	0.14
867.818	0.14
868.198	0.14
868.579	0.14
868.96	0.14
869.341	0.14
869.721	0.14
870.102	0.14
870.482	0.14
870.863	0.14
871.243	0.14
871.623	0.14
872.003	0.14
872.384	0.14
872.764	0.14
873.144	0.14
873.524	0.14
873.904	0.14
874.284	0.14
874.664	0.14
875.043	0.14
875.423	0.14
875.803	0.14
876.182	0.14
876.562	0.14
876.941	0.14
877.321	0.14
877.7	0.14
878.079	0.14
878.459	0.14
878.838	0.14
879.217	0.14
879.596	0.14
879.975	0.14
880.354	0.14
880.733	0.14
881.112	0.14
881.491	0.14
881.869	0.14
882.248	0.14
882.627	0.14
883.005	0.14
883.384	0.14
883.762	0.14
884.14	0.14
884.519	0.14
884.897	0.14
885.275	0.14
885.653	0.14
886.031	0.14
886.409	0.14
886.787	0.14
887.165	0.14
887.543	0.14
887.921	0.14
888.298	0.14
888.676	0.14
889.054	0.14
889.431	0.14
889.809	0.14
890.186	0.14
890.563	0.14
890.941	0.14
891.318	0.14
891.695	0.14
892.072	0.14
892.449	0.14
892.826	0.14
893.203	0.14
893.58	0.14
893.957	0.14
894.334	0.14
894.71	0.14
895.087	0.14
895.464	0.14
895.84	0.14
896.217	0.14
896.593	0.14
896.969	0.14
897.346	0.13
897.722	0.14
898.098	0.14
898.474	0.14
898.85	0.14
899.226	0.14
899.602	0.14
899.978	0.14
900.354	0.14
900.73	0.14
901.105	0.13
901.481	0.13
901.857	0.14
902.232	0.14
902.608	0.13
902.983	0.13
903.358	0.14
903.734	0.13
904.109	0.14
904.484	0.14
904.859	0.13
905.234	0.13
905.609	0.14
905.984	0.13
906.359	0.13
906.734	0.13
907.108	0.13
907.483	0.13
907.858	0.13
908.232	0.13
908.607	0.13
908.981	0.13
909.356	0.13
909.73	0.13
910.104	0.13
910.478	0.13
910.853	0.13
911.227	0.13
911.601	0.13
911.975	0.13
912.349	0.13
912.722	0.13
913.096	0.13
913.47	0.13
913.844	0.13
914.217	0.13
914.591	0.13
914.964	0.13
915.338	0.13
915.711	0.13
916.084	0.13
916.458	0.13
916.831	0.13
917.204	0.13
917.577	0.13
917.95	0.13
918.323	0.13
918.696	0.13
919.069	0.12
919.441	0.13
919.814	0.13
920.187	0.13
920.559	0.12
920.932	0.13
921.304	0.13
921.677	0.13
922.049	0.12
922.421	0.12
922.794	0.13
923.166	0.12
923.538	0.12
923.91	0.12
924.282	0.12
924.654	0.12
925.026	0.12
925.398	0.12
925.769	0.12
926.141	0.12
926.513	0.12
926.884	0.12
927.256	0.12
927.627	0.12
927.999	0.12
928.37	0.12
928.741	0.12
929.113	0.12
929.484	0.12
929.855	0.12
930.226	0.12
930.597	0.12
930.968	0.12
931.339	0.12
931.709	0.12
932.08	0.12
932.451	0.12
932.821	0.12
933.192	0.12
933.562	0.12
933.933	0.12
934.303	0.12
934.673	0.12
935.044	0.12
935.414	0.12
935.784	0.11
936.154	0.11
936.524	0.12
936.894	0.12
937.264	0.12
937.634	0.12
938.004	0.12
938.373	0.12
938.743	0.12
939.113	0.11
939.482	0.11
939.852	0.12
940.221	0.11
940.59	0.12
940.96	0.12
941.329	0.12
941.698	0.11
942.067	0.11
942.436	0.12
942.805	0.11
943.174	0.11
943.543	0.12
943.912	0.12
944.28	0.11
944.649	0.11
945.018	0.11
945.386	0.11
945.755	0.11
946.123	0.11
946.492	0.11
946.86	0.12
947.228	0.11
947.596	0.11
947.965	0.11
948.333	0.11
948.701	0.11
949.069	0.11
949.437	0.11
949.804	0.11
950.172	0.11
950.54	0.11
950.908	0.11
951.275	0.1
951.643	0.11
952.01	0.11
952.378	0.11
952.745	0.11
953.112	0.11
953.479	0.1
953.847	0.11
954.214	0.11
954.581	0.11
954.948	0.11
955.315	0.11
955.682	0.11
956.048	0.11
956.415	0.11
956.782	0.11
957.148	0.1
957.515	0.1
957.881	0.11
958.248	0.11
958.614	0.11
958.981	0.11
959.347	0.1
959.713	0.11
960.079	0.1
960.445	0.1
960.811	0.1
961.177	0.11
961.543	0.1
961.909	0.1
962.275	0.1
962.641	0.1
963.006	0.1
963.372	0.1
963.737	0.1
964.103	0.1
964.468	0.1
964.834	0.1
965.199	0.1
965.564	0.1
965.929	0.1
966.294	0.1
966.659	0.1
967.024	0.1
967.389	0.1
967.754	0.1
968.119	0.1
968.484	0.1
968.848	0.1
969.213	0.1
969.578	0.1
969.942	0.1
970.307	0.1
970.671	0.1
971.035	0.1
971.399	0.1
971.764	0.1
972.128	0.09
972.492	0.1
972.856	0.09
973.22	0.1
973.584	0.09
973.948	0.1
974.311	0.09
974.675	0.1
975.039	0.1
975.402	0.09
975.766	0.09
976.129	0.1
976.493	0.09
976.856	0.09
977.219	0.1
977.582	0.1
977.946	0.09
978.309	0.09
978.672	0.09
979.035	0.09
979.398	0.09
979.761	0.09
980.123	0.09
980.486	0.09
980.849	0.09
981.211	0.09
981.574	0.09
981.936	0.09
982.299	0.09
982.661	0.09
983.023	0.09
983.386	0.09
983.748	0.1
984.11	0.09
984.472	0.09
984.834	0.09
985.196	0.09
985.558	0.09
985.92	0.09
986.281	0.09
986.643	0.09
987.005	0.09
987.366	0.09
987.728	0.09
988.089	0.09
988.451	0.09
988.812	0.08
989.173	0.09
989.534	0.09
989.895	0.09
990.257	0.09
990.618	0.09
990.979	0.08
991.339	0.09
991.7	0.09
992.061	0.09
992.422	0.08
992.782	0.09
993.143	0.09
993.503	0.09
993.864	0.09
994.224	0.09
994.585	0.08
994.945	0.09
995.305	0.09
995.665	0.08
996.025	0.09
996.385	0.09
996.745	0.08
997.105	0.09
997.465	0.09
997.825	0.09
998.185	0.08
998.544	0.09
998.904	0.08
999.263	0.08
999.623	0.09
999.982	0.08
1000.342	0.08
1000.701	0.08
1001.06	0.08
1001.419	0.08
1001.778	0.08
1002.138	0.08
1002.497	0.08
1002.855	0.08
1003.214	0.08
1003.573	0.08
1003.932	0.08
1004.29	0.08
1004.649	0.08
1005.008	0.08
1005.366	0.08
1005.725	0.08
1006.083	0.08
1006.441	0.08
1006.799	0.08
1007.158	0.08
1007.516	0.07
1007.874	0.08
1008.232	0.08
1008.59	0.08
1008.948	0.07
1009.305	0.08
1009.663	0.08
1010.021	0.08
1010.379	0.08
1010.736	0.07
1011.094	0.08
1011.451	0.08
1011.808	0.07
1012.166	0.08
1012.523	0.08
1012.88	0.08
1013.237	0.08
1013.594	0.07
1013.951	0.07
1014.308	0.08
1014.665	0.07
1015.022	0.08
1015.379	0.08
1015.735	0.08
1016.092	0.08
1016.449	0.07
1016.805	0.08
1017.162	0.08
1017.518	0.07
1017.874	0.08
1018.231	0.07
1018.587	0.07
1018.943	0.07
1019.299	0.07
1019.655	0.07
1020.011	0.07
1020.367	0.08
1020.723	0.07
1021.078	0.07
1021.434	0.07
1021.79	0.07
1022.145	0.07
1022.501	0.07
1022.856	0.07
1023.212	0.07
1023.567	0.07
1023.922	0.07
1024.278	0.07
1024.633	0.07
1024.988	0.07
1025.343	0.07
1025.698	0.07
1026.053	0.07
1026.408	0.07
1026.762	0.07
1027.117	0.07
1027.472	0.07
1027.826	0.07
1028.181	0.08
1028.535	0.07
1028.89	0.07
1029.244	0.07
1029.598	0.07
1029.952	0.07
1030.307	0.07
1030.661	0.08
1031.015	0.07
1031.369	0.07
1031.723	0.07
1032.076	0.07
