Data from Rubpy_EV_EDTA_TU(3000)_Blank_Blue_Flow_Absorbance__605__11-05-58-589.txt Node

Date: Mon Aug 03 11:05:58 BST 2026
User: fpm-admin
Spectrometer: SR600986
Trigger mode: 0
Integration Time (sec): 8.000000E-3
Scans to average: 3
Nonlinearity correction enabled: true
Boxcar width: 0
Storing dark spectrum: false
XAxis mode: Wavelengths
Number of Pixels in Spectrum: 2048
>>>>>Begin Spectral Data<<<<<
188.613	0.13
189.078	0.11
189.542	0.1
190.007	0.1
190.472	0.11
190.936	0.11
191.401	0.11
191.865	0.1
192.33	0.09
192.794	0.11
193.258	0.11
193.723	0.12
194.187	0.12
194.651	0.11
195.115	0.1
195.579	0.09
196.043	0.11
196.507	0.1
196.971	0.12
197.435	0.1
197.899	0.1
198.363	0.12
198.827	0.1
199.29	0.1
199.754	0.12
200.218	0.11
200.681	0.1
201.145	0.1
201.608	0.11
202.072	0.11
202.535	0.1
202.998	0.12
203.462	0.11
203.925	0.1
204.388	0.11
204.851	0.11
205.314	0.11
205.777	0.08
206.24	0.11
206.703	0.1
207.166	0.1
207.629	0.11
208.092	0.12
208.555	0.1
209.018	0.1
209.48	0.12
209.943	0.11
210.406	0.11
210.868	0.1
211.331	0.12
211.793	0.1
212.256	0.11
212.718	0.11
213.18	0.11
213.643	0.11
214.105	0.11
214.567	0.11
215.029	0.12
215.491	0.11
215.953	0.12
216.415	0.11
216.877	0.12
217.339	0.09
217.801	0.1
218.263	0.11
218.725	0.1
219.186	0.11
219.648	0.1
220.11	0.1
220.571	0.11
221.033	0.11
221.494	0.11
221.956	0.11
222.417	0.09
222.878	0.1
223.34	0.11
223.801	0.09
224.262	0.1
224.723	0.1
225.185	0.11
225.646	0.1
226.107	0.11
226.568	0.12
227.029	0.12
227.489	0.1
227.95	0.1
228.411	0.09
228.872	0.12
229.332	0.11
229.793	0.11
230.254	0.11
230.714	0.1
231.175	0.09
231.635	0.1
232.096	0.09
232.556	0.12
233.016	0.12
233.477	0.08
233.937	0.11
234.397	0.12
234.857	0.1
235.317	0.11
235.777	0.1
236.237	0.11
236.697	0.11
237.157	0.1
237.617	0.12
238.077	0.13
238.537	0.09
238.996	0.11
239.456	0.1
239.916	0.1
240.375	0.11
240.835	0.1
241.294	0.08
241.754	0.11
242.213	0.1
242.672	0.13
243.132	0.09
243.591	0.12
244.05	0.1
244.509	0.1
244.968	0.1
245.427	0.1
245.886	0.1
246.345	0.11
246.804	0.1
247.263	0.11
247.722	0.09
248.181	0.09
248.639	0.12
249.098	0.09
249.557	0.1
250.015	0.12
250.474	0.1
250.932	0.11
251.391	0.09
251.849	0.1
252.308	0.12
252.766	0.12
253.224	0.12
253.682	0.1
254.14	0.11
254.599	0.11
255.057	0.12
255.515	0.12
255.973	0.12
256.431	0.09
256.888	0.12
257.346	0.09
257.804	0.11
258.262	0.12
258.719	0.11
259.177	0.11
259.635	0.09
260.092	0.11
260.55	0.11
261.007	0.11
261.465	0.1
261.922	0.1
262.379	0.09
262.836	0.11
263.294	0.11
263.751	0.11
264.208	0.09
264.665	0.1
265.122	0.12
265.579	0.12
266.036	0.11
266.493	0.1
266.95	0.12
267.406	0.12
267.863	0.13
268.32	0.12
268.777	0.1
269.233	0.12
269.69	0.1
270.146	0.12
270.603	0.11
271.059	0.1
271.515	0.12
271.972	0.1
272.428	0.11
272.884	0.13
273.34	0.09
273.796	0.11
274.253	0.12
274.709	0.1
275.165	0.12
275.62	0.1
276.076	0.11
276.532	0.1
276.988	0.11
277.444	0.09
277.899	0.13
278.355	0.12
278.811	0.1
279.266	0.1
279.722	0.11
280.177	0.1
280.633	0.11
281.088	0.1
281.543	0.12
281.998	0.09
282.454	0.12
282.909	0.11
283.364	0.1
283.819	0.1
284.274	0.11
284.729	0.11
285.184	0.11
285.639	0.1
286.094	0.1
286.548	0.12
287.003	0.13
287.458	0.11
287.913	0.11
288.367	0.11
288.822	0.12
289.276	0.11
289.731	0.1
290.185	0.08
290.639	0.12
291.094	0.11
291.548	0.11
292.002	0.09
292.456	0.12
292.91	0.12
293.365	0.1
293.819	0.1
294.273	0.12
294.726	0.11
295.18	0.1
295.634	0.12
296.088	0.12
296.542	0.12
296.995	0.12
297.449	0.1
297.903	0.13
298.356	0.12
298.81	0.11
299.263	0.12
299.716	0.11
300.17	0.11
300.623	0.1
301.076	0.12
301.53	0.11
301.983	0.12
302.436	0.11
302.889	0.13
303.342	0.13
303.795	0.14
304.248	0.13
304.701	0.11
305.153	0.12
305.606	0.11
306.059	0.12
306.512	0.15
306.964	0.1
307.417	0.12
307.869	0.14
308.322	0.13
308.774	0.11
309.227	0.12
309.679	0.13
310.131	0.14
310.584	0.14
311.036	0.14
311.488	0.14
311.94	0.13
312.392	0.15
312.844	0.14
313.296	0.15
313.748	0.15
314.2	0.14
314.652	0.15
315.103	0.15
315.555	0.16
316.007	0.17
316.458	0.15
316.91	0.16
317.361	0.15
317.813	0.16
318.264	0.15
318.716	0.17
319.167	0.17
319.618	0.15
320.07	0.16
320.521	0.17
320.972	0.17
321.423	0.17
321.874	0.17
322.325	0.17
322.776	0.17
323.227	0.17
323.678	0.18
324.128	0.17
324.579	0.18
325.03	0.18
325.48	0.18
325.931	0.19
326.382	0.19
326.832	0.19
327.283	0.19
327.733	0.19
328.183	0.19
328.634	0.2
329.084	0.2
329.534	0.21
329.984	0.21
330.434	0.21
330.884	0.22
331.334	0.22
331.784	0.22
332.234	0.22
332.684	0.23
333.134	0.23
333.584	0.24
334.034	0.24
334.483	0.24
334.933	0.25
335.382	0.25
335.832	0.26
336.281	0.27
336.731	0.27
337.18	0.28
337.63	0.27
338.079	0.28
338.528	0.29
338.977	0.29
339.426	0.29
339.876	0.3
340.325	0.31
340.774	0.31
341.223	0.31
341.671	0.32
342.12	0.33
342.569	0.33
343.018	0.33
343.467	0.34
343.915	0.35
344.364	0.35
344.812	0.35
345.261	0.36
345.709	0.37
346.158	0.38
346.606	0.38
347.054	0.38
347.503	0.39
347.951	0.4
348.399	0.4
348.847	0.41
349.295	0.42
349.743	0.42
350.191	0.43
350.639	0.44
351.087	0.45
351.535	0.46
351.983	0.46
352.43	0.47
352.878	0.48
353.326	0.49
353.773	0.5
354.221	0.51
354.668	0.52
355.116	0.52
355.563	0.54
356.01	0.54
356.458	0.55
356.905	0.57
357.352	0.57
357.799	0.57
358.246	0.59
358.693	0.6
359.14	0.6
359.587	0.6
360.034	0.61
360.481	0.61
360.928	0.63
361.375	0.63
361.821	0.64
362.268	0.64
362.714	0.65
363.161	0.65
363.608	0.66
364.054	0.66
364.5	0.68
364.947	0.69
365.393	0.69
365.839	0.7
366.285	0.7
366.732	0.7
367.178	0.7
367.624	0.7
368.07	0.7
368.516	0.69
368.962	0.69
369.408	0.69
369.853	0.68
370.299	0.68
370.745	0.67
371.19	0.66
371.636	0.66
372.082	0.65
372.527	0.65
372.973	0.64
373.418	0.64
373.863	0.63
374.309	0.63
374.754	0.63
375.199	0.63
375.644	0.62
376.09	0.63
376.535	0.62
376.98	0.62
377.425	0.63
377.87	0.63
378.314	0.63
378.759	0.64
379.204	0.64
379.649	0.65
380.093	0.66
380.538	0.66
380.983	0.68
381.427	0.69
381.872	0.7
382.316	0.71
382.76	0.71
383.205	0.73
383.649	0.73
384.093	0.73
384.537	0.74
384.982	0.74
385.426	0.74
385.87	0.74
386.314	0.73
386.758	0.72
387.201	0.72
387.645	0.72
388.089	0.71
388.533	0.71
388.976	0.71
389.42	0.71
389.864	0.72
390.307	0.73
390.751	0.74
391.194	0.76
391.638	0.78
392.081	0.8
392.524	0.83
392.967	0.84
393.411	0.89
393.854	0.9
394.297	0.91
394.74	0.92
395.183	0.93
395.626	0.94
396.069	0.93
396.512	0.92
396.954	0.9
397.397	0.89
397.84	0.85
398.282	0.83
398.725	0.79
399.168	0.74
399.61	0.71
400.052	0.66
400.495	0.62
400.937	0.58
401.38	0.54
401.822	0.5
402.264	0.47
402.706	0.43
403.148	0.4
403.59	0.37
404.032	0.35
404.474	0.32
404.916	0.31
405.358	0.28
405.8	0.26
406.241	0.25
406.683	0.23
407.125	0.23
407.566	0.21
408.008	0.2
408.449	0.19
408.891	0.18
409.332	0.17
409.774	0.17
410.215	0.16
410.656	0.16
411.097	0.15
411.539	0.14
411.98	0.14
412.421	0.13
412.862	0.13
413.303	0.12
413.744	0.13
414.184	0.12
414.625	0.12
415.066	0.12
415.507	0.12
415.947	0.12
416.388	0.11
416.828	0.11
417.269	0.12
417.709	0.1
418.15	0.1
418.59	0.11
419.03	0.11
419.471	0.11
419.911	0.08
420.351	0.11
420.791	0.1
421.231	0.1
421.671	0.11
422.111	0.1
422.551	0.11
422.991	0.11
423.431	0.1
423.87	0.11
424.31	0.1
424.75	0.1
425.189	0.1
425.629	0.11
426.068	0.1
426.508	0.11
426.947	0.1
427.386	0.09
427.826	0.09
428.265	0.08
428.704	0.1
429.143	0.09
429.582	0.1
430.021	0.11
430.46	0.1
430.899	0.1
431.338	0.11
431.777	0.11
432.216	0.1
432.655	0.11
433.093	0.09
433.532	0.11
433.971	0.09
434.409	0.1
434.848	0.1
435.286	0.09
435.724	0.1
436.163	0.1
436.601	0.1
437.039	0.1
437.477	0.1
437.916	0.1
438.354	0.11
438.792	0.1
439.23	0.11
439.668	0.09
440.105	0.1
440.543	0.09
440.981	0.1
441.419	0.09
441.856	0.1
442.294	0.09
442.732	0.1
443.169	0.1
443.607	0.11
444.044	0.12
444.481	0.1
444.919	0.1
445.356	0.11
445.793	0.11
446.23	0.11
446.668	0.1
447.105	0.1
447.542	0.1
447.979	0.11
448.416	0.11
448.852	0.1
449.289	0.1
449.726	0.1
450.163	0.12
450.599	0.11
451.036	0.11
451.473	0.12
451.909	0.11
452.346	0.1
452.782	0.09
453.218	0.11
453.655	0.11
454.091	0.11
454.527	0.11
454.963	0.11
455.399	0.12
455.835	0.1
456.271	0.1
456.707	0.1
457.143	0.1
457.579	0.11
458.015	0.11
458.451	0.11
458.886	0.11
459.322	0.11
459.758	0.11
460.193	0.1
460.629	0.11
461.064	0.12
461.5	0.12
461.935	0.09
462.37	0.11
462.805	0.11
463.241	0.12
463.676	0.11
464.111	0.11
464.546	0.13
464.981	0.1
465.416	0.12
465.851	0.13
466.286	0.12
466.72	0.13
467.155	0.13
467.59	0.11
468.024	0.12
468.459	0.12
468.893	0.12
469.328	0.13
469.762	0.12
470.197	0.13
470.631	0.12
471.065	0.13
471.5	0.12
471.934	0.11
472.368	0.11
472.802	0.13
473.236	0.13
473.67	0.13
474.104	0.13
474.538	0.13
474.972	0.13
475.405	0.13
475.839	0.13
476.273	0.13
476.706	0.13
477.14	0.13
477.573	0.13
478.007	0.14
478.44	0.14
478.874	0.13
479.307	0.13
479.74	0.13
480.173	0.13
480.606	0.14
481.04	0.14
481.473	0.14
481.906	0.14
482.339	0.14
482.771	0.14
483.204	0.15
483.637	0.14
484.07	0.14
484.502	0.15
484.935	0.15
485.368	0.15
485.8	0.15
486.233	0.15
486.665	0.15
487.098	0.15
487.53	0.15
487.962	0.16
488.394	0.15
488.827	0.15
489.259	0.15
489.691	0.16
490.123	0.16
490.555	0.16
490.987	0.16
491.418	0.17
491.85	0.16
492.282	0.16
492.714	0.17
493.145	0.17
493.577	0.17
494.009	0.17
494.44	0.17
494.872	0.17
495.303	0.17
495.734	0.17
496.166	0.18
496.597	0.18
497.028	0.18
497.459	0.18
497.89	0.18
498.321	0.18
498.752	0.18
499.183	0.18
499.614	0.19
500.045	0.19
500.476	0.19
500.906	0.19
501.337	0.19
501.768	0.2
502.198	0.2
502.629	0.19
503.059	0.2
503.49	0.2
503.92	0.2
504.35	0.2
504.781	0.2
505.211	0.21
505.641	0.2
506.071	0.21
506.501	0.21
506.931	0.21
507.361	0.21
507.791	0.21
508.221	0.21
508.651	0.22
509.081	0.22
509.51	0.22
509.94	0.22
510.37	0.22
510.799	0.23
511.229	0.23
511.658	0.23
512.087	0.23
512.517	0.23
512.946	0.23
513.375	0.23
513.804	0.24
514.234	0.24
514.663	0.23
515.092	0.24
515.521	0.24
515.95	0.24
516.378	0.24
516.807	0.24
517.236	0.24
517.665	0.25
518.093	0.25
518.522	0.25
518.951	0.25
519.379	0.25
519.807	0.25
520.236	0.26
520.664	0.25
521.093	0.25
521.521	0.26
521.949	0.26
522.377	0.26
522.805	0.26
523.233	0.26
523.661	0.27
524.089	0.26
524.517	0.26
524.945	0.26
525.373	0.27
525.8	0.27
526.228	0.27
526.656	0.27
527.083	0.27
527.511	0.27
527.938	0.28
528.366	0.28
528.793	0.28
529.22	0.28
529.648	0.28
530.075	0.28
530.502	0.28
530.929	0.28
531.356	0.29
531.783	0.29
532.21	0.28
532.637	0.29
533.064	0.29
533.49	0.29
533.917	0.29
534.344	0.29
534.771	0.29
535.197	0.3
535.624	0.3
536.05	0.3
536.477	0.3
536.903	0.3
537.329	0.31
537.755	0.3
538.182	0.31
538.608	0.31
539.034	0.31
539.46	0.31
539.886	0.31
540.312	0.31
540.738	0.32
541.164	0.32
541.589	0.32
542.015	0.32
542.441	0.32
542.867	0.32
543.292	0.32
543.718	0.32
544.143	0.32
544.569	0.33
544.994	0.33
545.419	0.33
545.845	0.33
546.27	0.33
546.695	0.34
547.12	0.33
547.545	0.34
547.97	0.34
548.395	0.34
548.82	0.34
549.245	0.34
549.67	0.34
550.094	0.34
550.519	0.34
550.944	0.34
551.368	0.34
551.793	0.34
552.217	0.34
552.642	0.34
553.066	0.35
553.49	0.35
553.915	0.35
554.339	0.35
554.763	0.35
555.187	0.35
555.611	0.35
556.035	0.35
556.459	0.35
556.883	0.35
557.307	0.35
557.731	0.35
558.154	0.35
558.578	0.35
559.002	0.36
559.425	0.35
559.849	0.35
560.272	0.36
560.696	0.35
561.119	0.35
561.543	0.35
561.966	0.35
562.389	0.36
562.812	0.35
563.235	0.36
563.658	0.35
564.081	0.35
564.504	0.35
564.927	0.35
565.35	0.36
565.773	0.36
566.196	0.35
566.618	0.36
567.041	0.35
567.463	0.35
567.886	0.35
568.309	0.36
568.731	0.36
569.153	0.36
569.576	0.35
569.998	0.36
570.42	0.36
570.842	0.35
571.264	0.36
571.686	0.35
572.108	0.35
572.53	0.35
572.952	0.35
573.374	0.35
573.796	0.35
574.218	0.35
574.639	0.35
575.061	0.35
575.483	0.35
575.904	0.35
576.326	0.35
576.747	0.35
577.168	0.35
577.59	0.35
578.011	0.35
578.432	0.35
578.853	0.35
579.274	0.35
579.695	0.35
580.116	0.35
580.537	0.36
580.958	0.36
581.379	0.36
581.8	0.35
582.221	0.35
582.641	0.35
583.062	0.36
583.482	0.35
583.903	0.36
584.323	0.36
584.744	0.36
585.164	0.36
585.584	0.36
586.005	0.36
586.425	0.36
586.845	0.36
587.265	0.36
587.685	0.36
588.105	0.36
588.525	0.36
588.945	0.36
589.365	0.36
589.785	0.37
590.204	0.37
590.624	0.37
591.044	0.37
591.463	0.37
591.883	0.38
592.302	0.38
592.721	0.38
593.141	0.38
593.56	0.38
593.979	0.38
594.399	0.38
594.818	0.38
595.237	0.38
595.656	0.38
596.075	0.38
596.494	0.38
596.913	0.39
597.331	0.39
597.75	0.39
598.169	0.39
598.587	0.39
599.006	0.39
599.425	0.39
599.843	0.39
600.262	0.39
600.68	0.39
601.098	0.39
601.517	0.39
601.935	0.39
602.353	0.39
602.771	0.38
603.189	0.39
603.607	0.39
604.025	0.39
604.443	0.38
604.861	0.39
605.279	0.38
605.696	0.38
606.114	0.38
606.532	0.38
606.949	0.38
607.367	0.38
607.784	0.38
608.202	0.37
608.619	0.37
609.036	0.37
609.454	0.37
609.871	0.37
610.288	0.37
610.705	0.37
611.122	0.37
611.539	0.37
611.956	0.36
612.373	0.36
612.79	0.36
613.207	0.36
613.623	0.36
614.04	0.36
614.457	0.36
614.873	0.36
615.29	0.35
615.706	0.35
616.122	0.35
616.539	0.35
616.955	0.35
617.371	0.35
617.788	0.34
618.204	0.35
618.62	0.35
619.036	0.34
619.452	0.34
619.868	0.34
620.284	0.34
620.699	0.34
621.115	0.33
621.531	0.33
621.946	0.33
622.362	0.33
622.778	0.33
623.193	0.32
623.608	0.32
624.024	0.32
624.439	0.32
624.854	0.32
625.27	0.31
625.685	0.32
626.1	0.31
626.515	0.31
626.93	0.31
627.345	0.31
627.76	0.3
628.175	0.3
628.589	0.3
629.004	0.3
629.419	0.3
629.833	0.29
630.248	0.29
630.663	0.29
631.077	0.29
631.491	0.28
631.906	0.28
632.32	0.28
632.734	0.27
633.148	0.27
633.563	0.27
633.977	0.27
634.391	0.27
634.805	0.26
635.219	0.26
635.632	0.26
636.046	0.26
636.46	0.26
636.874	0.25
637.287	0.25
637.701	0.25
638.115	0.24
638.528	0.24
638.941	0.24
639.355	0.24
639.768	0.23
640.181	0.23
640.595	0.23
641.008	0.23
641.421	0.23
641.834	0.23
642.247	0.22
642.66	0.22
643.073	0.22
643.486	0.22
643.898	0.22
644.311	0.22
644.724	0.22
645.136	0.21
645.549	0.21
645.961	0.21
646.374	0.21
646.786	0.21
647.199	0.21
647.611	0.21
648.023	0.21
648.435	0.21
648.847	0.21
649.26	0.21
649.672	0.21
650.084	0.2
650.495	0.2
650.907	0.21
651.319	0.2
651.731	0.2
652.143	0.2
652.554	0.2
652.966	0.2
653.377	0.2
653.789	0.2
654.2	0.2
654.612	0.2
655.023	0.2
655.434	0.17
655.845	0.16
656.256	0.18
656.668	0.21
657.079	0.2
657.49	0.19
657.901	0.19
658.311	0.19
658.722	0.19
659.133	0.19
659.544	0.19
659.954	0.19
660.365	0.19
660.775	0.19
661.186	0.19
661.596	0.19
662.007	0.19
662.417	0.19
662.827	0.19
663.238	0.19
663.648	0.19
664.058	0.19
664.468	0.19
664.878	0.19
665.288	0.19
665.698	0.19
666.108	0.19
666.517	0.18
666.927	0.19
667.337	0.18
667.746	0.18
668.156	0.18
668.565	0.18
668.975	0.18
669.384	0.18
669.794	0.18
670.203	0.18
670.612	0.17
671.021	0.17
671.43	0.17
671.84	0.17
672.249	0.17
672.658	0.17
673.066	0.17
673.475	0.17
673.884	0.17
674.293	0.16
674.702	0.16
675.11	0.16
675.519	0.16
675.927	0.16
676.336	0.16
676.744	0.15
677.152	0.16
677.561	0.15
677.969	0.15
678.377	0.15
678.785	0.15
679.193	0.15
679.601	0.15
680.009	0.14
680.417	0.14
680.825	0.14
681.233	0.14
681.641	0.14
682.048	0.14
682.456	0.13
682.864	0.13
683.271	0.13
683.679	0.13
684.086	0.13
684.493	0.13
684.901	0.13
685.308	0.12
685.715	0.12
686.122	0.12
686.529	0.12
686.936	0.12
687.343	0.12
687.75	0.12
688.157	0.11
688.564	0.11
688.971	0.11
689.378	0.11
689.784	0.11
690.191	0.1
690.597	0.11
691.004	0.1
691.41	0.1
691.817	0.1
692.223	0.1
692.629	0.1
693.035	0.1
693.442	0.1
693.848	0.1
694.254	0.1
694.66	0.09
695.066	0.09
695.471	0.09
695.877	0.09
696.283	0.09
696.689	0.09
697.094	0.09
697.5	0.09
697.906	0.09
698.311	0.09
698.716	0.08
699.122	0.09
699.527	0.09
699.932	0.08
700.338	0.08
700.743	0.08
701.148	0.08
701.553	0.08
701.958	0.08
702.363	0.08
702.768	0.08
703.173	0.08
703.577	0.08
703.982	0.08
704.387	0.08
704.791	0.08
705.196	0.08
705.6	0.08
706.005	0.07
706.409	0.08
706.814	0.07
707.218	0.07
707.622	0.08
708.026	0.07
708.43	0.07
708.834	0.07
709.238	0.07
709.642	0.08
710.046	0.08
710.45	0.08
710.854	0.07
711.257	0.07
711.661	0.07
712.065	0.07
712.468	0.08
712.872	0.07
713.275	0.07
713.679	0.07
714.082	0.08
714.485	0.08
714.888	0.07
715.291	0.07
715.695	0.08
716.098	0.07
716.501	0.07
716.904	0.08
717.306	0.08
717.709	0.08
718.112	0.07
718.515	0.08
718.917	0.08
719.32	0.08
719.723	0.08
720.125	0.08
720.527	0.08
720.93	0.08
721.332	0.08
721.734	0.08
722.137	0.08
722.539	0.08
722.941	0.08
723.343	0.08
723.745	0.08
724.147	0.08
724.549	0.08
724.95	0.08
725.352	0.08
725.754	0.08
726.156	0.08
726.557	0.08
726.959	0.08
727.36	0.08
727.762	0.08
728.163	0.08
728.564	0.08
728.966	0.08
729.367	0.08
729.768	0.08
730.169	0.08
730.57	0.08
730.971	0.08
731.372	0.08
731.773	0.08
732.174	0.08
732.574	0.08
732.975	0.08
733.376	0.08
733.776	0.08
734.177	0.08
734.577	0.08
734.978	0.08
735.378	0.08
735.778	0.08
736.179	0.08
736.579	0.08
736.979	0.08
737.379	0.08
737.779	0.08
738.179	0.08
738.579	0.08
738.979	0.08
739.379	0.08
739.778	0.08
740.178	0.08
740.578	0.08
740.977	0.07
741.377	0.07
741.776	0.07
742.176	0.07
742.575	0.07
742.974	0.07
743.374	0.07
743.773	0.07
744.172	0.07
744.571	0.07
744.97	0.07
745.369	0.07
745.768	0.07
746.167	0.07
746.565	0.07
746.964	0.07
747.363	0.07
747.761	0.07
748.16	0.07
748.559	0.07
748.957	0.07
749.355	0.06
749.754	0.06
750.152	0.06
750.55	0.06
750.948	0.06
751.347	0.06
751.745	0.06
752.143	0.06
752.541	0.06
752.938	0.06
753.336	0.06
753.734	0.06
754.132	0.06
754.529	0.06
754.927	0.06
755.325	0.05
755.722	0.05
756.119	0.05
756.517	0.06
756.914	0.05
757.311	0.05
757.709	0.05
758.106	0.05
758.503	0.05
758.9	0.05
759.297	0.05
759.694	0.05
760.091	0.05
760.488	0.05
760.884	0.05
761.281	0.05
761.678	0.05
762.074	0.05
762.471	0.05
762.867	0.05
763.264	0.05
763.66	0.05
764.056	0.05
764.453	0.05
764.849	0.05
765.245	0.05
765.641	0.05
766.037	0.05
766.433	0.05
766.829	0.05
767.225	0.05
767.621	0.05
768.016	0.05
768.412	0.04
768.808	0.04
769.203	0.04
769.599	0.05
769.994	0.05
770.389	0.04
770.785	0.04
771.18	0.05
771.575	0.04
771.971	0.05
772.366	0.05
772.761	0.04
773.156	0.05
773.551	0.05
773.945	0.05
774.34	0.04
774.735	0.05
775.13	0.05
775.524	0.04
775.919	0.05
776.314	0.05
776.708	0.04
777.103	0.05
777.497	0.05
777.891	0.05
778.285	0.05
778.68	0.04
779.074	0.04
779.468	0.05
779.862	0.05
780.256	0.05
780.65	0.05
781.044	0.05
781.438	0.05
781.831	0.05
782.225	0.05
782.619	0.05
783.012	0.05
783.406	0.04
783.799	0.04
784.193	0.05
784.586	0.05
784.979	0.05
785.372	0.05
785.766	0.05
786.159	0.05
786.552	0.05
786.945	0.05
787.338	0.05
787.731	0.05
788.123	0.05
788.516	0.05
788.909	0.05
789.302	0.05
789.694	0.05
790.087	0.05
790.479	0.05
790.872	0.05
791.264	0.05
791.656	0.05
792.049	0.05
792.441	0.05
792.833	0.05
793.225	0.05
793.617	0.05
794.009	0.05
794.401	0.05
794.793	0.05
795.185	0.05
795.576	0.05
795.968	0.05
796.36	0.05
796.751	0.05
797.143	0.05
797.534	0.05
797.926	0.05
798.317	0.05
798.708	0.05
799.1	0.05
799.491	0.05
799.882	0.05
800.273	0.05
800.664	0.05
801.055	0.05
801.446	0.05
801.837	0.05
802.227	0.05
802.618	0.06
803.009	0.05
803.399	0.06
803.79	0.05
804.18	0.06
804.571	0.05
804.961	0.05
805.351	0.05
805.742	0.05
806.132	0.05
806.522	0.06
806.912	0.05
807.302	0.06
807.692	0.06
808.082	0.06
808.472	0.06
808.862	0.06
809.251	0.06
809.641	0.06
810.031	0.06
810.42	0.06
810.81	0.06
811.199	0.06
811.589	0.06
811.978	0.06
812.367	0.06
812.756	0.06
813.146	0.06
813.535	0.06
813.924	0.06
814.313	0.06
814.702	0.06
815.091	0.06
815.479	0.06
815.868	0.06
816.257	0.06
816.645	0.06
817.034	0.06
817.423	0.06
817.811	0.06
818.199	0.06
818.588	0.06
818.976	0.06
819.364	0.06
819.753	0.06
820.141	0.06
820.529	0.06
820.917	0.06
821.305	0.06
821.693	0.06
822.08	0.06
822.468	0.06
822.856	0.06
823.244	0.06
823.631	0.06
824.019	0.06
824.406	0.06
824.794	0.06
825.181	0.06
825.568	0.06
825.956	0.06
826.343	0.06
826.73	0.06
827.117	0.06
827.504	0.06
827.891	0.06
828.278	0.06
828.665	0.07
829.052	0.06
829.438	0.06
829.825	0.06
830.212	0.06
830.598	0.06
830.985	0.06
831.371	0.06
831.757	0.07
832.144	0.06
832.53	0.07
832.916	0.06
833.302	0.06
833.688	0.07
834.075	0.06
834.461	0.06
834.846	0.07
835.232	0.06
835.618	0.06
836.004	0.07
836.39	0.06
836.775	0.06
837.161	0.07
837.546	0.07
837.932	0.07
838.317	0.07
838.702	0.07
839.088	0.07
839.473	0.06
839.858	0.07
840.243	0.07
840.628	0.06
841.013	0.07
841.398	0.06
841.783	0.07
842.168	0.07
842.553	0.07
842.937	0.07
843.322	0.07
843.707	0.07
844.091	0.07
844.476	0.07
844.86	0.07
845.244	0.07
845.629	0.07
846.013	0.07
846.397	0.07
846.781	0.07
847.165	0.07
847.549	0.07
847.933	0.07
848.317	0.07
848.701	0.07
849.085	0.07
849.468	0.07
849.852	0.07
850.236	0.07
850.619	0.07
851.003	0.07
851.386	0.07
851.769	0.07
852.153	0.07
852.536	0.07
852.919	0.07
853.302	0.07
853.685	0.07
854.068	0.07
854.451	0.07
854.834	0.07
855.217	0.07
855.6	0.07
855.982	0.07
856.365	0.07
856.748	0.07
857.13	0.07
857.513	0.07
857.895	0.07
858.277	0.07
858.66	0.07
859.042	0.07
859.424	0.07
859.806	0.07
860.188	0.07
860.57	0.07
860.952	0.07
861.334	0.07
861.716	0.07
862.098	0.07
862.48	0.07
862.861	0.07
863.243	0.07
863.624	0.07
864.006	0.07
864.387	0.07
864.769	0.07
865.15	0.07
865.531	0.07
865.912	0.07
866.294	0.07
866.675	0.07
867.056	0.07
867.437	0.07
867.818	0.07
868.198	0.07
868.579	0.07
868.96	0.07
869.341	0.07
869.721	0.07
870.102	0.07
870.482	0.07
870.863	0.07
871.243	0.07
871.623	0.07
872.003	0.07
872.384	0.07
872.764	0.07
873.144	0.07
873.524	0.07
873.904	0.07
874.284	0.07
874.664	0.07
875.043	0.07
875.423	0.07
875.803	0.07
876.182	0.07
876.562	0.07
876.941	0.07
877.321	0.07
877.7	0.07
878.079	0.07
878.459	0.07
878.838	0.07
879.217	0.07
879.596	0.07
879.975	0.07
880.354	0.07
880.733	0.07
881.112	0.07
881.491	0.07
881.869	0.07
882.248	0.07
882.627	0.07
883.005	0.07
883.384	0.07
883.762	0.07
884.14	0.07
884.519	0.07
884.897	0.07
885.275	0.07
885.653	0.07
886.031	0.07
886.409	0.07
886.787	0.07
887.165	0.07
887.543	0.07
887.921	0.07
888.298	0.07
888.676	0.07
889.054	0.07
889.431	0.07
889.809	0.07
890.186	0.07
890.563	0.07
890.941	0.07
891.318	0.07
891.695	0.07
892.072	0.07
892.449	0.07
892.826	0.07
893.203	0.07
893.58	0.07
893.957	0.07
894.334	0.07
894.71	0.07
895.087	0.07
895.464	0.07
895.84	0.07
896.217	0.07
896.593	0.07
896.969	0.07
897.346	0.07
897.722	0.07
898.098	0.07
898.474	0.07
898.85	0.07
899.226	0.07
899.602	0.07
899.978	0.07
900.354	0.07
900.73	0.07
901.105	0.06
901.481	0.07
901.857	0.07
902.232	0.07
902.608	0.07
902.983	0.07
903.358	0.07
903.734	0.07
904.109	0.07
904.484	0.06
904.859	0.07
905.234	0.07
905.609	0.07
905.984	0.07
906.359	0.07
906.734	0.06
907.108	0.07
907.483	0.07
907.858	0.06
908.232	0.07
908.607	0.07
908.981	0.07
909.356	0.06
909.73	0.07
910.104	0.07
910.478	0.07
910.853	0.06
911.227	0.07
911.601	0.07
911.975	0.06
912.349	0.07
912.722	0.06
913.096	0.06
913.47	0.06
913.844	0.06
914.217	0.06
914.591	0.06
914.964	0.06
915.338	0.06
915.711	0.06
916.084	0.07
916.458	0.06
916.831	0.06
917.204	0.06
917.577	0.06
917.95	0.06
918.323	0.06
918.696	0.06
919.069	0.06
919.441	0.06
919.814	0.06
920.187	0.06
920.559	0.06
920.932	0.06
921.304	0.06
921.677	0.06
922.049	0.06
922.421	0.06
922.794	0.06
923.166	0.06
923.538	0.06
923.91	0.06
924.282	0.06
924.654	0.06
925.026	0.06
925.398	0.06
925.769	0.06
926.141	0.06
926.513	0.06
926.884	0.06
927.256	0.06
927.627	0.06
927.999	0.06
928.37	0.06
928.741	0.06
929.113	0.06
929.484	0.06
929.855	0.06
930.226	0.06
930.597	0.06
930.968	0.06
931.339	0.06
931.709	0.06
932.08	0.06
932.451	0.06
932.821	0.06
933.192	0.06
933.562	0.06
933.933	0.06
934.303	0.06
934.673	0.06
935.044	0.05
935.414	0.06
935.784	0.05
936.154	0.06
936.524	0.06
936.894	0.06
937.264	0.06
937.634	0.06
938.004	0.06
938.373	0.06
938.743	0.06
939.113	0.06
939.482	0.05
939.852	0.06
940.221	0.05
940.59	0.06
940.96	0.06
941.329	0.06
941.698	0.06
942.067	0.06
942.436	0.06
942.805	0.05
943.174	0.05
943.543	0.06
943.912	0.05
944.28	0.05
944.649	0.06
945.018	0.06
945.386	0.06
945.755	0.06
946.123	0.05
946.492	0.06
946.86	0.06
947.228	0.06
947.596	0.06
947.965	0.06
948.333	0.06
948.701	0.06
949.069	0.06
949.437	0.06
949.804	0.05
950.172	0.05
950.54	0.05
950.908	0.06
951.275	0.05
951.643	0.05
952.01	0.05
952.378	0.05
952.745	0.05
953.112	0.05
953.479	0.05
953.847	0.06
954.214	0.05
954.581	0.05
954.948	0.05
955.315	0.05
955.682	0.05
956.048	0.05
956.415	0.05
956.782	0.05
957.148	0.05
957.515	0.05
957.881	0.05
958.248	0.05
958.614	0.05
958.981	0.05
959.347	0.05
959.713	0.05
960.079	0.05
960.445	0.05
960.811	0.05
961.177	0.05
961.543	0.05
961.909	0.05
962.275	0.05
962.641	0.05
963.006	0.05
963.372	0.05
963.737	0.05
964.103	0.05
964.468	0.05
964.834	0.05
965.199	0.05
965.564	0.05
965.929	0.05
966.294	0.05
966.659	0.05
967.024	0.05
967.389	0.05
967.754	0.05
968.119	0.05
968.484	0.04
968.848	0.05
969.213	0.05
969.578	0.05
969.942	0.04
970.307	0.05
970.671	0.05
971.035	0.05
971.399	0.05
971.764	0.05
972.128	0.05
972.492	0.05
972.856	0.05
973.22	0.05
973.584	0.05
973.948	0.05
974.311	0.05
974.675	0.05
975.039	0.05
975.402	0.05
975.766	0.05
976.129	0.05
976.493	0.04
976.856	0.04
977.219	0.05
977.582	0.05
977.946	0.05
978.309	0.04
978.672	0.04
979.035	0.04
979.398	0.05
979.761	0.05
980.123	0.05
980.486	0.04
980.849	0.05
981.211	0.04
981.574	0.05
981.936	0.04
982.299	0.04
982.661	0.04
983.023	0.04
983.386	0.04
983.748	0.05
984.11	0.05
984.472	0.05
984.834	0.05
985.196	0.05
985.558	0.05
985.92	0.04
986.281	0.04
986.643	0.04
987.005	0.04
987.366	0.05
987.728	0.04
988.089	0.04
988.451	0.04
988.812	0.05
989.173	0.04
989.534	0.04
989.895	0.04
990.257	0.04
990.618	0.04
990.979	0.04
991.339	0.04
991.7	0.04
992.061	0.04
992.422	0.04
992.782	0.04
993.143	0.04
993.503	0.05
993.864	0.04
994.224	0.04
994.585	0.04
994.945	0.04
995.305	0.04
995.665	0.04
996.025	0.05
996.385	0.04
996.745	0.04
997.105	0.04
997.465	0.05
997.825	0.04
998.185	0.04
998.544	0.05
998.904	0.04
999.263	0.04
999.623	0.04
999.982	0.04
1000.342	0.04
1000.701	0.04
1001.06	0.04
1001.419	0.04
1001.778	0.04
1002.138	0.04
1002.497	0.04
1002.855	0.04
1003.214	0.04
1003.573	0.04
1003.932	0.04
1004.29	0.04
1004.649	0.04
1005.008	0.04
1005.366	0.04
1005.725	0.04
1006.083	0.04
1006.441	0.04
1006.799	0.04
1007.158	0.04
1007.516	0.04
1007.874	0.04
1008.232	0.04
1008.59	0.04
1008.948	0.04
1009.305	0.04
1009.663	0.04
1010.021	0.04
1010.379	0.04
1010.736	0.04
1011.094	0.04
1011.451	0.04
1011.808	0.04
1012.166	0.04
1012.523	0.04
1012.88	0.04
1013.237	0.04
1013.594	0.04
1013.951	0.04
1014.308	0.04
1014.665	0.04
1015.022	0.03
1015.379	0.04
1015.735	0.03
1016.092	0.04
1016.449	0.04
1016.805	0.04
1017.162	0.04
1017.518	0.04
1017.874	0.04
1018.231	0.04
1018.587	0.04
1018.943	0.04
1019.299	0.04
1019.655	0.03
1020.011	0.04
1020.367	0.04
1020.723	0.04
1021.078	0.04
1021.434	0.04
1021.79	0.04
1022.145	0.04
1022.501	0.03
1022.856	0.04
1023.212	0.04
1023.567	0.04
1023.922	0.04
1024.278	0.04
1024.633	0.03
1024.988	0.04
1025.343	0.03
1025.698	0.04
1026.053	0.04
1026.408	0.04
1026.762	0.04
1027.117	0.03
1027.472	0.04
1027.826	0.03
1028.181	0.04
1028.535	0.04
1028.89	0.04
1029.244	0.04
1029.598	0.04
1029.952	0.04
1030.307	0.04
1030.661	0.04
1031.015	0.04
1031.369	0.04
1031.723	0.03
1032.076	0.03
