Data from Rubpy_EV_EDTA_TU(3000)_Blank_Blue_Flow_Absorbance__851__11-10-04-576.txt Node

Date: Mon Aug 03 11:10:04 BST 2026
User: fpm-admin
Spectrometer: SR600986
Trigger mode: 0
Integration Time (sec): 8.000000E-3
Scans to average: 3
Nonlinearity correction enabled: true
Boxcar width: 0
Storing dark spectrum: false
XAxis mode: Wavelengths
Number of Pixels in Spectrum: 2048
>>>>>Begin Spectral Data<<<<<
188.613	0.15
189.078	0.15
189.542	0.14
190.007	0.13
190.472	0.11
190.936	0.13
191.401	0.14
191.865	0.14
192.33	0.13
192.794	0.14
193.258	0.13
193.723	0.15
194.187	0.15
194.651	0.14
195.115	0.14
195.579	0.13
196.043	0.13
196.507	0.13
196.971	0.13
197.435	0.16
197.899	0.12
198.363	0.13
198.827	0.14
199.29	0.13
199.754	0.14
200.218	0.12
200.681	0.13
201.145	0.14
201.608	0.14
202.072	0.13
202.535	0.13
202.998	0.14
203.462	0.15
203.925	0.13
204.388	0.13
204.851	0.14
205.314	0.15
205.777	0.13
206.24	0.14
206.703	0.12
207.166	0.13
207.629	0.14
208.092	0.14
208.555	0.13
209.018	0.14
209.48	0.15
209.943	0.13
210.406	0.13
210.868	0.12
211.331	0.14
211.793	0.12
212.256	0.13
212.718	0.12
213.18	0.14
213.643	0.14
214.105	0.14
214.567	0.14
215.029	0.14
215.491	0.14
215.953	0.15
216.415	0.14
216.877	0.14
217.339	0.13
217.801	0.14
218.263	0.15
218.725	0.13
219.186	0.14
219.648	0.12
220.11	0.14
220.571	0.13
221.033	0.12
221.494	0.13
221.956	0.12
222.417	0.13
222.878	0.13
223.34	0.13
223.801	0.12
224.262	0.13
224.723	0.14
225.185	0.13
225.646	0.13
226.107	0.12
226.568	0.15
227.029	0.16
227.489	0.14
227.95	0.14
228.411	0.12
228.872	0.14
229.332	0.12
229.793	0.14
230.254	0.15
230.714	0.13
231.175	0.13
231.635	0.11
232.096	0.12
232.556	0.14
233.016	0.15
233.477	0.13
233.937	0.14
234.397	0.14
234.857	0.13
235.317	0.13
235.777	0.09
236.237	0.12
236.697	0.15
237.157	0.12
237.617	0.13
238.077	0.16
238.537	0.13
238.996	0.14
239.456	0.12
239.916	0.16
240.375	0.14
240.835	0.13
241.294	0.12
241.754	0.13
242.213	0.14
242.672	0.14
243.132	0.13
243.591	0.14
244.05	0.13
244.509	0.12
244.968	0.13
245.427	0.12
245.886	0.14
246.345	0.13
246.804	0.14
247.263	0.13
247.722	0.16
248.181	0.12
248.639	0.13
249.098	0.13
249.557	0.14
250.015	0.14
250.474	0.16
250.932	0.12
251.391	0.12
251.849	0.14
252.308	0.13
252.766	0.14
253.224	0.12
253.682	0.12
254.14	0.15
254.599	0.14
255.057	0.12
255.515	0.14
255.973	0.13
256.431	0.14
256.888	0.15
257.346	0.15
257.804	0.13
258.262	0.13
258.719	0.13
259.177	0.13
259.635	0.13
260.092	0.15
260.55	0.14
261.007	0.13
261.465	0.12
261.922	0.13
262.379	0.13
262.836	0.13
263.294	0.14
263.751	0.15
264.208	0.12
264.665	0.14
265.122	0.13
265.579	0.13
266.036	0.14
266.493	0.13
266.95	0.14
267.406	0.14
267.863	0.12
268.32	0.14
268.777	0.13
269.233	0.14
269.69	0.15
270.146	0.14
270.603	0.14
271.059	0.14
271.515	0.15
271.972	0.14
272.428	0.15
272.884	0.14
273.34	0.12
273.796	0.14
274.253	0.14
274.709	0.14
275.165	0.14
275.62	0.14
276.076	0.15
276.532	0.13
276.988	0.14
277.444	0.12
277.899	0.14
278.355	0.14
278.811	0.12
279.266	0.12
279.722	0.15
280.177	0.14
280.633	0.14
281.088	0.12
281.543	0.14
281.998	0.12
282.454	0.13
282.909	0.14
283.364	0.14
283.819	0.13
284.274	0.13
284.729	0.13
285.184	0.13
285.639	0.13
286.094	0.13
286.548	0.16
287.003	0.15
287.458	0.14
287.913	0.16
288.367	0.15
288.822	0.15
289.276	0.13
289.731	0.13
290.185	0.13
290.639	0.15
291.094	0.14
291.548	0.15
292.002	0.14
292.456	0.12
292.91	0.16
293.365	0.15
293.819	0.12
294.273	0.15
294.726	0.13
295.18	0.14
295.634	0.16
296.088	0.14
296.542	0.15
296.995	0.14
297.449	0.14
297.903	0.16
298.356	0.13
298.81	0.15
299.263	0.14
299.716	0.12
300.17	0.13
300.623	0.14
301.076	0.15
301.53	0.13
301.983	0.14
302.436	0.13
302.889	0.15
303.342	0.15
303.795	0.16
304.248	0.15
304.701	0.14
305.153	0.14
305.606	0.14
306.059	0.14
306.512	0.15
306.964	0.15
307.417	0.15
307.869	0.16
308.322	0.17
308.774	0.16
309.227	0.15
309.679	0.17
310.131	0.16
310.584	0.16
311.036	0.17
311.488	0.18
311.94	0.16
312.392	0.18
312.844	0.17
313.296	0.19
313.748	0.18
314.2	0.17
314.652	0.18
315.103	0.17
315.555	0.19
316.007	0.19
316.458	0.19
316.91	0.19
317.361	0.19
317.813	0.2
318.264	0.2
318.716	0.2
319.167	0.22
319.618	0.2
320.07	0.2
320.521	0.2
320.972	0.22
321.423	0.21
321.874	0.19
322.325	0.21
322.776	0.2
323.227	0.22
323.678	0.21
324.128	0.22
324.579	0.23
325.03	0.22
325.48	0.23
325.931	0.23
326.382	0.23
326.832	0.24
327.283	0.25
327.733	0.24
328.183	0.25
328.634	0.26
329.084	0.26
329.534	0.27
329.984	0.27
330.434	0.27
330.884	0.28
331.334	0.29
331.784	0.29
332.234	0.29
332.684	0.3
333.134	0.3
333.584	0.31
334.034	0.32
334.483	0.32
334.933	0.32
335.382	0.34
335.832	0.34
336.281	0.34
336.731	0.34
337.18	0.35
337.63	0.36
338.079	0.36
338.528	0.38
338.977	0.38
339.426	0.38
339.876	0.39
340.325	0.4
340.774	0.4
341.223	0.41
341.671	0.42
342.12	0.42
342.569	0.43
343.018	0.44
343.467	0.44
343.915	0.45
344.364	0.46
344.812	0.47
345.261	0.48
345.709	0.48
346.158	0.49
346.606	0.49
347.054	0.5
347.503	0.51
347.951	0.52
348.399	0.53
348.847	0.53
349.295	0.54
349.743	0.56
350.191	0.56
350.639	0.58
351.087	0.58
351.535	0.59
351.983	0.6
352.43	0.61
352.878	0.62
353.326	0.64
353.773	0.64
354.221	0.65
354.668	0.67
355.116	0.68
355.563	0.69
356.01	0.7
356.458	0.72
356.905	0.72
357.352	0.74
357.799	0.74
358.246	0.75
358.693	0.76
359.14	0.78
359.587	0.78
360.034	0.79
360.481	0.79
360.928	0.81
361.375	0.81
361.821	0.82
362.268	0.83
362.714	0.83
363.161	0.84
363.608	0.85
364.054	0.86
364.5	0.87
364.947	0.87
365.393	0.88
365.839	0.89
366.285	0.9
366.732	0.89
367.178	0.89
367.624	0.88
368.07	0.89
368.516	0.88
368.962	0.88
369.408	0.87
369.853	0.87
370.299	0.86
370.745	0.84
371.19	0.84
371.636	0.83
372.082	0.83
372.527	0.82
372.973	0.81
373.418	0.82
373.863	0.81
374.309	0.79
374.754	0.78
375.199	0.79
375.644	0.79
376.09	0.78
376.535	0.78
376.98	0.79
377.425	0.78
377.87	0.78
378.314	0.79
378.759	0.79
379.204	0.79
379.649	0.8
380.093	0.81
380.538	0.82
380.983	0.83
381.427	0.84
381.872	0.86
382.316	0.87
382.76	0.87
383.205	0.88
383.649	0.89
384.093	0.89
384.537	0.9
384.982	0.89
385.426	0.9
385.87	0.89
386.314	0.88
386.758	0.87
387.201	0.87
387.645	0.86
388.089	0.85
388.533	0.85
388.976	0.85
389.42	0.86
389.864	0.86
390.307	0.87
390.751	0.89
391.194	0.91
391.638	0.93
392.081	0.96
392.524	0.98
392.967	1
393.411	1.04
393.854	1.04
394.297	1.06
394.74	1.07
395.183	1.09
395.626	1.08
396.069	1.07
396.512	1.08
396.954	1.05
397.397	1.03
397.84	0.99
398.282	0.97
398.725	0.93
399.168	0.88
399.61	0.84
400.052	0.78
400.495	0.73
400.937	0.69
401.38	0.65
401.822	0.6
402.264	0.56
402.706	0.51
403.148	0.47
403.59	0.45
404.032	0.42
404.474	0.39
404.916	0.37
405.358	0.34
405.8	0.31
406.241	0.3
406.683	0.28
407.125	0.27
407.566	0.25
408.008	0.25
408.449	0.22
408.891	0.22
409.332	0.21
409.774	0.2
410.215	0.19
410.656	0.2
411.097	0.18
411.539	0.17
411.98	0.18
412.421	0.16
412.862	0.15
413.303	0.15
413.744	0.16
414.184	0.16
414.625	0.15
415.066	0.15
415.507	0.14
415.947	0.15
416.388	0.14
416.828	0.13
417.269	0.12
417.709	0.13
418.15	0.12
418.59	0.13
419.03	0.13
419.471	0.13
419.911	0.12
420.351	0.13
420.791	0.12
421.231	0.12
421.671	0.13
422.111	0.13
422.551	0.12
422.991	0.13
423.431	0.12
423.87	0.13
424.31	0.12
424.75	0.12
425.189	0.12
425.629	0.12
426.068	0.13
426.508	0.12
426.947	0.12
427.386	0.11
427.826	0.11
428.265	0.11
428.704	0.13
429.143	0.12
429.582	0.11
430.021	0.12
430.46	0.13
430.899	0.11
431.338	0.13
431.777	0.12
432.216	0.13
432.655	0.13
433.093	0.12
433.532	0.12
433.971	0.12
434.409	0.13
434.848	0.12
435.286	0.12
435.724	0.13
436.163	0.12
436.601	0.13
437.039	0.13
437.477	0.14
437.916	0.13
438.354	0.13
438.792	0.13
439.23	0.14
439.668	0.13
440.105	0.11
440.543	0.12
440.981	0.11
441.419	0.12
441.856	0.12
442.294	0.11
442.732	0.13
443.169	0.13
443.607	0.12
444.044	0.13
444.481	0.13
444.919	0.12
445.356	0.14
445.793	0.12
446.23	0.13
446.668	0.12
447.105	0.13
447.542	0.13
447.979	0.12
448.416	0.14
448.852	0.13
449.289	0.13
449.726	0.13
450.163	0.16
450.599	0.14
451.036	0.13
451.473	0.15
451.909	0.14
452.346	0.13
452.782	0.13
453.218	0.13
453.655	0.12
454.091	0.13
454.527	0.13
454.963	0.14
455.399	0.16
455.835	0.13
456.271	0.13
456.707	0.14
457.143	0.13
457.579	0.15
458.015	0.13
458.451	0.15
458.886	0.14
459.322	0.14
459.758	0.15
460.193	0.13
460.629	0.14
461.064	0.14
461.5	0.13
461.935	0.12
462.37	0.14
462.805	0.14
463.241	0.13
463.676	0.15
464.111	0.14
464.546	0.16
464.981	0.15
465.416	0.16
465.851	0.15
466.286	0.14
466.72	0.14
467.155	0.15
467.59	0.14
468.024	0.15
468.459	0.15
468.893	0.15
469.328	0.16
469.762	0.16
470.197	0.16
470.631	0.16
471.065	0.16
471.5	0.15
471.934	0.15
472.368	0.15
472.802	0.16
473.236	0.16
473.67	0.16
474.104	0.17
474.538	0.16
474.972	0.16
475.405	0.16
475.839	0.16
476.273	0.17
476.706	0.17
477.14	0.17
477.573	0.17
478.007	0.18
478.44	0.18
478.874	0.17
479.307	0.17
479.74	0.18
480.173	0.18
480.606	0.18
481.04	0.18
481.473	0.18
481.906	0.18
482.339	0.19
482.771	0.18
483.204	0.18
483.637	0.19
484.07	0.19
484.502	0.2
484.935	0.19
485.368	0.19
485.8	0.2
486.233	0.2
486.665	0.2
487.098	0.2
487.53	0.2
487.962	0.2
488.394	0.2
488.827	0.21
489.259	0.21
489.691	0.21
490.123	0.21
490.555	0.21
490.987	0.21
491.418	0.22
491.85	0.22
492.282	0.21
492.714	0.22
493.145	0.23
493.577	0.23
494.009	0.23
494.44	0.23
494.872	0.23
495.303	0.23
495.734	0.23
496.166	0.23
496.597	0.24
497.028	0.24
497.459	0.24
497.89	0.24
498.321	0.24
498.752	0.24
499.183	0.25
499.614	0.25
500.045	0.25
500.476	0.25
500.906	0.25
501.337	0.26
501.768	0.26
502.198	0.26
502.629	0.26
503.059	0.26
503.49	0.26
503.92	0.27
504.35	0.27
504.781	0.27
505.211	0.27
505.641	0.28
506.071	0.28
506.501	0.28
506.931	0.28
507.361	0.28
507.791	0.28
508.221	0.29
508.651	0.29
509.081	0.29
509.51	0.29
509.94	0.29
510.37	0.3
510.799	0.3
511.229	0.3
511.658	0.3
512.087	0.3
512.517	0.3
512.946	0.31
513.375	0.31
513.804	0.31
514.234	0.31
514.663	0.31
515.092	0.31
515.521	0.32
515.95	0.32
516.378	0.32
516.807	0.32
517.236	0.32
517.665	0.32
518.093	0.32
518.522	0.33
518.951	0.33
519.379	0.33
519.807	0.33
520.236	0.34
520.664	0.34
521.093	0.33
521.521	0.33
521.949	0.34
522.377	0.34
522.805	0.34
523.233	0.34
523.661	0.35
524.089	0.35
524.517	0.35
524.945	0.35
525.373	0.35
525.8	0.36
526.228	0.35
526.656	0.36
527.083	0.36
527.511	0.36
527.938	0.36
528.366	0.36
528.793	0.37
529.22	0.36
529.648	0.37
530.075	0.37
530.502	0.37
530.929	0.37
531.356	0.37
531.783	0.38
532.21	0.37
532.637	0.38
533.064	0.38
533.49	0.38
533.917	0.38
534.344	0.38
534.771	0.38
535.197	0.38
535.624	0.39
536.05	0.39
536.477	0.39
536.903	0.39
537.329	0.4
537.755	0.4
538.182	0.4
538.608	0.4
539.034	0.4
539.46	0.41
539.886	0.4
540.312	0.41
540.738	0.41
541.164	0.41
541.589	0.41
542.015	0.41
542.441	0.42
542.867	0.42
543.292	0.42
543.718	0.42
544.143	0.42
544.569	0.42
544.994	0.42
545.419	0.43
545.845	0.43
546.27	0.43
546.695	0.43
547.12	0.43
547.545	0.43
547.97	0.43
548.395	0.43
548.82	0.43
549.245	0.44
549.67	0.44
550.094	0.44
550.519	0.43
550.944	0.44
551.368	0.44
551.793	0.44
552.217	0.44
552.642	0.44
553.066	0.44
553.49	0.44
553.915	0.45
554.339	0.44
554.763	0.44
555.187	0.44
555.611	0.45
556.035	0.45
556.459	0.44
556.883	0.45
557.307	0.44
557.731	0.45
558.154	0.45
558.578	0.45
559.002	0.45
559.425	0.45
559.849	0.45
560.272	0.45
560.696	0.45
561.119	0.45
561.543	0.45
561.966	0.45
562.389	0.45
562.812	0.45
563.235	0.45
563.658	0.45
564.081	0.45
564.504	0.45
564.927	0.45
565.35	0.45
565.773	0.45
566.196	0.45
566.618	0.45
567.041	0.45
567.463	0.45
567.886	0.45
568.309	0.45
568.731	0.45
569.153	0.45
569.576	0.45
569.998	0.45
570.42	0.45
570.842	0.45
571.264	0.45
571.686	0.45
572.108	0.45
572.53	0.45
572.952	0.45
573.374	0.45
573.796	0.45
574.218	0.45
574.639	0.45
575.061	0.44
575.483	0.45
575.904	0.44
576.326	0.44
576.747	0.44
577.168	0.45
577.59	0.44
578.011	0.45
578.432	0.44
578.853	0.44
579.274	0.44
579.695	0.44
580.116	0.44
580.537	0.45
580.958	0.45
581.379	0.45
581.8	0.44
582.221	0.45
582.641	0.44
583.062	0.45
583.482	0.44
583.903	0.45
584.323	0.45
584.744	0.45
585.164	0.45
585.584	0.45
586.005	0.45
586.425	0.45
586.845	0.45
587.265	0.45
587.685	0.45
588.105	0.45
588.525	0.46
588.945	0.46
589.365	0.45
589.785	0.46
590.204	0.46
590.624	0.46
591.044	0.46
591.463	0.47
591.883	0.47
592.302	0.47
592.721	0.47
593.141	0.47
593.56	0.47
593.979	0.47
594.399	0.47
594.818	0.47
595.237	0.47
595.656	0.48
596.075	0.48
596.494	0.48
596.913	0.48
597.331	0.48
597.75	0.48
598.169	0.48
598.587	0.48
599.006	0.48
599.425	0.48
599.843	0.48
600.262	0.48
600.68	0.48
601.098	0.48
601.517	0.48
601.935	0.48
602.353	0.48
602.771	0.48
603.189	0.48
603.607	0.48
604.025	0.48
604.443	0.47
604.861	0.47
605.279	0.47
605.696	0.47
606.114	0.47
606.532	0.47
606.949	0.47
607.367	0.47
607.784	0.47
608.202	0.46
608.619	0.46
609.036	0.46
609.454	0.46
609.871	0.46
610.288	0.45
610.705	0.45
611.122	0.45
611.539	0.45
611.956	0.45
612.373	0.45
612.79	0.45
613.207	0.45
613.623	0.44
614.04	0.44
614.457	0.44
614.873	0.44
615.29	0.44
615.706	0.44
616.122	0.43
616.539	0.43
616.955	0.43
617.371	0.43
617.788	0.43
618.204	0.42
618.62	0.42
619.036	0.42
619.452	0.42
619.868	0.42
620.284	0.42
620.699	0.42
621.115	0.41
621.531	0.41
621.946	0.41
622.362	0.41
622.778	0.4
623.193	0.4
623.608	0.4
624.024	0.4
624.439	0.39
624.854	0.39
625.27	0.39
625.685	0.39
626.1	0.39
626.515	0.38
626.93	0.38
627.345	0.38
627.76	0.37
628.175	0.37
628.589	0.37
629.004	0.37
629.419	0.37
629.833	0.36
630.248	0.36
630.663	0.35
631.077	0.35
631.491	0.35
631.906	0.35
632.32	0.34
632.734	0.34
633.148	0.34
633.563	0.33
633.977	0.33
634.391	0.33
634.805	0.32
635.219	0.32
635.632	0.32
636.046	0.31
636.46	0.31
636.874	0.31
637.287	0.31
637.701	0.3
638.115	0.3
638.528	0.3
638.941	0.29
639.355	0.29
639.768	0.29
640.181	0.29
640.595	0.29
641.008	0.29
641.421	0.28
641.834	0.28
642.247	0.28
642.66	0.27
643.073	0.27
643.486	0.27
643.898	0.27
644.311	0.27
644.724	0.27
645.136	0.27
645.549	0.26
645.961	0.26
646.374	0.26
646.786	0.26
647.199	0.26
647.611	0.26
648.023	0.26
648.435	0.25
648.847	0.26
649.26	0.25
649.672	0.25
650.084	0.25
650.495	0.25
650.907	0.25
651.319	0.25
651.731	0.25
652.143	0.25
652.554	0.25
652.966	0.25
653.377	0.25
653.789	0.25
654.2	0.25
654.612	0.25
655.023	0.25
655.434	0.22
655.845	0.2
656.256	0.22
656.668	0.25
657.079	0.24
657.49	0.24
657.901	0.24
658.311	0.24
658.722	0.24
659.133	0.24
659.544	0.24
659.954	0.24
660.365	0.24
660.775	0.24
661.186	0.24
661.596	0.24
662.007	0.24
662.417	0.23
662.827	0.23
663.238	0.23
663.648	0.23
664.058	0.23
664.468	0.23
664.878	0.23
665.288	0.23
665.698	0.23
666.108	0.23
666.517	0.23
666.927	0.22
667.337	0.23
667.746	0.22
668.156	0.22
668.565	0.22
668.975	0.22
669.384	0.22
669.794	0.22
670.203	0.21
670.612	0.21
671.021	0.21
671.43	0.21
671.84	0.21
672.249	0.21
672.658	0.21
673.066	0.21
673.475	0.2
673.884	0.2
674.293	0.2
674.702	0.2
675.11	0.2
675.519	0.19
675.927	0.19
676.336	0.19
676.744	0.19
677.152	0.19
677.561	0.18
677.969	0.18
678.377	0.18
678.785	0.18
679.193	0.18
679.601	0.18
680.009	0.17
680.417	0.17
680.825	0.17
681.233	0.17
681.641	0.17
682.048	0.16
682.456	0.16
682.864	0.16
683.271	0.16
683.679	0.16
684.086	0.15
684.493	0.15
684.901	0.15
685.308	0.15
685.715	0.15
686.122	0.15
686.529	0.14
686.936	0.14
687.343	0.14
687.75	0.14
688.157	0.14
688.564	0.14
688.971	0.14
689.378	0.13
689.784	0.13
690.191	0.13
690.597	0.13
691.004	0.13
691.41	0.13
691.817	0.12
692.223	0.12
692.629	0.12
693.035	0.12
693.442	0.12
693.848	0.12
694.254	0.12
694.66	0.11
695.066	0.11
695.471	0.11
695.877	0.11
696.283	0.11
696.689	0.11
697.094	0.11
697.5	0.11
697.906	0.11
698.311	0.11
698.716	0.1
699.122	0.1
699.527	0.1
699.932	0.1
700.338	0.1
700.743	0.1
701.148	0.1
701.553	0.1
701.958	0.1
702.363	0.1
702.768	0.09
703.173	0.1
703.577	0.09
703.982	0.1
704.387	0.1
704.791	0.1
705.196	0.09
705.6	0.09
706.005	0.09
706.409	0.09
706.814	0.09
707.218	0.09
707.622	0.09
708.026	0.09
708.43	0.09
708.834	0.09
709.238	0.09
709.642	0.09
710.046	0.09
710.45	0.09
710.854	0.09
711.257	0.09
711.661	0.09
712.065	0.09
712.468	0.09
712.872	0.09
713.275	0.09
713.679	0.09
714.082	0.09
714.485	0.09
714.888	0.09
715.291	0.09
715.695	0.09
716.098	0.09
716.501	0.09
716.904	0.09
717.306	0.09
717.709	0.09
718.112	0.09
718.515	0.09
718.917	0.1
719.32	0.1
719.723	0.09
720.125	0.1
720.527	0.09
720.93	0.1
721.332	0.1
721.734	0.1
722.137	0.1
722.539	0.1
722.941	0.1
723.343	0.1
723.745	0.1
724.147	0.1
724.549	0.1
724.95	0.1
725.352	0.1
725.754	0.1
726.156	0.1
726.557	0.1
726.959	0.1
727.36	0.1
727.762	0.1
728.163	0.1
728.564	0.1
728.966	0.1
729.367	0.1
729.768	0.1
730.169	0.1
730.57	0.1
730.971	0.1
731.372	0.1
731.773	0.1
732.174	0.1
732.574	0.1
732.975	0.1
733.376	0.1
733.776	0.1
734.177	0.1
734.577	0.1
734.978	0.1
735.378	0.1
735.778	0.1
736.179	0.1
736.579	0.1
736.979	0.1
737.379	0.1
737.779	0.1
738.179	0.1
738.579	0.1
738.979	0.1
739.379	0.09
739.778	0.1
740.178	0.1
740.578	0.09
740.977	0.09
741.377	0.09
741.776	0.09
742.176	0.09
742.575	0.09
742.974	0.09
743.374	0.09
743.773	0.09
744.172	0.09
744.571	0.09
744.97	0.09
745.369	0.09
745.768	0.09
746.167	0.09
746.565	0.09
746.964	0.08
747.363	0.08
747.761	0.08
748.16	0.08
748.559	0.08
748.957	0.08
749.355	0.08
749.754	0.08
750.152	0.08
750.55	0.08
750.948	0.08
751.347	0.08
751.745	0.08
752.143	0.08
752.541	0.08
752.938	0.07
753.336	0.07
753.734	0.07
754.132	0.07
754.529	0.07
754.927	0.07
755.325	0.07
755.722	0.07
756.119	0.07
756.517	0.07
756.914	0.07
757.311	0.07
757.709	0.07
758.106	0.07
758.503	0.07
758.9	0.07
759.297	0.06
759.694	0.06
760.091	0.06
760.488	0.06
760.884	0.06
761.281	0.06
761.678	0.06
762.074	0.07
762.471	0.06
762.867	0.06
763.264	0.06
763.66	0.06
764.056	0.06
764.453	0.06
764.849	0.06
765.245	0.06
765.641	0.06
766.037	0.06
766.433	0.06
766.829	0.06
767.225	0.06
767.621	0.06
768.016	0.06
768.412	0.06
768.808	0.06
769.203	0.06
769.599	0.06
769.994	0.06
770.389	0.06
770.785	0.06
771.18	0.06
771.575	0.06
771.971	0.06
772.366	0.06
772.761	0.06
773.156	0.06
773.551	0.06
773.945	0.06
774.34	0.06
774.735	0.06
775.13	0.06
775.524	0.06
775.919	0.06
776.314	0.06
776.708	0.06
777.103	0.06
777.497	0.06
777.891	0.06
778.285	0.06
778.68	0.06
779.074	0.06
779.468	0.06
779.862	0.06
780.256	0.06
780.65	0.06
781.044	0.06
781.438	0.06
781.831	0.06
782.225	0.06
782.619	0.06
783.012	0.06
783.406	0.06
783.799	0.06
784.193	0.06
784.586	0.06
784.979	0.06
785.372	0.06
785.766	0.07
786.159	0.06
786.552	0.06
786.945	0.06
787.338	0.06
787.731	0.07
788.123	0.07
788.516	0.06
788.909	0.07
789.302	0.06
789.694	0.06
790.087	0.06
790.479	0.07
790.872	0.06
791.264	0.07
791.656	0.07
792.049	0.07
792.441	0.07
792.833	0.07
793.225	0.07
793.617	0.07
794.009	0.07
794.401	0.07
794.793	0.07
795.185	0.07
795.576	0.07
795.968	0.07
796.36	0.07
796.751	0.07
797.143	0.07
797.534	0.07
797.926	0.07
798.317	0.07
798.708	0.07
799.1	0.07
799.491	0.07
799.882	0.07
800.273	0.07
800.664	0.07
801.055	0.07
801.446	0.07
801.837	0.07
802.227	0.07
802.618	0.08
803.009	0.07
803.399	0.07
803.79	0.07
804.18	0.08
804.571	0.07
804.961	0.07
805.351	0.07
805.742	0.07
806.132	0.08
806.522	0.08
806.912	0.08
807.302	0.08
807.692	0.08
808.082	0.08
808.472	0.07
808.862	0.08
809.251	0.08
809.641	0.08
810.031	0.08
810.42	0.08
810.81	0.08
811.199	0.08
811.589	0.08
811.978	0.08
812.367	0.08
812.756	0.08
813.146	0.08
813.535	0.08
813.924	0.08
814.313	0.08
814.702	0.08
815.091	0.08
815.479	0.08
815.868	0.08
816.257	0.08
816.645	0.08
817.034	0.08
817.423	0.08
817.811	0.08
818.199	0.08
818.588	0.08
818.976	0.08
819.364	0.08
819.753	0.08
820.141	0.08
820.529	0.08
820.917	0.08
821.305	0.08
821.693	0.08
822.08	0.09
822.468	0.08
822.856	0.08
823.244	0.08
823.631	0.08
824.019	0.09
824.406	0.08
824.794	0.08
825.181	0.09
825.568	0.08
825.956	0.09
826.343	0.08
826.73	0.09
827.117	0.09
827.504	0.09
827.891	0.09
828.278	0.09
828.665	0.09
829.052	0.09
829.438	0.09
829.825	0.09
830.212	0.09
830.598	0.09
830.985	0.09
831.371	0.09
831.757	0.09
832.144	0.09
832.53	0.09
832.916	0.09
833.302	0.09
833.688	0.09
834.075	0.09
834.461	0.09
834.846	0.09
835.232	0.09
835.618	0.09
836.004	0.09
836.39	0.09
836.775	0.09
837.161	0.09
837.546	0.09
837.932	0.09
838.317	0.09
838.702	0.09
839.088	0.09
839.473	0.09
839.858	0.09
840.243	0.09
840.628	0.09
841.013	0.09
841.398	0.09
841.783	0.09
842.168	0.09
842.553	0.09
842.937	0.09
843.322	0.09
843.707	0.09
844.091	0.09
844.476	0.09
844.86	0.09
845.244	0.1
845.629	0.09
846.013	0.09
846.397	0.09
846.781	0.09
847.165	0.09
847.549	0.1
847.933	0.09
848.317	0.09
848.701	0.09
849.085	0.1
849.468	0.09
849.852	0.09
850.236	0.1
850.619	0.09
851.003	0.09
851.386	0.1
851.769	0.1
852.153	0.09
852.536	0.09
852.919	0.09
853.302	0.09
853.685	0.09
854.068	0.09
854.451	0.09
854.834	0.1
855.217	0.09
855.6	0.1
855.982	0.1
856.365	0.1
856.748	0.1
857.13	0.1
857.513	0.09
857.895	0.1
858.277	0.09
858.66	0.1
859.042	0.1
859.424	0.09
859.806	0.1
860.188	0.09
860.57	0.09
860.952	0.1
861.334	0.1
861.716	0.09
862.098	0.1
862.48	0.1
862.861	0.1
863.243	0.1
863.624	0.09
864.006	0.09
864.387	0.1
864.769	0.1
865.15	0.1
865.531	0.1
865.912	0.09
866.294	0.09
866.675	0.1
867.056	0.1
867.437	0.09
867.818	0.1
868.198	0.1
868.579	0.1
868.96	0.1
869.341	0.1
869.721	0.1
870.102	0.1
870.482	0.1
870.863	0.1
871.243	0.1
871.623	0.1
872.003	0.1
872.384	0.09
872.764	0.1
873.144	0.1
873.524	0.1
873.904	0.09
874.284	0.1
874.664	0.1
875.043	0.1
875.423	0.09
875.803	0.1
876.182	0.1
876.562	0.1
876.941	0.09
877.321	0.1
877.7	0.1
878.079	0.1
878.459	0.1
878.838	0.09
879.217	0.1
879.596	0.09
879.975	0.1
880.354	0.09
880.733	0.09
881.112	0.1
881.491	0.1
881.869	0.09
882.248	0.1
882.627	0.1
883.005	0.09
883.384	0.1
883.762	0.1
884.14	0.09
884.519	0.09
884.897	0.09
885.275	0.09
885.653	0.09
886.031	0.09
886.409	0.09
886.787	0.1
887.165	0.09
887.543	0.09
887.921	0.1
888.298	0.1
888.676	0.09
889.054	0.09
889.431	0.09
889.809	0.1
890.186	0.09
890.563	0.1
890.941	0.09
891.318	0.09
891.695	0.09
892.072	0.1
892.449	0.09
892.826	0.09
893.203	0.09
893.58	0.09
893.957	0.09
894.334	0.1
894.71	0.1
895.087	0.09
895.464	0.09
895.84	0.09
896.217	0.09
896.593	0.09
896.969	0.09
897.346	0.09
897.722	0.09
898.098	0.09
898.474	0.09
898.85	0.09
899.226	0.09
899.602	0.09
899.978	0.09
900.354	0.09
900.73	0.09
901.105	0.09
901.481	0.09
901.857	0.09
902.232	0.09
902.608	0.09
902.983	0.09
903.358	0.09
903.734	0.09
904.109	0.09
904.484	0.09
904.859	0.09
905.234	0.09
905.609	0.09
905.984	0.09
906.359	0.09
906.734	0.09
907.108	0.09
907.483	0.09
907.858	0.09
908.232	0.09
908.607	0.09
908.981	0.09
909.356	0.09
909.73	0.09
910.104	0.09
910.478	0.09
910.853	0.09
911.227	0.09
911.601	0.09
911.975	0.09
912.349	0.09
912.722	0.09
913.096	0.09
913.47	0.09
913.844	0.09
914.217	0.09
914.591	0.09
914.964	0.09
915.338	0.09
915.711	0.09
916.084	0.09
916.458	0.09
916.831	0.09
917.204	0.09
917.577	0.08
917.95	0.09
918.323	0.09
918.696	0.09
919.069	0.09
919.441	0.09
919.814	0.09
920.187	0.09
920.559	0.09
920.932	0.09
921.304	0.09
921.677	0.09
922.049	0.08
922.421	0.08
922.794	0.09
923.166	0.09
923.538	0.09
923.91	0.08
924.282	0.08
924.654	0.08
925.026	0.08
925.398	0.09
925.769	0.08
926.141	0.08
926.513	0.08
926.884	0.08
927.256	0.08
927.627	0.08
927.999	0.08
928.37	0.08
928.741	0.08
929.113	0.08
929.484	0.08
929.855	0.08
930.226	0.08
930.597	0.08
930.968	0.08
931.339	0.08
931.709	0.08
932.08	0.08
932.451	0.08
932.821	0.08
933.192	0.08
933.562	0.08
933.933	0.08
934.303	0.08
934.673	0.08
935.044	0.08
935.414	0.08
935.784	0.08
936.154	0.08
936.524	0.08
936.894	0.08
937.264	0.08
937.634	0.08
938.004	0.08
938.373	0.08
938.743	0.08
939.113	0.08
939.482	0.08
939.852	0.08
940.221	0.08
940.59	0.08
940.96	0.08
941.329	0.08
941.698	0.08
942.067	0.08
942.436	0.08
942.805	0.08
943.174	0.08
943.543	0.08
943.912	0.08
944.28	0.08
944.649	0.07
945.018	0.07
945.386	0.07
945.755	0.07
946.123	0.08
946.492	0.08
946.86	0.08
947.228	0.08
947.596	0.08
947.965	0.07
948.333	0.08
948.701	0.08
949.069	0.07
949.437	0.08
949.804	0.08
950.172	0.08
950.54	0.07
950.908	0.07
951.275	0.07
951.643	0.07
952.01	0.07
952.378	0.08
952.745	0.07
953.112	0.07
953.479	0.07
953.847	0.07
954.214	0.07
954.581	0.07
954.948	0.07
955.315	0.07
955.682	0.07
956.048	0.07
956.415	0.07
956.782	0.07
957.148	0.07
957.515	0.07
957.881	0.07
958.248	0.07
958.614	0.07
958.981	0.07
959.347	0.07
959.713	0.07
960.079	0.07
960.445	0.07
960.811	0.07
961.177	0.07
961.543	0.07
961.909	0.07
962.275	0.07
962.641	0.07
963.006	0.07
963.372	0.07
963.737	0.07
964.103	0.07
964.468	0.07
964.834	0.07
965.199	0.07
965.564	0.07
965.929	0.06
966.294	0.07
966.659	0.07
967.024	0.06
967.389	0.07
967.754	0.07
968.119	0.07
968.484	0.07
968.848	0.07
969.213	0.07
969.578	0.07
969.942	0.06
970.307	0.06
970.671	0.06
971.035	0.06
971.399	0.07
971.764	0.06
972.128	0.06
972.492	0.06
972.856	0.07
973.22	0.07
973.584	0.06
973.948	0.06
974.311	0.06
974.675	0.07
975.039	0.07
975.402	0.06
975.766	0.06
976.129	0.07
976.493	0.06
976.856	0.06
977.219	0.07
977.582	0.07
977.946	0.06
978.309	0.06
978.672	0.06
979.035	0.06
979.398	0.06
979.761	0.06
980.123	0.06
980.486	0.06
980.849	0.06
981.211	0.06
981.574	0.06
981.936	0.06
982.299	0.06
982.661	0.06
983.023	0.06
983.386	0.06
983.748	0.07
984.11	0.06
984.472	0.06
984.834	0.06
985.196	0.06
985.558	0.06
985.92	0.06
986.281	0.06
986.643	0.06
987.005	0.06
987.366	0.06
987.728	0.06
988.089	0.06
988.451	0.06
988.812	0.06
989.173	0.06
989.534	0.06
989.895	0.06
990.257	0.06
990.618	0.06
990.979	0.06
991.339	0.06
991.7	0.06
992.061	0.06
992.422	0.06
992.782	0.06
993.143	0.05
993.503	0.06
993.864	0.06
994.224	0.06
994.585	0.06
994.945	0.06
995.305	0.06
995.665	0.06
996.025	0.06
996.385	0.06
996.745	0.06
997.105	0.06
997.465	0.06
997.825	0.06
998.185	0.06
998.544	0.06
998.904	0.05
999.263	0.06
999.623	0.06
999.982	0.06
1000.342	0.05
1000.701	0.05
1001.06	0.06
1001.419	0.06
1001.778	0.06
1002.138	0.05
1002.497	0.05
1002.855	0.06
1003.214	0.06
1003.573	0.06
1003.932	0.06
1004.29	0.06
1004.649	0.06
1005.008	0.06
1005.366	0.06
1005.725	0.06
1006.083	0.05
1006.441	0.05
1006.799	0.05
1007.158	0.06
1007.516	0.05
1007.874	0.05
1008.232	0.06
1008.59	0.05
1008.948	0.05
1009.305	0.06
1009.663	0.06
1010.021	0.06
1010.379	0.06
1010.736	0.05
1011.094	0.06
1011.451	0.06
1011.808	0.05
1012.166	0.05
1012.523	0.05
1012.88	0.05
1013.237	0.05
1013.594	0.05
1013.951	0.05
1014.308	0.05
1014.665	0.05
1015.022	0.05
1015.379	0.05
1015.735	0.05
1016.092	0.06
1016.449	0.06
1016.805	0.05
1017.162	0.06
1017.518	0.05
1017.874	0.05
1018.231	0.05
1018.587	0.05
1018.943	0.06
1019.299	0.05
1019.655	0.05
1020.011	0.05
1020.367	0.05
1020.723	0.05
1021.078	0.05
1021.434	0.05
1021.79	0.05
1022.145	0.05
1022.501	0.05
1022.856	0.05
1023.212	0.05
1023.567	0.05
1023.922	0.05
1024.278	0.05
1024.633	0.05
1024.988	0.05
1025.343	0.05
1025.698	0.05
1026.053	0.05
1026.408	0.05
1026.762	0.05
1027.117	0.05
1027.472	0.06
1027.826	0.05
1028.181	0.05
1028.535	0.05
1028.89	0.05
1029.244	0.05
1029.598	0.05
1029.952	0.05
1030.307	0.05
1030.661	0.05
1031.015	0.06
1031.369	0.05
1031.723	0.05
1032.076	0.05
