Data from Rubpy_EV_600_EDTA_Buffered_Absorbance_12-54-08-978.txt Node
Date: Tue Jun 30 12:54:08 BST 2026
User: fpm-admin
Spectrometer: OFX00224
Trigger mode: 0
Integration Time (sec): 7.000000E-2
Scans to average: 3
Nonlinearity correction enabled: false
Boxcar width: 0
Storing dark spectrum: false
XAxis mode: Wavelengths
Number of Pixels in Spectrum: 2136
>>>>>Begin Spectral Data<<<<<
154.91	-0
155.289	-0
155.669	0.42
156.048	-0.3
156.428	-0.12
156.807	-0.62
157.186	0.22
157.566	1
157.945	0.36
158.325	0.3
158.704	0.73
159.083	-0.23
159.462	-0
159.842	-0.44
160.221	-0
160.6	0.19
160.979	-0.05
161.359	-0
161.738	0.67
162.117	-0
162.496	-0.15
162.875	0.71
163.254	0.8
163.633	-0.3
164.012	-0.74
164.391	-0.33
164.77	-0.04
165.149	-0
165.528	0.11
165.907	-0
166.286	-0.16
166.665	0.2
167.044	-0
167.423	0.21
167.802	-0.27
168.181	0.98
168.559	-0
168.938	-0.14
169.317	0.03
169.696	-0.34
170.074	-0
170.453	-0.15
170.832	0.12
171.21	0.22
171.589	0.42
171.968	-0
172.346	1.14
172.725	-0
173.103	-0.32
173.482	-0
173.861	-0
174.239	-0.03
174.617	-0
174.996	-0
175.374	-0
175.753	-0.7
176.131	-0
176.51	-0.56
176.888	1.36
177.266	-0
177.645	-0.06
178.023	-0
178.401	0.02
178.779	-0.08
179.158	-0.26
179.536	-0.2
179.914	0.86
180.292	0.83
180.67	-0
181.048	-0
181.427	-1.46
181.805	-0.1
182.183	-0
182.561	-0
182.939	-0.12
183.317	-0
183.695	0.22
184.073	0.03
184.451	-0
184.829	-0
185.206	0.07
185.584	-0
185.962	-0
186.34	-0.22
186.718	-0
187.096	-0.16
187.473	1.04
187.851	0.03
188.229	-0
188.607	0.11
188.984	0.04
189.362	0.03
189.74	0.09
190.117	0.06
190.495	0.13
190.872	-0.06
191.25	0.13
191.627	0.09
192.005	0.07
192.382	0.16
192.76	0.11
193.137	0.2
193.515	0.11
193.892	0.09
194.269	-0.04
194.647	0
195.024	0.01
195.401	-0.02
195.779	0.08
196.156	0.01
196.533	0.06
196.91	0.12
197.288	0.08
197.665	-0.03
198.042	0.01
198.419	0.03
198.796	0.03
199.173	0.06
199.55	-0
199.927	0.03
200.304	0.1
200.681	0.01
201.058	0.01
201.435	-0
201.812	0.01
202.189	0.09
202.566	0.12
202.943	0.02
203.32	0.07
203.697	0.05
204.073	0.06
204.45	0.11
204.827	0.18
205.204	0.14
205.58	0.06
205.957	0.14
206.334	0.04
206.71	0.02
207.087	0.09
207.464	0.07
207.84	0.1
208.217	-0.01
208.593	0.18
208.97	0.01
209.346	0.05
209.723	0.05
210.099	0.15
210.476	0.07
210.852	0.02
211.228	0.07
211.605	-0
211.981	0.08
212.357	0.12
212.733	0
213.11	0.16
213.486	0.07
213.862	-0
214.238	0.13
214.614	0.09
214.991	-0.03
215.367	0.15
215.743	0.04
216.119	0.03
216.495	-0.06
216.871	0.06
217.247	0.07
217.623	0.09
217.999	0.11
218.375	0.12
218.751	0.21
219.127	0.2
219.502	0.06
219.878	0.12
220.254	0.07
220.63	0.2
221.006	-0.04
221.381	0.02
221.757	0.1
222.133	0.02
222.508	0.01
222.884	0.04
223.26	0.04
223.635	0.09
224.011	0.05
224.386	0.01
224.762	0
225.137	0.07
225.513	0.06
225.888	0.02
226.264	0.1
226.639	0.16
227.014	0.11
227.39	0.08
227.765	0.18
228.14	0.04
228.516	0.06
228.891	0.05
229.266	0.06
229.641	0.09
230.017	0.12
230.392	0.05
230.767	0.03
231.142	0.03
231.517	0.05
231.892	0.12
232.267	0.11
232.642	0.14
233.017	0.06
233.392	0.09
233.767	0.12
234.142	0.06
234.517	0.03
234.892	0.02
235.267	-0.01
235.641	0.13
236.016	-0
236.391	0.12
236.766	0.03
237.14	0.03
237.515	0.07
237.89	0.15
238.264	0.03
238.639	0.15
239.014	0.03
239.388	0.01
239.763	0.09
240.137	0.11
240.512	0.2
240.886	0.05
241.261	0.08
241.635	0.05
242.009	0.11
242.384	0.05
242.758	0.15
243.132	0.09
243.507	0.06
243.881	0.08
244.255	0.08
244.629	0.16
245.004	0.07
245.378	0.01
245.752	0.1
246.126	0.13
246.5	0.09
246.874	0.04
247.248	0.03
247.622	0.01
247.996	0.09
248.37	0.11
248.744	0.02
249.118	0.08
249.492	0.12
249.866	0.06
250.24	0.03
250.613	0.09
250.987	0.05
251.361	0.14
251.735	0.07
252.108	0.01
252.482	0.05
252.856	0
253.229	0.09
253.603	0
253.977	0.07
254.35	0.09
254.724	0.05
255.097	0.04
255.471	-0.01
255.844	0.09
256.218	0.03
256.591	0.06
256.964	0.04
257.338	0.04
257.711	0.11
258.084	0.07
258.458	0.04
258.831	0.04
259.204	0.14
259.577	0.07
259.95	0.07
260.323	0.07
260.697	0.08
261.07	0.11
261.443	0.07
261.816	0.08
262.189	0.04
262.562	0.06
262.935	0.12
263.308	-0.06
263.68	0.07
264.053	0.11
264.426	0.07
264.799	0.02
265.172	0.06
265.545	0.06
265.917	0.07
266.29	0.11
266.663	0
267.035	0.11
267.408	0.07
267.781	0.03
268.153	0.02
268.526	0.06
268.898	0.07
269.271	0.07
269.643	0.1
270.016	0.1
270.388	0.03
270.76	0.1
271.133	0.06
271.505	0.02
271.877	0.12
272.25	-0.03
272.622	0.04
272.994	0.14
273.366	0.19
273.739	0.05
274.111	0.06
274.483	0.08
274.855	0.08
275.227	0.14
275.599	0.03
275.971	0.1
276.343	0.09
276.715	0.06
277.087	0.09
277.459	0.13
277.831	0.02
278.203	0.12
278.574	0.14
278.946	0.11
279.318	0.12
279.69	0.07
280.061	0.1
280.433	0.11
280.805	0.13
281.176	0.01
281.548	0.03
281.92	0.06
282.291	0.01
282.663	0.08
283.034	0.07
283.406	0.1
283.777	0.13
284.148	0.1
284.52	0.06
284.891	0.09
285.262	0.08
285.634	0.07
286.005	0.08
286.376	0.04
286.747	0.11
287.119	0.12
287.49	0.07
287.861	0.08
288.232	0.12
288.603	0.07
288.974	-0.01
289.345	0.06
289.716	0.02
290.087	0.02
290.458	0.06
290.829	0.03
291.2	0.02
291.571	0.03
291.941	0.08
292.312	0.09
292.683	0.1
293.054	0.05
293.424	0.02
293.795	0.03
294.166	0.05
294.536	0.04
294.907	0.07
295.277	0.09
295.648	0.04
296.018	0.04
296.389	0.04
296.759	0.06
297.13	0.04
297.5	0.08
297.871	0.04
298.241	0.04
298.611	0.05
298.981	0.07
299.352	0.03
299.722	0.03
300.092	0.07
300.462	0.06
300.832	0.03
301.202	0.05
301.573	0.01
301.943	0.03
302.313	0.02
302.683	0.03
303.053	0.03
303.422	0.03
303.792	0.03
304.162	0.05
304.532	0.05
304.902	0.03
305.272	0.03
305.641	0.04
306.011	0.04
306.381	0.04
306.75	0.03
307.12	0.03
307.49	0.04
307.859	0.04
308.229	0.04
308.598	0.03
308.968	0.04
309.337	0.03
309.707	0.03
310.076	0.04
310.445	0.03
310.815	0.05
311.184	0.05
311.553	0.04
311.923	0.04
312.292	0.03
312.661	0.04
313.03	0.04
313.399	0.05
313.768	0.04
314.137	0.03
314.506	0.04
314.875	0.04
315.244	0.04
315.613	0.04
315.982	0.05
316.351	0.04
316.72	0.04
317.089	0.04
317.458	0.04
317.826	0.04
318.195	0.03
318.564	0.04
318.933	0.04
319.301	0.04
319.67	0.03
320.038	0.03
320.407	0.04
320.775	0.04
321.144	0.04
321.512	0.04
321.881	0.03
322.249	0.04
322.618	0.03
322.986	0.04
323.354	0.04
323.723	0.04
324.091	0.03
324.459	0.03
324.827	0.04
325.195	0.03
325.564	0.04
325.932	0.04
326.3	0.03
326.668	0.03
327.036	0.03
327.404	0.03
327.772	0.03
328.14	0.04
328.508	0.03
328.875	0.03
329.243	0.03
329.611	0.03
329.979	0.03
330.346	0.03
330.714	0.04
331.082	0.03
331.449	0.03
331.817	0.03
332.185	0.03
332.552	0.03
332.92	0.03
333.287	0.04
333.655	0.03
334.022	0.03
334.389	0.04
334.757	0.04
335.124	0.04
335.491	0.03
335.859	0.04
336.226	0.03
336.593	0.04
336.96	0.04
337.327	0.03
337.695	0.04
338.062	0.04
338.429	0.04
338.796	0.04
339.163	0.04
339.53	0.04
339.897	0.04
340.263	0.04
340.63	0.04
340.997	0.04
341.364	0.05
341.731	0.05
342.097	0.05
342.464	0.05
342.831	0.05
343.197	0.05
343.564	0.05
343.931	0.05
344.297	0.05
344.664	0.05
345.03	0.05
345.396	0.05
345.763	0.05
346.129	0.06
346.496	0.06
346.862	0.06
347.228	0.06
347.594	0.06
347.961	0.06
348.327	0.06
348.693	0.06
349.059	0.06
349.425	0.06
349.791	0.07
350.157	0.07
350.523	0.06
350.889	0.07
351.255	0.07
351.621	0.07
351.987	0.07
352.353	0.07
352.719	0.07
353.084	0.08
353.45	0.08
353.816	0.08
354.181	0.08
354.547	0.09
354.913	0.08
355.278	0.08
355.644	0.09
356.009	0.09
356.375	0.09
356.74	0.09
357.106	0.1
357.471	0.1
357.836	0.1
358.202	0.1
358.567	0.1
358.932	0.11
359.297	0.11
359.663	0.11
360.028	0.12
360.393	0.11
360.758	0.11
361.123	0.11
361.488	0.12
361.853	0.12
362.218	0.12
362.583	0.12
362.948	0.13
363.312	0.13
363.677	0.12
364.042	0.13
364.407	0.13
364.772	0.14
365.136	0.14
365.501	0.14
365.865	0.14
366.23	0.14
366.595	0.15
366.959	0.15
367.324	0.16
367.688	0.17
368.052	0.16
368.417	0.16
368.781	0.17
369.145	0.17
369.51	0.17
369.874	0.18
370.238	0.17
370.602	0.17
370.967	0.18
371.331	0.18
371.695	0.17
372.059	0.17
372.423	0.17
372.787	0.17
373.151	0.17
373.515	0.17
373.878	0.17
374.242	0.17
374.606	0.17
374.97	0.17
375.334	0.17
375.697	0.17
376.061	0.17
376.425	0.18
376.788	0.18
377.152	0.18
377.515	0.18
377.879	0.19
378.242	0.18
378.606	0.19
378.969	0.19
379.333	0.19
379.696	0.19
380.059	0.19
380.422	0.2
380.786	0.2
381.149	0.21
381.512	0.21
381.875	0.21
382.238	0.22
382.601	0.23
382.964	0.24
383.327	0.24
383.69	0.25
384.053	0.25
384.416	0.27
384.779	0.27
385.142	0.27
385.504	0.28
385.867	0.29
386.23	0.28
386.593	0.29
386.955	0.29
387.318	0.29
387.68	0.29
388.043	0.29
388.405	0.29
388.768	0.28
389.13	0.28
389.493	0.28
389.855	0.28
390.217	0.27
390.58	0.28
390.942	0.28
391.304	0.27
391.666	0.28
392.028	0.29
392.391	0.3
392.753	0.3
393.115	0.31
393.477	0.33
393.839	0.34
394.201	0.35
394.563	0.37
394.924	0.38
395.286	0.4
395.648	0.41
396.01	0.42
396.371	0.43
396.733	0.44
397.095	0.45
397.456	0.46
397.818	0.46
398.18	0.45
398.541	0.45
398.903	0.44
399.264	0.42
399.625	0.41
399.987	0.39
400.348	0.38
400.709	0.36
401.071	0.34
401.432	0.32
401.793	0.3
402.154	0.29
402.515	0.26
402.876	0.25
403.238	0.23
403.599	0.21
403.96	0.19
404.32	0.18
404.681	0.17
405.042	0.16
405.403	0.14
405.764	0.13
406.125	0.12
406.485	0.12
406.846	0.11
407.207	0.1
407.567	0.1
407.928	0.1
408.288	0.09
408.649	0.08
409.009	0.08
409.37	0.08
409.73	0.07
410.091	0.06
410.451	0.07
410.811	0.06
411.171	0.06
411.532	0.06
411.892	0.06
412.252	0.06
412.612	0.06
412.972	0.05
413.332	0.05
413.692	0.05
414.052	0.05
414.412	0.05
414.772	0.04
415.132	0.04
415.492	0.04
415.851	0.04
416.211	0.04
416.571	0.04
416.931	0.03
417.29	0.04
417.65	0.03
418.009	0.03
418.369	0.03
418.728	0.04
419.088	0.03
419.447	0.03
419.807	0.04
420.166	0.04
420.525	0.03
420.884	0.03
421.244	0.03
421.603	0.03
421.962	0.03
422.321	0.03
422.68	0.03
423.039	0.02
423.398	0.02
423.757	0.03
424.116	0.03
424.475	0.03
424.834	0.03
425.193	0.03
425.551	0.02
425.91	0.02
426.269	0.03
426.628	0.02
426.986	0.02
427.345	0.02
427.703	0.03
428.062	0.02
428.42	0.02
428.779	0.03
429.137	0.02
429.496	0.02
429.854	0.02
430.212	0.02
430.57	0.02
430.929	0.02
431.287	0.02
431.645	0.02
432.003	0.02
432.361	0.02
432.719	0.02
433.077	0.02
433.435	0.02
433.793	0.02
434.151	0.02
434.509	0.02
434.866	0.02
435.224	0.02
435.582	0.01
435.94	0.02
436.297	0.02
436.655	0.02
437.012	0.01
437.37	0.02
437.727	0.02
438.085	0.02
438.442	0.02
438.8	0.01
439.157	0.01
439.514	0.02
439.872	0.02
440.229	0.02
440.586	0.01
440.943	0.01
441.3	0.03
441.657	0.01
442.014	0.01
442.371	0.02
442.728	0.01
443.085	0.02
443.442	0.02
443.799	0.01
444.156	0.01
444.513	0.01
444.869	0.02
445.226	0.02
445.583	0.02
445.939	0.01
446.296	0.01
446.652	0.02
447.009	0.01
447.365	0.02
447.722	0.02
448.078	0.02
448.434	0.02
448.791	0.01
449.147	0.01
449.503	0.01
449.859	0.01
450.215	0.02
450.571	0.02
450.928	0.01
451.284	0.01
451.64	0.01
451.995	0.01
452.351	0
452.707	0.01
453.063	0
453.419	0.01
453.775	0.01
454.13	0.02
454.486	0.02
454.842	0
455.197	0
455.553	0.01
455.908	0.01
456.264	0.01
456.619	0.01
456.975	0.01
457.33	0.01
457.685	0
458.04	-0
458.396	-0
458.751	-0
459.106	-0
459.461	0
459.816	0
460.171	0
460.526	-0
460.881	-0
461.236	-0.01
461.591	-0.01
461.946	-0
462.301	-0.01
462.655	-0.01
463.01	-0.02
463.365	-0
463.719	-0.01
464.074	-0.01
464.428	-0.02
464.783	-0.01
465.137	-0.02
465.492	-0.01
465.846	-0.02
466.201	-0.01
466.555	-0.02
466.909	-0.02
467.263	-0.01
467.618	-0.02
467.972	-0.02
468.326	-0.02
468.68	-0.02
469.034	-0.02
469.388	-0.02
469.742	-0.02
470.096	-0.02
470.45	-0.02
470.804	-0.02
471.157	-0.01
471.511	-0.02
471.865	-0.01
472.218	-0.02
472.572	-0.02
472.926	-0.02
473.279	-0.02
473.633	-0.01
473.986	-0.01
474.34	-0.01
474.693	-0.01
475.046	-0.01
475.4	-0.01
475.753	-0.01
476.106	-0
476.459	-0
476.812	-0
477.165	-0
477.519	-0
477.872	0
478.224	0
478.577	0.01
478.93	0
479.283	0.01
479.636	0.01
479.989	0.01
480.341	0
480.694	0
481.047	0.01
481.399	0
481.752	0.01
482.104	0
482.457	0.01
482.809	0.01
483.162	0.01
483.514	0.01
483.866	0.01
484.219	0.01
484.571	0.01
484.923	0.01
485.275	0.01
485.627	0.01
485.979	0.01
486.331	0.01
486.683	0.02
487.035	0.01
487.387	0.01
487.739	0.01
488.091	0.02
488.443	0.02
488.794	0.02
489.146	0.02
489.498	0.02
489.849	0.02
490.201	0.02
490.552	0.02
490.904	0.02
491.255	0.02
491.607	0.02
491.958	0.02
492.309	0.02
492.661	0.02
493.012	0.02
493.363	0.02
493.714	0.02
494.065	0.02
494.416	0.03
494.767	0.02
495.118	0.03
495.469	0.03
495.82	0.03
496.171	0.03
496.522	0.02
496.872	0.03
497.223	0.03
497.574	0.03
497.924	0.03
498.275	0.03
498.626	0.03
498.976	0.03
499.327	0.03
499.677	0.03
500.027	0.03
500.378	0.03
500.728	0.03
501.078	0.03
501.428	0.03
501.779	0.03
502.129	0.03
502.479	0.03
502.829	0.03
503.179	0.03
503.529	0.03
503.879	0.03
504.229	0.04
504.578	0.03
504.928	0.03
505.278	0.03
505.628	0.04
505.977	0.04
506.327	0.04
506.676	0.04
507.026	0.04
507.375	0.04
507.725	0.04
508.074	0.04
508.424	0.04
508.773	0.04
509.122	0.04
509.471	0.04
509.82	0.04
510.17	0.05
510.519	0.04
510.868	0.04
511.217	0.04
511.566	0.04
511.915	0.04
512.263	0.05
512.612	0.04
512.961	0.05
513.31	0.04
513.659	0.04
514.007	0.05
514.356	0.05
514.704	0.04
515.053	0.05
515.401	0.05
515.75	0.05
516.098	0.05
516.447	0.05
516.795	0.05
517.143	0.05
517.491	0.05
517.839	0.05
518.188	0.05
518.536	0.05
518.884	0.05
519.232	0.05
519.58	0.06
519.928	0.06
520.275	0.05
520.623	0.05
520.971	0.05
521.319	0.06
521.666	0.06
522.014	0.06
522.362	0.06
522.709	0.06
523.057	0.06
523.404	0.06
523.752	0.06
524.099	0.06
524.446	0.06
524.794	0.06
525.141	0.06
525.488	0.06
525.835	0.06
526.182	0.06
526.529	0.07
526.876	0.07
527.223	0.07
527.57	0.07
527.917	0.07
528.264	0.06
528.611	0.07
528.958	0.07
529.304	0.07
529.651	0.07
529.998	0.07
530.344	0.06
530.691	0.07
531.037	0.07
531.384	0.07
531.73	0.07
532.076	0.07
532.423	0.07
532.769	0.07
533.115	0.07
533.461	0.07
533.807	0.07
534.154	0.07
534.5	0.07
534.846	0.08
535.192	0.07
535.537	0.07
535.883	0.07
536.229	0.07
536.575	0.08
536.921	0.08
537.266	0.08
537.612	0.08
537.957	0.08
538.303	0.08
538.649	0.09
538.994	0.09
539.339	0.08
539.685	0.09
540.03	0.08
540.375	0.09
540.721	0.09
541.066	0.09
541.411	0.09
541.756	0.09
542.101	0.09
542.446	0.09
542.791	0.09
543.136	0.09
543.481	0.09
543.825	0.09
544.17	0.09
544.515	0.09
544.86	0.09
545.204	0.09
545.549	0.09
545.893	0.09
546.238	0.09
546.582	0.09
546.927	0.09
547.271	0.1
547.615	0.1
547.96	0.1
548.304	0.1
548.648	0.09
548.992	0.1
549.336	0.1
549.68	0.1
550.024	0.1
550.368	0.1
550.712	0.1
551.056	0.1
551.4	0.1
551.743	0.1
552.087	0.1
552.431	0.11
552.774	0.1
553.118	0.1
553.462	0.11
553.805	0.1
554.148	0.11
554.492	0.11
554.835	0.11
555.178	0.11
555.522	0.11
555.865	0.11
556.208	0.11
556.551	0.11
556.894	0.11
557.237	0.11
557.58	0.12
557.923	0.11
558.266	0.1
558.609	0.11
558.952	0.11
559.294	0.12
559.637	0.11
559.98	0.11
560.322	0.11
560.665	0.11
561.007	0.11
561.35	0.11
561.692	0.12
562.034	0.11
562.377	0.11
562.719	0.11
563.061	0.11
563.403	0.11
563.745	0.11
564.088	0.12
564.43	0.12
564.772	0.12
565.113	0.12
565.455	0.12
565.797	0.12
566.139	0.11
566.481	0.11
566.822	0.12
567.164	0.12
567.506	0.12
567.847	0.12
568.189	0.12
568.53	0.12
568.872	0.12
569.213	0.12
569.554	0.12
569.895	0.12
570.237	0.12
570.578	0.12
570.919	0.11
571.26	0.11
571.601	0.12
571.942	0.12
572.283	0.11
572.624	0.11
572.965	0.12
573.306	0.11
573.646	0.12
573.987	0.12
574.328	0.12
574.668	0.12
575.009	0.11
575.349	0.12
575.69	0.12
576.03	0.11
576.37	0.11
576.711	0.11
577.051	0.11
577.391	0.11
577.731	0.12
578.072	0.11
578.412	0.11
578.752	0.12
579.092	0.12
579.431	0.11
579.771	0.11
580.111	0.11
580.451	0.11
580.791	0.11
581.13	0.11
581.47	0.12
581.81	0.11
582.149	0.12
582.489	0.12
582.828	0.11
583.167	0.11
583.507	0.09
583.846	0.07
584.185	0.09
584.525	0.1
584.864	0.11
585.203	0.12
585.542	0.12
585.881	0.12
586.22	0.12
586.559	0.12
586.898	0.12
587.236	0.11
587.575	0.11
587.914	0.11
588.252	0.12
588.591	0.12
588.93	0.12
589.268	0.12
589.607	0.12
589.945	0.12
590.283	0.12
590.622	0.12
590.96	0.13
591.298	0.13
591.636	0.13
591.974	0.13
592.313	0.13
592.651	0.13
592.989	0.13
593.326	0.13
593.664	0.13
594.002	0.13
594.34	0.13
594.678	0.13
595.015	0.13
595.353	0.13
595.691	0.13
596.028	0.13
596.366	0.13
596.703	0.13
597.04	0.14
597.378	0.14
597.715	0.14
598.052	0.14
598.389	0.14
598.726	0.15
599.064	0.14
599.401	0.14
599.738	0.14
600.074	0.14
600.411	0.14
600.748	0.14
601.085	0.14
601.422	0.14
601.758	0.14
602.095	0.14
602.432	0.14
602.768	0.14
603.105	0.14
603.441	0.14
603.777	0.14
604.114	0.14
604.45	0.14
604.786	0.14
605.122	0.14
605.459	0.14
605.795	0.14
606.131	0.14
606.467	0.14
606.803	0.14
607.139	0.14
607.474	0.14
607.81	0.14
608.146	0.14
608.482	0.14
608.817	0.14
609.153	0.14
609.488	0.14
609.824	0.14
610.159	0.14
610.495	0.14
610.83	0.14
611.165	0.14
611.5	0.14
611.836	0.14
612.171	0.14
612.506	0.14
612.841	0.14
613.176	0.14
613.511	0.14
613.845	0.14
614.18	0.14
614.515	0.14
614.85	0.14
615.184	0.14
615.519	0.14
615.854	0.13
616.188	0.13
616.523	0.13
616.857	0.13
617.191	0.13
617.526	0.13
617.86	0.13
618.194	0.13
618.528	0.13
618.862	0.14
619.196	0.14
619.53	0.14
619.864	0.14
620.198	0.13
620.532	0.14
620.866	0.13
621.2	0.13
621.533	0.13
621.867	0.14
622.201	0.14
622.534	0.13
622.868	0.13
623.201	0.13
623.534	0.13
623.868	0.13
624.201	0.13
624.534	0.13
624.868	0.13
625.201	0.13
625.534	0.13
625.867	0.13
626.2	0.13
626.533	0.13
626.865	0.13
627.198	0.13
627.531	0.13
627.864	0.12
628.196	0.13
628.529	0.13
628.862	0.12
629.194	0.13
629.527	0.13
629.859	0.13
630.191	0.12
630.524	0.12
630.856	0.12
631.188	0.12
631.52	0.12
631.852	0.12
632.184	0.12
632.516	0.12
632.848	0.12
633.18	0.12
633.512	0.11
633.844	0.11
634.175	0.11
634.507	0.11
634.839	0.11
635.17	0.11
635.502	0.11
635.833	0.11
636.165	0.11
636.496	0.11
636.827	0.11
637.159	0.11
637.49	0.11
637.821	0.11
638.152	0.1
638.483	0.11
638.814	0.1
639.145	0.1
639.476	0.1
639.807	0.1
640.137	0.1
640.468	0.1
640.799	0.1
641.129	0.11
641.46	0.1
641.791	0.11
642.121	0.11
642.451	0.1
642.782	0.1
643.112	0.1
643.442	0.1
643.773	0.1
644.103	0.09
644.433	0.1
644.763	0.09
645.093	0.09
645.423	0.09
645.753	0.09
646.082	0.09
646.412	0.09
646.742	0.09
647.072	0.09
647.401	0.09
647.731	0.09
648.06	0.09
648.39	0.09
648.719	0.09
649.048	0.09
649.378	0.09
649.707	0.09
650.036	0.09
650.365	0.09
650.694	0.09
651.023	0.09
651.352	0.09
651.681	0.09
652.01	0.09
652.339	0.09
652.668	0.09
652.996	0.09
653.325	0.09
653.654	0.09
653.982	0.09
654.311	0.09
654.639	0.09
654.967	0.09
655.296	0.09
655.624	0.09
655.952	0.09
656.28	0.09
656.609	0.09
656.937	0.09
657.265	0.08
657.593	0.07
657.92	0
658.248	-0
658.576	0
658.904	0
659.231	0.04
659.559	0.07
659.887	0.08
660.214	0.08
660.542	0.09
660.869	0.08
661.196	0.09
661.524	0.08
661.851	0.08
662.178	0.09
662.505	0.09
662.832	0.08
663.159	0.08
663.486	0.08
663.813	0.09
664.14	0.09
664.467	0.09
664.794	0.09
665.12	0.09
665.447	0.09
665.774	0.08
666.1	0.08
666.427	0.08
666.753	0.08
667.079	0.08
667.406	0.08
667.732	0.08
668.058	0.09
668.384	0.08
668.71	0.09
669.036	0.08
669.362	0.08
669.688	0.08
670.014	0.08
670.34	0.08
670.666	0.08
670.991	0.08
671.317	0.08
671.643	0.08
671.968	0.08
672.294	0.08
672.619	0.08
672.945	0.08
673.27	0.08
673.595	0.08
673.92	0.07
674.246	0.07
674.571	0.08
674.896	0.08
675.221	0.08
675.546	0.08
675.87	0.08
676.195	0.08
676.52	0.08
676.845	0.08
677.169	0.08
677.494	0.08
677.819	0.08
678.143	0.08
678.468	0.07
678.792	0.07
679.116	0.08
679.44	0.07
679.765	0.07
680.089	0.07
680.413	0.07
680.737	0.07
681.061	0.07
681.385	0.07
681.709	0.06
682.033	0.07
682.356	0.06
682.68	0.06
683.004	0.06
683.327	0.06
683.651	0.06
683.974	0.06
684.298	0.06
684.621	0.06
684.944	0.06
685.268	0.06
685.591	0.06
685.914	0.06
686.237	0.06
686.56	0.06
686.883	0.06
687.206	0.06
687.529	0.06
687.852	0.06
688.175	0.06
688.497	0.06
688.82	0.06
689.142	0.05
689.465	0.05
689.787	0.05
690.11	0.05
690.432	0.05
690.755	0.05
691.077	0.05
691.399	0.05
691.721	0.05
692.043	0.05
692.365	0.05
692.687	0.05
693.009	0.05
693.331	0.05
693.653	0.04
693.974	0.05
694.296	0.05
694.618	0.05
694.939	0.05
695.261	0.05
695.582	0.05
695.904	0.05
696.225	0.05
696.546	0.05
696.868	0.05
697.189	0.05
697.51	0.05
697.831	0.05
698.152	0.04
698.473	0.05
698.794	0.04
699.114	0.04
699.435	0.04
699.756	0.04
700.077	0.04
700.397	0.04
700.718	0.05
701.038	0.05
701.359	0.05
701.679	0.05
701.999	0.05
702.32	0.05
702.64	0.05
702.96	0.04
703.28	0.04
703.6	0.04
703.92	0.04
704.24	0.04
704.56	0.03
704.879	0.04
705.199	0.04
705.519	0.04
705.838	0.04
706.158	0.04
706.478	0.04
706.797	0.04
707.116	0.04
707.436	0.04
707.755	0.04
708.074	0.04
708.393	0.04
708.712	0.04
709.031	0.03
709.35	0.04
709.669	0.03
709.988	0.03
710.307	0.03
710.626	0.04
710.944	0.04
711.263	0.03
711.582	0.04
711.9	0.03
712.219	0.04
712.537	0.03
712.855	0.04
713.174	0.04
713.492	0.04
713.81	0.04
714.128	0.04
714.446	0.04
714.764	0.04
715.082	0.04
715.4	0.04
715.718	0.04
716.035	0.03
716.353	0.03
716.671	0.04
716.988	0.03
717.306	0.04
717.623	0.04
717.941	0.04
718.258	0.04
718.575	0.04
718.893	0.04
719.21	0.04
719.527	0.04
719.844	0.04
720.161	0.04
720.478	0.04
720.795	0.04
721.112	0.04
721.428	0.04
721.745	0.04
722.062	0.04
722.378	0.04
722.695	0.04
723.011	0.04
723.328	0.04
723.644	0.05
723.96	0.04
724.276	0.04
724.593	0.04
724.909	0.04
725.225	0.04
725.541	0.04
725.857	0.05
726.173	0.04
726.488	0.05
726.804	0.04
727.12	0.04
727.435	0.04
727.751	0.04
728.067	0.04
728.382	0.04
728.697	0.04
729.013	0.04
729.328	0.04
729.643	0.04
729.958	0.04
730.273	0.04
730.588	0.04
730.903	0.04
731.218	0.04
731.533	0.04
731.848	0.04
732.163	0.04
732.477	0.04
732.792	0.04
733.107	0.03
733.421	0.04
733.736	0.04
734.05	0.04
734.364	0.04
734.678	0.04
734.993	0.04
735.307	0.04
735.621	0.04
735.935	0.04
736.249	0.04
736.563	0.04
736.877	0.04
737.19	0.04
737.504	0.04
737.818	0.04
738.131	0.04
738.445	0.04
738.758	0.04
739.072	0.04
739.385	0.04
739.698	0.03
740.012	0.04
740.325	0.03
740.638	0.03
740.951	0.03
741.264	0.03
741.577	0.04
741.89	0.04
742.203	0.04
742.515	0.04
742.828	0.04
743.141	0.04
743.453	0.04
743.766	0.03
744.078	0.04
744.391	0.04
744.703	0.03
745.015	0.04
745.327	0.03
745.639	0.03
745.952	0.03
746.264	0.03
746.575	0.03
746.887	0.03
747.199	0.04
747.511	0.04
747.823	0.04
748.134	0.04
748.446	0.03
748.757	0.04
749.069	0.04
749.38	0.04
749.692	0.04
750.003	0.04
750.314	0.04
750.625	0.04
750.936	0.04
751.248	0.04
751.559	0.04
751.869	0.04
752.18	0.04
752.491	0.04
752.802	0.04
753.112	0.04
753.423	0.03
753.734	0.03
754.044	0.03
754.355	0.03
754.665	0.02
754.975	0.03
755.285	0.03
755.596	0.03
755.906	0.03
756.216	0.03
756.526	0.03
756.836	0.03
757.146	0.03
757.455	0.03
757.765	0.03
758.075	0.02
758.385	0.02
758.694	0.02
759.004	0.02
759.313	0.03
759.622	0.03
759.932	0.03
760.241	0.03
760.55	0.03
760.859	0.04
761.168	0.03
761.477	0.03
761.786	0.03
762.095	0.03
762.404	0.03
762.713	0.03
763.021	0.03
763.33	0.02
763.639	0.02
763.947	0.03
764.256	0.03
764.564	0.03
764.872	0.03
765.181	0.03
765.489	0.02
765.797	0.03
766.105	0.03
766.413	0.03
766.721	0.02
767.029	0.03
767.337	0.03
767.644	0.03
767.952	0.03
768.26	0.03
768.567	0.03
768.875	0.03
769.182	0.03
769.49	0.03
769.797	0.03
770.104	0.03
770.411	0.02
770.718	0.02
771.026	0.02
771.333	0.02
771.639	0.02
771.946	0.02
772.253	0.02
772.56	0.02
772.867	0.02
773.173	0.02
773.48	0.03
773.786	0.02
774.093	0.02
774.399	0.02
774.705	0.02
775.012	0.02
775.318	0.03
775.624	0.02
775.93	0.02
776.236	0.03
776.542	0.03
776.848	0.03
777.154	0.03
777.459	0.03
777.765	0.02
778.071	0.02
778.376	0.03
778.682	0.03
778.987	0.03
779.292	0.03
779.598	0.03
779.903	0.03
780.208	0.03
780.513	0.03
780.818	0.02
781.123	0.02
781.428	0.02
781.733	0.02
782.038	0.02
782.343	0.03
782.647	0.03
782.952	0.03
783.256	0.03
783.561	0.03
783.865	0.03
784.17	0.03
784.474	0.02
784.778	0.02
785.082	0.03
785.386	0.03
785.69	0.03
785.994	0.03
786.298	0.03
786.602	0.02
786.906	0.03
787.209	0.03
787.513	0.03
787.817	0.02
788.12	0.02
788.424	0.02
788.727	0.03
789.03	0.03
789.333	0.03
789.637	0.03
789.94	0.03
790.243	0.03
790.546	0.03
790.849	0.02
791.152	0.02
791.454	0.02
791.757	0.02
792.06	0.02
792.362	0.03
792.665	0.02
792.967	0.03
793.27	0.03
793.572	0.03
793.874	0.03
794.177	0.03
794.479	0.03
794.781	0.03
795.083	0.03
795.385	0.03
795.687	0.02
795.989	0.03
796.29	0.03
796.592	0.03
796.894	0.03
797.195	0.03
797.497	0.03
797.798	0.03
798.1	0.03
798.401	0.03
798.702	0.03
799.003	0.03
799.304	0.03
799.605	0.03
799.906	0.03
800.207	0.02
800.508	0.03
800.809	0.02
801.11	0.03
801.41	0.03
801.711	0.03
802.011	0.03
802.312	0.03
802.612	0.03
802.913	0.03
803.213	0.04
803.513	0.03
803.813	0.03
804.113	0.03
804.413	0.03
804.713	0.03
805.013	0.03
805.313	0.03
805.613	0.03
805.912	0.03
806.212	0.03
806.511	0.03
806.811	0.03
807.11	0.03
807.41	0.03
807.709	0.02
808.008	0.02
808.307	0.02
808.606	0.02
808.905	0.03
809.204	0.03
809.503	0.03
809.802	0.03
810.101	0.03
810.399	0.04
810.698	0.03
810.997	0.03
811.295	0.04
811.593	0.04
811.892	0.04
812.19	0.04
812.488	0.03
812.786	0.04
813.084	0.04
813.383	0.04
813.68	0.04
813.978	0.04
814.276	0.04
814.574	0.04
814.872	0.04
815.169	0.04
815.467	0.03
815.764	0.04
816.062	0.03
816.359	0.03
816.656	0.03
816.954	0.03
817.251	0.03
817.548	0.04
817.845	0.04
818.142	0.04
818.439	0.04
818.735	0.04
819.032	0.03
819.329	0.04
819.626	0.04
819.922	0.04
820.219	0.04
820.515	0.04
820.811	0.04
821.108	0.04
821.404	0.03
821.7	0.03
821.996	0.03
822.292	0.03
822.588	0.04
822.884	0.04
823.18	0.04
823.475	0.03
823.771	0.03
824.067	0.03
824.362	0.03
824.658	0.03
824.953	0.03
825.249	0.03
825.544	0.04
825.839	0.04
826.134	0.04
826.429	0.04
826.724	0.04
827.019	0.05
827.314	0.04
827.609	0.04
827.904	0.03
828.198	0.04
828.493	0.04
828.787	0.03
829.082	0.03
829.376	0.03
829.671	0.03
829.965	0.04
830.259	0.04
830.553	0.04
830.847	0.03
831.141	0.04
831.435	0.04
831.729	0.03
832.023	0.04
832.317	0.04
832.61	0.05
832.904	0.04
833.197	0.04
833.491	0.04
833.784	0.05
834.077	0.05
834.371	0.04
834.664	0.04
834.957	0.04
835.25	0.04
835.543	0.04
835.836	0.04
836.129	0.04
836.421	0.03
836.714	0.04
837.007	0.04
837.299	0.04
837.592	0.04
837.884	0.04
838.177	0.03
838.469	0.04
838.761	0.04
839.053	0.03
839.345	0.03
839.637	0.03
839.929	0.03
840.221	0.04
840.513	0.05
840.805	0.04
841.096	0.04
841.388	0.04
841.68	0.04
841.971	0.04
842.262	0.03
842.554	0.03
842.845	0.03
843.136	0.02
843.427	0.03
843.718	0.03
844.009	0.04
844.3	0.04
844.591	0.04
844.882	0.04
845.173	0.03
845.463	0.03
845.754	0.04
846.044	0.06
846.335	0.04
846.625	0.04
846.915	0.04
847.206	0.04
847.496	0.05
847.786	0.04
848.076	0.04
848.366	0.04
848.656	0.05
848.945	0.05
849.235	0.04
849.525	0.05
849.814	0.05
850.104	0.05
850.393	0.04
850.683	0.04
850.972	0.05
851.261	0.04
851.551	0.05
851.84	0.05
852.129	0.05
852.418	0.05
852.707	0.05
852.995	0.04
853.284	0.05
853.573	0.06
853.862	0.06
854.15	0.05
854.439	0.04
854.727	0.04
855.015	0.05
855.304	0.04
855.592	0.04
855.88	0.03
856.168	0.04
856.456	0.04
856.744	0.04
857.032	0.04
857.32	0.06
857.607	0.04
857.895	0.04
858.183	0.06
858.47	0.04
858.757	0.04
859.045	0.05
859.332	0.05
859.619	0.02
859.907	0.02
860.194	0.02
860.481	0.03
860.768	0.03
861.054	0.03
861.341	0.04
861.628	0.05
861.915	0.02
862.201	0.02
862.488	0.03
862.774	0.03
863.061	0.03
863.347	0.04
863.633	0.05
863.919	0.03
864.205	0.04
864.491	0.03
864.777	0.04
865.063	0.03
865.349	0.04
865.635	0.03
865.92	0
866.206	0.03
866.492	0.03
866.777	0.03
867.062	0.04
867.348	0.03
867.633	0.04
867.918	0.05
868.203	0.04
868.488	0.03
868.773	0.01
869.058	0.01
869.343	0.01
869.628	0.03
869.912	0.01
870.197	0.03
870.482	-0.01
870.766	0.02
871.05	0.05
871.335	0.03
871.619	-0
871.903	0.02
872.187	0
872.471	0.01
872.755	0.06
873.039	0.05
873.323	0.03
873.607	-0.01
873.89	0.02
874.174	0.06
874.458	0.03
874.741	0.04
875.024	0.04
875.308	0.02
875.591	-0.03
875.874	-0.02
876.157	0.04
876.44	0.06
876.723	0.06
877.006	0.02
877.289	-0.01
877.572	0.04
877.854	-0.02
878.137	0.01
878.42	-0.01
878.702	-0.07
878.984	0.04
879.267	-0.03
879.549	0.05
879.831	-0.04
880.113	0.07
880.395	0.02
880.677	0
880.959	0.04
