Data from Rubpy_EV_600_EDTA_Buffered_Absorbance_12-58-06-987.txt Node
Date: Tue Jun 30 12:58:06 BST 2026
User: fpm-admin
Spectrometer: OFX00224
Trigger mode: 0
Integration Time (sec): 7.000000E-2
Scans to average: 3
Nonlinearity correction enabled: false
Boxcar width: 0
Storing dark spectrum: false
XAxis mode: Wavelengths
Number of Pixels in Spectrum: 2136
>>>>>Begin Spectral Data<<<<<
154.91	-0.64
155.289	0.38
155.669	0.5
156.048	0.03
156.428	-0
156.807	-0.41
157.186	-0
157.566	-0
157.945	0.04
158.325	0.02
158.704	-0.24
159.083	-0.83
159.462	-0
159.842	0.7
160.221	-0
160.6	0.05
160.979	-0.23
161.359	-0
161.738	0.85
162.117	-0.46
162.496	0.53
162.875	0.89
163.254	-0.27
163.633	-0
164.012	-0.26
164.391	-0
164.77	-0
165.149	0.05
165.528	-0.1
165.907	-0
166.286	-0
166.665	-0.36
167.044	0.43
167.423	1
167.802	-0.34
168.181	0.57
168.559	-0
168.938	-0.16
169.317	-0.29
169.696	-0.63
170.074	-0
170.453	-0.51
170.832	-0
171.21	-0
171.589	-0
171.968	-0
172.346	1.61
172.725	-0
173.103	-0.52
173.482	-0
173.861	0.06
174.239	-0
174.617	-0
174.996	-0
175.374	-0
175.753	-1.06
176.131	-0.18
176.51	-0
176.888	0.36
177.266	-0
177.645	-0.01
178.023	-0
178.401	-0.14
178.779	-0.15
179.158	0.17
179.536	0.48
179.914	0.48
180.292	-0
180.67	-0
181.048	-0
181.427	-1.36
181.805	0.05
182.183	-0.95
182.561	-0
182.939	-0.09
183.317	-0
183.695	-0.09
184.073	0.82
184.451	-0
184.829	-1.19
185.206	-0
185.584	0.75
185.962	-0
186.34	-0
186.718	-0
187.096	-0
187.473	0.34
187.851	0.3
188.229	0.08
188.607	0.08
188.984	0.22
189.362	0.14
189.74	0.18
190.117	0.11
190.495	0.09
190.872	0.12
191.25	0.12
191.627	0.31
192.005	0.09
192.382	0.21
192.76	0.17
193.137	0.27
193.515	0.22
193.892	0.09
194.269	0.02
194.647	0.21
195.024	0.01
195.401	0.16
195.779	0.11
196.156	0.05
196.533	0.06
196.91	0.2
197.288	0.12
197.665	0.08
198.042	0.12
198.419	0.1
198.796	0.05
199.173	0.1
199.55	0.07
199.927	0.09
200.304	0.11
200.681	0.07
201.058	0
201.435	0.06
201.812	0.05
202.189	0.12
202.566	0.27
202.943	0.13
203.32	0.22
203.697	0.07
204.073	0.02
204.45	0.16
204.827	0.18
205.204	0.11
205.58	0.09
205.957	0.11
206.334	0.17
206.71	0.07
207.087	0.15
207.464	0.08
207.84	0.18
208.217	0.09
208.593	0.33
208.97	0.15
209.346	0.09
209.723	0.16
210.099	0.13
210.476	0.12
210.852	0.24
211.228	0.2
211.605	0.15
211.981	0.13
212.357	0.11
212.733	0.12
213.11	0.13
213.486	0.11
213.862	0.12
214.238	0.16
214.614	0.15
214.991	0.17
215.367	0.12
215.743	0.1
216.119	0.2
216.495	0.04
216.871	0.13
217.247	0.32
217.623	0
217.999	0.26
218.375	0.14
218.751	0.08
219.127	0.16
219.502	0.17
219.878	0.15
220.254	0.19
220.63	0.24
221.006	0.11
221.381	0.1
221.757	0.15
222.133	0.17
222.508	0.15
222.884	0.17
223.26	0.07
223.635	0.12
224.011	0.12
224.386	0.17
224.762	0.14
225.137	0.16
225.513	0.12
225.888	0.1
226.264	0.25
226.639	0.22
227.014	0.21
227.39	0.12
227.765	0.1
228.14	0.05
228.516	0.2
228.891	0.14
229.266	0.16
229.641	0.14
230.017	0.18
230.392	0.28
230.767	0.15
231.142	0.12
231.517	0.13
231.892	0.14
232.267	0.16
232.642	0.15
233.017	0.14
233.392	0.13
233.767	0.17
234.142	0.15
234.517	0.1
234.892	0.19
235.267	0.08
235.641	0.22
236.016	0.06
236.391	0.2
236.766	0.08
237.14	0.09
237.515	0.07
237.89	0.17
238.264	0.02
238.639	0.24
239.014	0.12
239.388	0.07
239.763	0.14
240.137	0.18
240.512	0.25
240.886	0.02
241.261	0.15
241.635	0.14
242.009	0.13
242.384	0.12
242.758	0.14
243.132	0.13
243.507	0.12
243.881	0.12
244.255	0.16
244.629	0.19
245.004	0.18
245.378	0.09
245.752	0.28
246.126	0.18
246.5	0.2
246.874	0.14
247.248	0.22
247.622	0.07
247.996	0.16
248.37	0.19
248.744	0.06
249.118	0.21
249.492	0.22
249.866	0.11
250.24	0.09
250.613	0.05
250.987	0.08
251.361	0.15
251.735	0.11
252.108	0.18
252.482	0.18
252.856	0.02
253.229	0.08
253.603	0.06
253.977	0.16
254.35	0.13
254.724	0.17
255.097	0.15
255.471	0.06
255.844	0.06
256.218	0.1
256.591	0.07
256.964	0.08
257.338	0.16
257.711	0.18
258.084	0.09
258.458	0.21
258.831	0.24
259.204	0.11
259.577	0.15
259.95	0.16
260.323	0.11
260.697	0.11
261.07	0.2
261.443	0.14
261.816	0.17
262.189	0.18
262.562	0.08
262.935	0.15
263.308	0.09
263.68	0.11
264.053	0.12
264.426	0.14
264.799	0.1
265.172	0.16
265.545	0.16
265.917	0.13
266.29	0.18
266.663	0.15
267.035	0.12
267.408	0.08
267.781	0.11
268.153	0.16
268.526	0.18
268.898	0.14
269.271	0.1
269.643	0.16
270.016	0.11
270.388	0.17
270.76	0.21
271.133	0.12
271.505	0.14
271.877	0.14
272.25	0.05
272.622	0.15
272.994	0.18
273.366	0.2
273.739	0.17
274.111	0.11
274.483	0.07
274.855	0.12
275.227	0.19
275.599	0.11
275.971	0.19
276.343	0.06
276.715	0.12
277.087	0.16
277.459	0.17
277.831	0.14
278.203	0.17
278.574	0.19
278.946	0.11
279.318	0.14
279.69	0.17
280.061	0.14
280.433	0.21
280.805	0.09
281.176	0.08
281.548	0.23
281.92	0.09
282.291	0.17
282.663	0.14
283.034	0.15
283.406	0.18
283.777	0.11
284.148	0.11
284.52	0.08
284.891	0.16
285.262	0.09
285.634	0.16
286.005	0.17
286.376	0.11
286.747	0.14
287.119	0.1
287.49	0.13
287.861	0.14
288.232	0.2
288.603	0.13
288.974	0.07
289.345	0.1
289.716	0.1
290.087	0.06
290.458	0.13
290.829	0.09
291.2	0.09
291.571	0.1
291.941	0.12
292.312	0.18
292.683	0.17
293.054	0.15
293.424	0.15
293.795	0.12
294.166	0.16
294.536	0.13
294.907	0.15
295.277	0.11
295.648	0.09
296.018	0.12
296.389	0.1
296.759	0.12
297.13	0.09
297.5	0.12
297.871	0.1
298.241	0.11
298.611	0.11
298.981	0.13
299.352	0.09
299.722	0.09
300.092	0.11
300.462	0.09
300.832	0.1
301.202	0.08
301.573	0.1
301.943	0.09
302.313	0.06
302.683	0.09
303.053	0.07
303.422	0.08
303.792	0.08
304.162	0.08
304.532	0.09
304.902	0.08
305.272	0.07
305.641	0.09
306.011	0.08
306.381	0.08
306.75	0.09
307.12	0.09
307.49	0.09
307.859	0.09
308.229	0.09
308.598	0.08
308.968	0.09
309.337	0.09
309.707	0.09
310.076	0.09
310.445	0.09
310.815	0.1
311.184	0.1
311.553	0.09
311.923	0.09
312.292	0.09
312.661	0.1
313.03	0.1
313.399	0.1
313.768	0.1
314.137	0.09
314.506	0.1
314.875	0.1
315.244	0.09
315.613	0.1
315.982	0.11
316.351	0.1
316.72	0.1
317.089	0.1
317.458	0.1
317.826	0.09
318.195	0.09
318.564	0.1
318.933	0.09
319.301	0.09
319.67	0.1
320.038	0.09
320.407	0.09
320.775	0.08
321.144	0.09
321.512	0.09
321.881	0.09
322.249	0.09
322.618	0.08
322.986	0.08
323.354	0.09
323.723	0.08
324.091	0.08
324.459	0.08
324.827	0.09
325.195	0.09
325.564	0.08
325.932	0.09
326.3	0.08
326.668	0.08
327.036	0.08
327.404	0.08
327.772	0.08
328.14	0.08
328.508	0.08
328.875	0.08
329.243	0.08
329.611	0.07
329.979	0.08
330.346	0.07
330.714	0.08
331.082	0.07
331.449	0.08
331.817	0.08
332.185	0.08
332.552	0.08
332.92	0.08
333.287	0.09
333.655	0.08
334.022	0.08
334.389	0.09
334.757	0.08
335.124	0.09
335.491	0.09
335.859	0.08
336.226	0.09
336.593	0.09
336.96	0.09
337.327	0.09
337.695	0.1
338.062	0.09
338.429	0.1
338.796	0.1
339.163	0.1
339.53	0.1
339.897	0.1
340.263	0.11
340.63	0.11
340.997	0.11
341.364	0.11
341.731	0.11
342.097	0.11
342.464	0.11
342.831	0.11
343.197	0.12
343.564	0.12
343.931	0.12
344.297	0.12
344.664	0.13
345.03	0.13
345.396	0.13
345.763	0.13
346.129	0.13
346.496	0.13
346.862	0.14
347.228	0.14
347.594	0.14
347.961	0.15
348.327	0.14
348.693	0.14
349.059	0.14
349.425	0.15
349.791	0.16
350.157	0.15
350.523	0.16
350.889	0.16
351.255	0.17
351.621	0.17
351.987	0.17
352.353	0.18
352.719	0.18
353.084	0.18
353.45	0.19
353.816	0.19
354.181	0.19
354.547	0.2
354.913	0.2
355.278	0.21
355.644	0.21
356.009	0.21
356.375	0.22
356.74	0.22
357.106	0.23
357.471	0.24
357.836	0.24
358.202	0.24
358.567	0.25
358.932	0.25
359.297	0.25
359.663	0.27
360.028	0.27
360.393	0.27
360.758	0.27
361.123	0.28
361.488	0.28
361.853	0.29
362.218	0.28
362.583	0.29
362.948	0.29
363.312	0.3
363.677	0.3
364.042	0.31
364.407	0.32
364.772	0.31
365.136	0.32
365.501	0.33
365.865	0.34
366.23	0.35
366.595	0.35
366.959	0.36
367.324	0.37
367.688	0.37
368.052	0.38
368.417	0.39
368.781	0.39
369.145	0.4
369.51	0.4
369.874	0.4
370.238	0.4
370.602	0.4
370.967	0.4
371.331	0.4
371.695	0.4
372.059	0.4
372.423	0.4
372.787	0.39
373.151	0.39
373.515	0.39
373.878	0.39
374.242	0.4
374.606	0.4
374.97	0.39
375.334	0.4
375.697	0.4
376.061	0.4
376.425	0.41
376.788	0.41
377.152	0.41
377.515	0.41
377.879	0.42
378.242	0.42
378.606	0.43
378.969	0.43
379.333	0.44
379.696	0.44
380.059	0.45
380.422	0.47
380.786	0.47
381.149	0.48
381.512	0.49
381.875	0.49
382.238	0.51
382.601	0.52
382.964	0.54
383.327	0.55
383.69	0.56
384.053	0.57
384.416	0.59
384.779	0.61
385.142	0.63
385.504	0.63
385.867	0.64
386.23	0.64
386.593	0.65
386.955	0.65
387.318	0.66
387.68	0.65
388.043	0.65
388.405	0.65
388.768	0.64
389.13	0.63
389.493	0.63
389.855	0.63
390.217	0.62
390.58	0.63
390.942	0.62
391.304	0.63
391.666	0.63
392.028	0.65
392.391	0.67
392.753	0.68
393.115	0.7
393.477	0.73
393.839	0.75
394.201	0.78
394.563	0.81
394.924	0.85
395.286	0.89
395.648	0.91
396.01	0.94
396.371	0.96
396.733	0.98
397.095	1
397.456	1.01
397.818	1.01
398.18	1.01
398.541	1
398.903	0.98
399.264	0.95
399.625	0.92
399.987	0.88
400.348	0.84
400.709	0.8
401.071	0.76
401.432	0.71
401.793	0.67
402.154	0.63
402.515	0.59
402.876	0.55
403.238	0.5
403.599	0.47
403.96	0.43
404.32	0.4
404.681	0.37
405.042	0.35
405.403	0.32
405.764	0.3
406.125	0.28
406.485	0.26
406.846	0.24
407.207	0.23
407.567	0.21
407.928	0.2
408.288	0.2
408.649	0.18
409.009	0.17
409.37	0.17
409.73	0.15
410.091	0.15
410.451	0.14
410.811	0.14
411.171	0.13
411.532	0.12
411.892	0.12
412.252	0.12
412.612	0.11
412.972	0.11
413.332	0.1
413.692	0.1
414.052	0.09
414.412	0.09
414.772	0.09
415.132	0.09
415.492	0.09
415.851	0.08
416.211	0.08
416.571	0.07
416.931	0.07
417.29	0.08
417.65	0.07
418.009	0.07
418.369	0.07
418.728	0.07
419.088	0.06
419.447	0.06
419.807	0.06
420.166	0.07
420.525	0.06
420.884	0.06
421.244	0.06
421.603	0.06
421.962	0.06
422.321	0.06
422.68	0.06
423.039	0.05
423.398	0.06
423.757	0.06
424.116	0.05
424.475	0.05
424.834	0.05
425.193	0.06
425.551	0.05
425.91	0.04
426.269	0.06
426.628	0.05
426.986	0.05
427.345	0.05
427.703	0.05
428.062	0.04
428.42	0.05
428.779	0.05
429.137	0.05
429.496	0.05
429.854	0.04
430.212	0.05
430.57	0.04
430.929	0.05
431.287	0.04
431.645	0.04
432.003	0.05
432.361	0.04
432.719	0.03
433.077	0.05
433.435	0.04
433.793	0.04
434.151	0.04
434.509	0.04
434.866	0.05
435.224	0.04
435.582	0.04
435.94	0.04
436.297	0.04
436.655	0.04
437.012	0.04
437.37	0.04
437.727	0.04
438.085	0.04
438.442	0.04
438.8	0.04
439.157	0.04
439.514	0.04
439.872	0.04
440.229	0.04
440.586	0.04
440.943	0.04
441.3	0.04
441.657	0.03
442.014	0.03
442.371	0.03
442.728	0.03
443.085	0.03
443.442	0.04
443.799	0.02
444.156	0.04
444.513	0.03
444.869	0.04
445.226	0.04
445.583	0.03
445.939	0.03
446.296	0.03
446.652	0.03
447.009	0.03
447.365	0.03
447.722	0.04
448.078	0.02
448.434	0.03
448.791	0.03
449.147	0.03
449.503	0.02
449.859	0.03
450.215	0.03
450.571	0.03
450.928	0.03
451.284	0.02
451.64	0.02
451.995	0.03
452.351	0.01
452.707	0.02
453.063	0.02
453.419	0.03
453.775	0.02
454.13	0.03
454.486	0.04
454.842	0.02
455.197	0.02
455.553	0.02
455.908	0.02
456.264	0.02
456.619	0.02
456.975	0.02
457.33	0.02
457.685	0.01
458.04	0.01
458.396	0.01
458.751	0.01
459.106	0.01
459.461	0.01
459.816	0.01
460.171	0.01
460.526	0.02
460.881	0.01
461.236	0.01
461.591	0.01
461.946	0
462.301	0.01
462.655	0.01
463.01	-0
463.365	0
463.719	-0
464.074	0.01
464.428	-0
464.783	0
465.137	-0.01
465.492	0
465.846	-0
466.201	-0
466.555	-0
466.909	-0.01
467.263	0
467.618	0
467.972	-0.01
468.326	-0.01
468.68	-0
469.034	-0.01
469.388	-0.01
469.742	-0.01
470.096	-0.01
470.45	-0.01
470.804	-0
471.157	0
471.511	-0
471.865	-0
472.218	-0
472.572	-0.01
472.926	-0
473.279	-0
473.633	0
473.986	0
474.34	0
474.693	0.01
475.046	0
475.4	0.01
475.753	0.01
476.106	0.01
476.459	0.01
476.812	0.01
477.165	0.02
477.519	0.01
477.872	0.02
478.224	0.02
478.577	0.02
478.93	0.02
479.283	0.02
479.636	0.02
479.989	0.03
480.341	0.03
480.694	0.03
481.047	0.03
481.399	0.03
481.752	0.03
482.104	0.03
482.457	0.03
482.809	0.03
483.162	0.03
483.514	0.03
483.866	0.03
484.219	0.03
484.571	0.03
484.923	0.03
485.275	0.03
485.627	0.03
485.979	0.04
486.331	0.04
486.683	0.04
487.035	0.04
487.387	0.04
487.739	0.04
488.091	0.04
488.443	0.04
488.794	0.04
489.146	0.04
489.498	0.04
489.849	0.05
490.201	0.04
490.552	0.04
490.904	0.04
491.255	0.04
491.607	0.05
491.958	0.05
492.309	0.05
492.661	0.05
493.012	0.05
493.363	0.05
493.714	0.05
494.065	0.05
494.416	0.05
494.767	0.06
495.118	0.05
495.469	0.06
495.82	0.06
496.171	0.06
496.522	0.06
496.872	0.06
497.223	0.06
497.574	0.06
497.924	0.06
498.275	0.06
498.626	0.07
498.976	0.06
499.327	0.06
499.677	0.07
500.027	0.06
500.378	0.06
500.728	0.07
501.078	0.07
501.428	0.07
501.779	0.07
502.129	0.07
502.479	0.07
502.829	0.07
503.179	0.07
503.529	0.07
503.879	0.08
504.229	0.07
504.578	0.07
504.928	0.08
505.278	0.07
505.628	0.08
505.977	0.08
506.327	0.08
506.676	0.08
507.026	0.08
507.375	0.09
507.725	0.09
508.074	0.09
508.424	0.08
508.773	0.09
509.122	0.09
509.471	0.09
509.82	0.09
510.17	0.09
510.519	0.09
510.868	0.09
511.217	0.09
511.566	0.09
511.915	0.1
512.263	0.1
512.612	0.09
512.961	0.1
513.31	0.09
513.659	0.1
514.007	0.1
514.356	0.1
514.704	0.1
515.053	0.1
515.401	0.1
515.75	0.1
516.098	0.11
516.447	0.11
516.795	0.1
517.143	0.11
517.491	0.11
517.839	0.11
518.188	0.11
518.536	0.11
518.884	0.11
519.232	0.12
519.58	0.12
519.928	0.12
520.275	0.12
520.623	0.12
520.971	0.12
521.319	0.12
521.666	0.12
522.014	0.12
522.362	0.12
522.709	0.12
523.057	0.12
523.404	0.12
523.752	0.12
524.099	0.13
524.446	0.13
524.794	0.13
525.141	0.13
525.488	0.13
525.835	0.13
526.182	0.13
526.529	0.13
526.876	0.14
527.223	0.14
527.57	0.13
527.917	0.14
528.264	0.14
528.611	0.14
528.958	0.14
529.304	0.14
529.651	0.15
529.998	0.15
530.344	0.14
530.691	0.15
531.037	0.15
531.384	0.15
531.73	0.15
532.076	0.15
532.423	0.15
532.769	0.15
533.115	0.15
533.461	0.15
533.807	0.15
534.154	0.15
534.5	0.16
534.846	0.16
535.192	0.16
535.537	0.16
535.883	0.17
536.229	0.16
536.575	0.16
536.921	0.16
537.266	0.17
537.612	0.17
537.957	0.17
538.303	0.17
538.649	0.17
538.994	0.17
539.339	0.17
539.685	0.18
540.03	0.18
540.375	0.18
540.721	0.18
541.066	0.18
541.411	0.18
541.756	0.18
542.101	0.18
542.446	0.19
542.791	0.19
543.136	0.19
543.481	0.19
543.825	0.19
544.17	0.19
544.515	0.19
544.86	0.19
545.204	0.2
545.549	0.2
545.893	0.2
546.238	0.2
546.582	0.2
546.927	0.2
547.271	0.21
547.615	0.2
547.96	0.21
548.304	0.21
548.648	0.21
548.992	0.21
549.336	0.21
549.68	0.21
550.024	0.22
550.368	0.22
550.712	0.22
551.056	0.22
551.4	0.22
551.743	0.23
552.087	0.22
552.431	0.22
552.774	0.23
553.118	0.23
553.462	0.23
553.805	0.23
554.148	0.23
554.492	0.23
554.835	0.23
555.178	0.23
555.522	0.23
555.865	0.23
556.208	0.24
556.551	0.23
556.894	0.24
557.237	0.24
557.58	0.24
557.923	0.24
558.266	0.23
558.609	0.23
558.952	0.24
559.294	0.24
559.637	0.24
559.98	0.24
560.322	0.25
560.665	0.24
561.007	0.24
561.35	0.24
561.692	0.24
562.034	0.24
562.377	0.24
562.719	0.25
563.061	0.25
563.403	0.25
563.745	0.24
564.088	0.25
564.43	0.25
564.772	0.25
565.113	0.25
565.455	0.25
565.797	0.25
566.139	0.25
566.481	0.25
566.822	0.25
567.164	0.25
567.506	0.25
567.847	0.25
568.189	0.26
568.53	0.25
568.872	0.26
569.213	0.26
569.554	0.26
569.895	0.26
570.237	0.25
570.578	0.25
570.919	0.25
571.26	0.26
571.601	0.26
571.942	0.26
572.283	0.25
572.624	0.25
572.965	0.25
573.306	0.25
573.646	0.25
573.987	0.25
574.328	0.26
574.668	0.25
575.009	0.25
575.349	0.26
575.69	0.26
576.03	0.25
576.37	0.25
576.711	0.25
577.051	0.25
577.391	0.25
577.731	0.26
578.072	0.25
578.412	0.25
578.752	0.25
579.092	0.25
579.431	0.25
579.771	0.25
580.111	0.24
580.451	0.24
580.791	0.25
581.13	0.25
581.47	0.26
581.81	0.26
582.149	0.26
582.489	0.26
582.828	0.26
583.167	0.25
583.507	0.23
583.846	0.21
584.185	0.22
584.525	0.24
584.864	0.25
585.203	0.26
585.542	0.26
585.881	0.27
586.22	0.27
586.559	0.26
586.898	0.26
587.236	0.26
587.575	0.26
587.914	0.26
588.252	0.26
588.591	0.27
588.93	0.27
589.268	0.27
589.607	0.27
589.945	0.27
590.283	0.27
590.622	0.28
590.96	0.28
591.298	0.28
591.636	0.28
591.974	0.28
592.313	0.29
592.651	0.29
592.989	0.29
593.326	0.29
593.664	0.29
594.002	0.29
594.34	0.29
594.678	0.29
595.015	0.29
595.353	0.29
595.691	0.29
596.028	0.3
596.366	0.3
596.703	0.3
597.04	0.3
597.378	0.3
597.715	0.31
598.052	0.31
598.389	0.31
598.726	0.31
599.064	0.31
599.401	0.32
599.738	0.31
600.074	0.32
600.411	0.31
600.748	0.31
601.085	0.31
601.422	0.31
601.758	0.31
602.095	0.31
602.432	0.31
602.768	0.31
603.105	0.31
603.441	0.32
603.777	0.32
604.114	0.32
604.45	0.32
604.786	0.32
605.122	0.32
605.459	0.32
605.795	0.32
606.131	0.31
606.467	0.32
606.803	0.32
607.139	0.32
607.474	0.31
607.81	0.31
608.146	0.31
608.482	0.31
608.817	0.31
609.153	0.31
609.488	0.31
609.824	0.31
610.159	0.31
610.495	0.3
610.83	0.31
611.165	0.31
611.5	0.31
611.836	0.31
612.171	0.31
612.506	0.31
612.841	0.3
613.176	0.3
613.511	0.31
613.845	0.3
614.18	0.3
614.515	0.3
614.85	0.3
615.184	0.3
615.519	0.3
615.854	0.3
616.188	0.3
616.523	0.29
616.857	0.29
617.191	0.3
617.526	0.29
617.86	0.29
618.194	0.29
618.528	0.3
618.862	0.3
619.196	0.3
619.53	0.29
619.864	0.29
620.198	0.29
620.532	0.29
620.866	0.29
621.2	0.29
621.533	0.29
621.867	0.29
622.201	0.29
622.534	0.29
622.868	0.29
623.201	0.29
623.534	0.28
623.868	0.28
624.201	0.28
624.534	0.28
624.868	0.28
625.201	0.28
625.534	0.28
625.867	0.28
626.2	0.28
626.533	0.28
626.865	0.28
627.198	0.28
627.531	0.27
627.864	0.27
628.196	0.27
628.529	0.27
628.862	0.27
629.194	0.27
629.527	0.27
629.859	0.27
630.191	0.26
630.524	0.26
630.856	0.26
631.188	0.26
631.52	0.26
631.852	0.25
632.184	0.25
632.516	0.25
632.848	0.25
633.18	0.25
633.512	0.24
633.844	0.24
634.175	0.25
634.507	0.24
634.839	0.24
635.17	0.23
635.502	0.23
635.833	0.23
636.165	0.23
636.496	0.23
636.827	0.23
637.159	0.23
637.49	0.23
637.821	0.23
638.152	0.23
638.483	0.22
638.814	0.22
639.145	0.22
639.476	0.22
639.807	0.22
640.137	0.22
640.468	0.21
640.799	0.21
641.129	0.21
641.46	0.22
641.791	0.21
642.121	0.21
642.451	0.2
642.782	0.2
643.112	0.2
643.442	0.2
643.773	0.2
644.103	0.2
644.433	0.2
644.763	0.19
645.093	0.19
645.423	0.19
645.753	0.19
646.082	0.19
646.412	0.19
646.742	0.19
647.072	0.19
647.401	0.19
647.731	0.19
648.06	0.19
648.39	0.19
648.719	0.19
649.048	0.19
649.378	0.19
649.707	0.19
650.036	0.18
650.365	0.18
650.694	0.18
651.023	0.18
651.352	0.18
651.681	0.18
652.01	0.18
652.339	0.18
652.668	0.18
652.996	0.18
653.325	0.18
653.654	0.18
653.982	0.18
654.311	0.18
654.639	0.18
654.967	0.18
655.296	0.18
655.624	0.18
655.952	0.18
656.28	0.17
656.609	0.17
656.937	0.18
657.265	0.18
657.593	0.16
657.92	0.05
658.248	0
658.576	0
658.904	0.04
659.231	0.11
659.559	0.16
659.887	0.17
660.214	0.17
660.542	0.17
660.869	0.18
661.196	0.18
661.524	0.17
661.851	0.17
662.178	0.17
662.505	0.17
662.832	0.18
663.159	0.17
663.486	0.17
663.813	0.18
664.14	0.18
664.467	0.18
664.794	0.18
665.12	0.17
665.447	0.17
665.774	0.18
666.1	0.17
666.427	0.17
666.753	0.17
667.079	0.17
667.406	0.17
667.732	0.17
668.058	0.17
668.384	0.17
668.71	0.17
669.036	0.17
669.362	0.17
669.688	0.17
670.014	0.17
670.34	0.17
670.666	0.16
670.991	0.17
671.317	0.16
671.643	0.16
671.968	0.16
672.294	0.16
672.619	0.16
672.945	0.15
673.27	0.15
673.595	0.15
673.92	0.15
674.246	0.15
674.571	0.15
674.896	0.15
675.221	0.15
675.546	0.15
675.87	0.15
676.195	0.15
676.52	0.16
676.845	0.15
677.169	0.15
677.494	0.15
677.819	0.15
678.143	0.15
678.468	0.15
678.792	0.15
679.116	0.15
679.44	0.15
679.765	0.14
680.089	0.14
680.413	0.14
680.737	0.14
681.061	0.14
681.385	0.14
681.709	0.13
682.033	0.13
682.356	0.13
682.68	0.13
683.004	0.13
683.327	0.12
683.651	0.12
683.974	0.12
684.298	0.12
684.621	0.12
684.944	0.12
685.268	0.12
685.591	0.12
685.914	0.11
686.237	0.11
686.56	0.11
686.883	0.11
687.206	0.11
687.529	0.11
687.852	0.11
688.175	0.11
688.497	0.11
688.82	0.11
689.142	0.11
689.465	0.1
689.787	0.1
690.11	0.1
690.432	0.1
690.755	0.1
691.077	0.1
691.399	0.1
691.721	0.1
692.043	0.1
692.365	0.1
692.687	0.1
693.009	0.1
693.331	0.1
693.653	0.09
693.974	0.09
694.296	0.09
694.618	0.09
694.939	0.09
695.261	0.09
695.582	0.09
695.904	0.09
696.225	0.09
696.546	0.08
696.868	0.09
697.189	0.08
697.51	0.08
697.831	0.08
698.152	0.08
698.473	0.08
698.794	0.08
699.114	0.08
699.435	0.07
699.756	0.07
700.077	0.08
700.397	0.08
700.718	0.08
701.038	0.08
701.359	0.08
701.679	0.08
701.999	0.08
702.32	0.08
702.64	0.08
702.96	0.08
703.28	0.08
703.6	0.07
703.92	0.07
704.24	0.07
704.56	0.07
704.879	0.07
705.199	0.07
705.519	0.07
705.838	0.07
706.158	0.07
706.478	0.07
706.797	0.07
707.116	0.07
707.436	0.07
707.755	0.07
708.074	0.07
708.393	0.07
708.712	0.07
709.031	0.06
709.35	0.07
709.669	0.06
709.988	0.06
710.307	0.06
710.626	0.06
710.944	0.06
711.263	0.06
711.582	0.06
711.9	0.06
712.219	0.07
712.537	0.06
712.855	0.06
713.174	0.06
713.492	0.06
713.81	0.06
714.128	0.06
714.446	0.06
714.764	0.06
715.082	0.06
715.4	0.06
715.718	0.06
716.035	0.06
716.353	0.06
716.671	0.06
716.988	0.06
717.306	0.07
717.623	0.07
717.941	0.07
718.258	0.07
718.575	0.07
718.893	0.07
719.21	0.07
719.527	0.07
719.844	0.07
720.161	0.07
720.478	0.08
720.795	0.07
721.112	0.07
721.428	0.08
721.745	0.07
722.062	0.07
722.378	0.07
722.695	0.08
723.011	0.07
723.328	0.07
723.644	0.07
723.96	0.07
724.276	0.08
724.593	0.08
724.909	0.07
725.225	0.07
725.541	0.08
725.857	0.08
726.173	0.07
726.488	0.08
726.804	0.07
727.12	0.07
727.435	0.07
727.751	0.08
728.067	0.08
728.382	0.07
728.697	0.07
729.013	0.08
729.328	0.07
729.643	0.08
729.958	0.08
730.273	0.08
730.588	0.07
730.903	0.08
731.218	0.08
731.533	0.08
731.848	0.08
732.163	0.07
732.477	0.07
732.792	0.07
733.107	0.07
733.421	0.07
733.736	0.07
734.05	0.07
734.364	0.07
734.678	0.07
734.993	0.07
735.307	0.07
735.621	0.07
735.935	0.07
736.249	0.07
736.563	0.07
736.877	0.07
737.19	0.07
737.504	0.07
737.818	0.07
738.131	0.07
738.445	0.07
738.758	0.07
739.072	0.07
739.385	0.07
739.698	0.07
740.012	0.06
740.325	0.06
740.638	0.06
740.951	0.06
741.264	0.06
741.577	0.06
741.89	0.06
742.203	0.07
742.515	0.07
742.828	0.07
743.141	0.07
743.453	0.07
743.766	0.06
744.078	0.06
744.391	0.06
744.703	0.06
745.015	0.06
745.327	0.06
745.639	0.05
745.952	0.05
746.264	0.05
746.575	0.05
746.887	0.05
747.199	0.06
747.511	0.06
747.823	0.06
748.134	0.05
748.446	0.05
748.757	0.05
749.069	0.05
749.38	0.06
749.692	0.06
750.003	0.06
750.314	0.06
750.625	0.06
750.936	0.06
751.248	0.06
751.559	0.06
751.869	0.06
752.18	0.06
752.491	0.06
752.802	0.06
753.112	0.05
753.423	0.05
753.734	0.05
754.044	0.05
754.355	0.04
754.665	0.04
754.975	0.04
755.285	0.05
755.596	0.05
755.906	0.04
756.216	0.04
756.526	0.04
756.836	0.05
757.146	0.05
757.455	0.04
757.765	0.04
758.075	0.04
758.385	0.04
758.694	0.04
759.004	0.04
759.313	0.04
759.622	0.04
759.932	0.04
760.241	0.04
760.55	0.04
760.859	0.04
761.168	0.04
761.477	0.04
761.786	0.04
762.095	0.04
762.404	0.04
762.713	0.04
763.021	0.04
763.33	0.04
763.639	0.04
763.947	0.04
764.256	0.04
764.564	0.04
764.872	0.04
765.181	0.04
765.489	0.04
765.797	0.04
766.105	0.04
766.413	0.04
766.721	0.03
767.029	0.04
767.337	0.04
767.644	0.04
767.952	0.04
768.26	0.04
768.567	0.04
768.875	0.04
769.182	0.03
769.49	0.03
769.797	0.03
770.104	0.03
770.411	0.03
770.718	0.03
771.026	0.03
771.333	0.03
771.639	0.03
771.946	0.03
772.253	0.03
772.56	0.03
772.867	0.03
773.173	0.03
773.48	0.03
773.786	0.03
774.093	0.03
774.399	0.03
774.705	0.03
775.012	0.03
775.318	0.03
775.624	0.03
775.93	0.03
776.236	0.03
776.542	0.03
776.848	0.03
777.154	0.03
777.459	0.03
777.765	0.03
778.071	0.03
778.376	0.03
778.682	0.04
778.987	0.04
779.292	0.03
779.598	0.04
779.903	0.04
780.208	0.04
780.513	0.03
780.818	0.04
781.123	0.03
781.428	0.03
781.733	0.03
782.038	0.03
782.343	0.04
782.647	0.04
782.952	0.04
783.256	0.04
783.561	0.04
783.865	0.03
784.17	0.03
784.474	0.03
784.778	0.03
785.082	0.03
785.386	0.03
785.69	0.03
785.994	0.04
786.298	0.04
786.602	0.03
786.906	0.03
787.209	0.03
787.513	0.03
787.817	0.03
788.12	0.03
788.424	0.03
788.727	0.03
789.03	0.03
789.333	0.03
789.637	0.03
789.94	0.04
790.243	0.03
790.546	0.03
790.849	0.02
791.152	0.02
791.454	0.02
791.757	0.02
792.06	0.02
792.362	0.02
792.665	0.02
792.967	0.03
793.27	0.03
793.572	0.03
793.874	0.03
794.177	0.03
794.479	0.03
794.781	0.03
795.083	0.03
795.385	0.03
795.687	0.03
795.989	0.03
796.29	0.03
796.592	0.03
796.894	0.03
797.195	0.03
797.497	0.03
797.798	0.03
798.1	0.03
798.401	0.03
798.702	0.04
799.003	0.04
799.304	0.04
799.605	0.03
799.906	0.03
800.207	0.03
800.508	0.03
800.809	0.03
801.11	0.03
801.41	0.03
801.711	0.03
802.011	0.04
802.312	0.03
802.612	0.03
802.913	0.04
803.213	0.03
803.513	0.04
803.813	0.04
804.113	0.03
804.413	0.04
804.713	0.03
805.013	0.03
805.313	0.03
805.613	0.03
805.912	0.03
806.212	0.03
806.511	0.03
806.811	0.03
807.11	0.03
807.41	0.03
807.709	0.02
808.008	0.02
808.307	0.02
808.606	0.03
808.905	0.03
809.204	0.03
809.503	0.03
809.802	0.03
810.101	0.03
810.399	0.04
810.698	0.04
810.997	0.03
811.295	0.04
811.593	0.04
811.892	0.04
812.19	0.04
812.488	0.03
812.786	0.04
813.084	0.04
813.383	0.04
813.68	0.04
813.978	0.04
814.276	0.04
814.574	0.05
814.872	0.05
815.169	0.05
815.467	0.04
815.764	0.04
816.062	0.04
816.359	0.04
816.656	0.04
816.954	0.04
817.251	0.04
817.548	0.04
817.845	0.05
818.142	0.04
818.439	0.04
818.735	0.04
819.032	0.04
819.329	0.04
819.626	0.04
819.922	0.04
820.219	0.04
820.515	0.04
820.811	0.04
821.108	0.04
821.404	0.04
821.7	0.04
821.996	0.04
822.292	0.04
822.588	0.04
822.884	0.04
823.18	0.04
823.475	0.04
823.771	0.04
824.067	0.03
824.362	0.04
824.658	0.03
824.953	0.03
825.249	0.04
825.544	0.04
825.839	0.04
826.134	0.04
826.429	0.04
826.724	0.04
827.019	0.04
827.314	0.04
827.609	0.04
827.904	0.04
828.198	0.04
828.493	0.04
828.787	0.04
829.082	0.04
829.376	0.04
829.671	0.04
829.965	0.04
830.259	0.05
830.553	0.05
830.847	0.04
831.141	0.04
831.435	0.04
831.729	0.04
832.023	0.04
832.317	0.05
832.61	0.05
832.904	0.05
833.197	0.05
833.491	0.05
833.784	0.05
834.077	0.05
834.371	0.05
834.664	0.05
834.957	0.05
835.25	0.05
835.543	0.05
835.836	0.04
836.129	0.05
836.421	0.04
836.714	0.04
837.007	0.04
837.299	0.04
837.592	0.04
837.884	0.04
838.177	0.04
838.469	0.04
838.761	0.04
839.053	0.03
839.345	0.04
839.637	0.03
839.929	0.04
840.221	0.03
840.513	0.04
840.805	0.04
841.096	0.04
841.388	0.04
841.68	0.03
841.971	0.05
842.262	0.03
842.554	0.04
842.845	0.04
843.136	0.03
843.427	0.04
843.718	0.04
844.009	0.05
844.3	0.04
844.591	0.05
844.882	0.05
845.173	0.04
845.463	0.05
845.754	0.06
846.044	0.05
846.335	0.05
846.625	0.06
846.915	0.06
847.206	0.05
847.496	0.05
847.786	0.05
848.076	0.05
848.366	0.05
848.656	0.04
848.945	0.05
849.235	0.05
849.525	0.04
849.814	0.04
850.104	0.04
850.393	0.04
850.683	0.05
850.972	0.05
851.261	0.04
851.551	0.05
851.84	0.04
852.129	0.04
852.418	0.03
852.707	0.04
852.995	0.04
853.284	0.05
853.573	0.05
853.862	0.05
854.15	0.05
854.439	0.03
854.727	0.06
855.015	0.06
855.304	0.03
855.592	0.05
855.88	0.03
856.168	0.03
856.456	0.04
856.744	0.04
857.032	0.04
857.32	0.04
857.607	0.05
857.895	0.04
858.183	0.05
858.47	0.04
858.757	0.04
859.045	0.05
859.332	0.04
859.619	0.03
859.907	0.04
860.194	0.05
860.481	0.04
860.768	0.05
861.054	0.04
861.341	0.04
861.628	0.05
861.915	0.05
862.201	0.03
862.488	0.04
862.774	0.02
863.061	0.04
863.347	0.03
863.633	0.06
863.919	0.07
864.205	0.05
864.491	0.05
864.777	0.03
865.063	0.02
865.349	0.05
865.635	0.04
865.92	0.02
866.206	0.05
866.492	0.04
866.777	0.02
867.062	0.03
867.348	0.04
867.633	0.04
867.918	0.04
868.203	0.05
868.488	0.04
868.773	0.02
869.058	0.04
869.343	0.01
869.628	0.03
869.912	0.01
870.197	0.03
870.482	0.02
870.766	0.02
871.05	0.04
871.335	-0.01
871.619	0.01
871.903	0.02
872.187	0.06
872.471	-0.01
872.755	0.05
873.039	0.04
873.323	0.06
873.607	-0
873.89	-0
874.174	0.03
874.458	0.02
874.741	0.03
875.024	0.03
875.308	0.02
875.591	-0.01
875.874	0
876.157	-0
876.44	0.05
876.723	0.08
877.006	0.05
877.289	-0.01
877.572	0.09
877.854	0.02
878.137	0.01
878.42	-0
878.702	-0.06
878.984	0.04
879.267	0.02
879.549	0.01
879.831	-0.02
880.113	-0.06
880.395	-0.05
880.677	0.04
880.959	-0.01
