Data from Rubpy_EV_600_EDTA_Buffered_Absorbance_13-18-15-182.txt Node
Date: Tue Jun 30 13:18:15 BST 2026
User: fpm-admin
Spectrometer: OFX00224
Trigger mode: 0
Integration Time (sec): 7.000000E-2
Scans to average: 3
Nonlinearity correction enabled: false
Boxcar width: 0
Storing dark spectrum: false
XAxis mode: Wavelengths
Number of Pixels in Spectrum: 2136
>>>>>Begin Spectral Data<<<<<
154.91	-0.64
155.289	-0
155.669	-0
156.048	-0.53
156.428	0.11
156.807	-0.58
157.186	-0.09
157.566	0.6
157.945	0.63
158.325	0.35
158.704	-0
159.083	-0
159.462	-1.16
159.842	-0
160.221	-0
160.6	0.14
160.979	-0
161.359	-0
161.738	-0.12
162.117	-0.64
162.496	0.75
162.875	0.11
163.254	0.02
163.633	-0
164.012	-0.43
164.391	-0.42
164.77	-0
165.149	-0.07
165.528	0.27
165.907	0.1
166.286	-0
166.665	0.04
167.044	-0
167.423	0.25
167.802	-0.23
168.181	-0
168.559	-0.35
168.938	0.13
169.317	-0.33
169.696	-0.81
170.074	-0
170.453	-0.15
170.832	1
171.21	-0
171.589	0.5
171.968	-0
172.346	-0
172.725	-0
173.103	-0.43
173.482	0.88
173.861	0.27
174.239	-0.18
174.617	-0
174.996	-0
175.374	-0
175.753	-0.7
176.131	-0
176.51	0.48
176.888	-0
177.266	-0
177.645	-0
178.023	-0
178.401	-0.22
178.779	-0.18
179.158	-0.09
179.536	0.78
179.914	0.39
180.292	-0
180.67	-0
181.048	-0
181.427	-1.15
181.805	0.25
182.183	-0
182.561	-0
182.939	0.87
183.317	-0
183.695	0.95
184.073	0.02
184.451	-0
184.829	-0.65
185.206	-0.1
185.584	-0.17
185.962	-0
186.34	0.28
186.718	-0.1
187.096	-0
187.473	-0.16
187.851	-0
188.229	1.08
188.607	0.24
188.984	0.12
189.362	0.2
189.74	0.28
190.117	0.14
190.495	0.29
190.872	0.14
191.25	0.18
191.627	0.29
192.005	0.35
192.382	0.26
192.76	0.28
193.137	0.33
193.515	0.26
193.892	0.19
194.269	0.11
194.647	0.25
195.024	0.17
195.401	0.23
195.779	0.3
196.156	0.08
196.533	0.19
196.91	0.31
197.288	0.15
197.665	0.11
198.042	0.11
198.419	0.19
198.796	0.19
199.173	0.36
199.55	0.16
199.927	0.22
200.304	0.28
200.681	0.15
201.058	0.01
201.435	0.14
201.812	0.18
202.189	0.27
202.566	0.37
202.943	0.25
203.32	0.12
203.697	0.23
204.073	0.12
204.45	0.18
204.827	0.3
205.204	0.26
205.58	0.18
205.957	0.18
206.334	0.26
206.71	0.21
207.087	0.37
207.464	0.17
207.84	0.24
208.217	0.13
208.593	0.29
208.97	0.21
209.346	0.2
209.723	0.33
210.099	0.17
210.476	0.26
210.852	0.27
211.228	0.23
211.605	0.1
211.981	0.25
212.357	0.18
212.733	0.22
213.11	0.15
213.486	0.15
213.862	0.21
214.238	0.25
214.614	0.2
214.991	0.11
215.367	0.28
215.743	0.13
216.119	0.27
216.495	0
216.871	0.25
217.247	0.21
217.623	0.11
217.999	0.32
218.375	0.2
218.751	0.27
219.127	0.27
219.502	0.18
219.878	0.31
220.254	0.23
220.63	0.25
221.006	0.18
221.381	0.15
221.757	0.25
222.133	0.16
222.508	0.16
222.884	0.24
223.26	0.24
223.635	0.16
224.011	0.19
224.386	0.29
224.762	0.18
225.137	0.23
225.513	0.19
225.888	0.2
226.264	0.33
226.639	0.31
227.014	0.32
227.39	0.24
227.765	0.34
228.14	0.18
228.516	0.18
228.891	0.19
229.266	0.25
229.641	0.33
230.017	0.22
230.392	0.28
230.767	0.3
231.142	0.25
231.517	0.24
231.892	0.27
232.267	0.21
232.642	0.35
233.017	0.13
233.392	0.22
233.767	0.24
234.142	0.21
234.517	0.16
234.892	0.21
235.267	0.23
235.641	0.19
236.016	0.14
236.391	0.26
236.766	0.21
237.14	0.15
237.515	0.23
237.89	0.22
238.264	0.25
238.639	0.33
239.014	0.18
239.388	0.24
239.763	0.42
240.137	0.27
240.512	0.23
240.886	0.13
241.261	0.23
241.635	0.24
242.009	0.23
242.384	0.16
242.758	0.14
243.132	0.24
243.507	0.23
243.881	0.23
244.255	0.21
244.629	0.3
245.004	0.19
245.378	0.14
245.752	0.22
246.126	0.34
246.5	0.22
246.874	0.26
247.248	0.2
247.622	0.28
247.996	0.25
248.37	0.27
248.744	0.14
249.118	0.25
249.492	0.18
249.866	0.21
250.24	0.08
250.613	0.13
250.987	0.14
251.361	0.29
251.735	0.17
252.108	0.19
252.482	0.18
252.856	0.11
253.229	0.19
253.603	0.11
253.977	0.23
254.35	0.2
254.724	0.21
255.097	0.2
255.471	0.24
255.844	0.17
256.218	0.19
256.591	0.13
256.964	0.22
257.338	0.25
257.711	0.23
258.084	0.14
258.458	0.18
258.831	0.33
259.204	0.21
259.577	0.2
259.95	0.3
260.323	0.09
260.697	0.27
261.07	0.2
261.443	0.2
261.816	0.22
262.189	0.33
262.562	0.28
262.935	0.19
263.308	0.21
263.68	0.2
264.053	0.2
264.426	0.16
264.799	0.2
265.172	0.25
265.545	0.2
265.917	0.17
266.29	0.21
266.663	0.19
267.035	0.22
267.408	0.25
267.781	0.23
268.153	0.27
268.526	0.19
268.898	0.35
269.271	0.2
269.643	0.27
270.016	0.33
270.388	0.29
270.76	0.24
271.133	0.2
271.505	0.17
271.877	0.23
272.25	0.15
272.622	0.25
272.994	0.23
273.366	0.31
273.739	0.22
274.111	0.14
274.483	0.17
274.855	0.21
275.227	0.21
275.599	0.17
275.971	0.25
276.343	0.2
276.715	0.31
277.087	0.24
277.459	0.21
277.831	0.2
278.203	0.25
278.574	0.28
278.946	0.22
279.318	0.32
279.69	0.28
280.061	0.2
280.433	0.22
280.805	0.28
281.176	0.21
281.548	0.15
281.92	0.2
282.291	0.16
282.663	0.2
283.034	0.19
283.406	0.26
283.777	0.22
284.148	0.18
284.52	0.2
284.891	0.21
285.262	0.2
285.634	0.22
286.005	0.18
286.376	0.22
286.747	0.19
287.119	0.21
287.49	0.24
287.861	0.2
288.232	0.22
288.603	0.23
288.974	0.11
289.345	0.24
289.716	0.19
290.087	0.18
290.458	0.22
290.829	0.18
291.2	0.13
291.571	0.15
291.941	0.21
292.312	0.24
292.683	0.27
293.054	0.19
293.424	0.19
293.795	0.26
294.166	0.19
294.536	0.2
294.907	0.16
295.277	0.18
295.648	0.17
296.018	0.17
296.389	0.13
296.759	0.18
297.13	0.19
297.5	0.21
297.871	0.2
298.241	0.13
298.611	0.14
298.981	0.21
299.352	0.16
299.722	0.2
300.092	0.21
300.462	0.17
300.832	0.17
301.202	0.13
301.573	0.13
301.943	0.16
302.313	0.13
302.683	0.13
303.053	0.13
303.422	0.14
303.792	0.13
304.162	0.14
304.532	0.13
304.902	0.13
305.272	0.14
305.641	0.14
306.011	0.15
306.381	0.15
306.75	0.14
307.12	0.15
307.49	0.15
307.859	0.16
308.229	0.15
308.598	0.16
308.968	0.16
309.337	0.16
309.707	0.15
310.076	0.16
310.445	0.17
310.815	0.17
311.184	0.17
311.553	0.17
311.923	0.18
312.292	0.17
312.661	0.18
313.03	0.18
313.399	0.18
313.768	0.18
314.137	0.17
314.506	0.18
314.875	0.18
315.244	0.18
315.613	0.17
315.982	0.18
316.351	0.18
316.72	0.18
317.089	0.18
317.458	0.17
317.826	0.17
318.195	0.17
318.564	0.17
318.933	0.16
319.301	0.16
319.67	0.17
320.038	0.16
320.407	0.16
320.775	0.16
321.144	0.16
321.512	0.16
321.881	0.15
322.249	0.16
322.618	0.15
322.986	0.15
323.354	0.15
323.723	0.15
324.091	0.15
324.459	0.14
324.827	0.15
325.195	0.14
325.564	0.14
325.932	0.15
326.3	0.14
326.668	0.15
327.036	0.14
327.404	0.14
327.772	0.15
328.14	0.15
328.508	0.15
328.875	0.14
329.243	0.14
329.611	0.14
329.979	0.15
330.346	0.14
330.714	0.15
331.082	0.14
331.449	0.14
331.817	0.15
332.185	0.15
332.552	0.15
332.92	0.15
333.287	0.15
333.655	0.15
334.022	0.15
334.389	0.16
334.757	0.15
335.124	0.16
335.491	0.16
335.859	0.16
336.226	0.16
336.593	0.17
336.96	0.17
337.327	0.17
337.695	0.18
338.062	0.17
338.429	0.17
338.796	0.18
339.163	0.18
339.53	0.18
339.897	0.18
340.263	0.19
340.63	0.19
340.997	0.19
341.364	0.2
341.731	0.2
342.097	0.21
342.464	0.21
342.831	0.2
343.197	0.22
343.564	0.22
343.931	0.22
344.297	0.22
344.664	0.23
345.03	0.23
345.396	0.23
345.763	0.24
346.129	0.24
346.496	0.24
346.862	0.25
347.228	0.25
347.594	0.25
347.961	0.26
348.327	0.27
348.693	0.26
349.059	0.27
349.425	0.28
349.791	0.28
350.157	0.28
350.523	0.29
350.889	0.29
351.255	0.3
351.621	0.31
351.987	0.32
352.353	0.32
352.719	0.32
353.084	0.33
353.45	0.34
353.816	0.34
354.181	0.35
354.547	0.36
354.913	0.37
355.278	0.37
355.644	0.38
356.009	0.38
356.375	0.39
356.74	0.41
357.106	0.41
357.471	0.43
357.836	0.44
358.202	0.44
358.567	0.45
358.932	0.46
359.297	0.46
359.663	0.47
360.028	0.48
360.393	0.49
360.758	0.49
361.123	0.49
361.488	0.51
361.853	0.51
362.218	0.51
362.583	0.52
362.948	0.53
363.312	0.54
363.677	0.54
364.042	0.55
364.407	0.56
364.772	0.56
365.136	0.58
365.501	0.59
365.865	0.6
366.23	0.62
366.595	0.63
366.959	0.64
367.324	0.66
367.688	0.67
368.052	0.68
368.417	0.69
368.781	0.7
369.145	0.71
369.51	0.71
369.874	0.72
370.238	0.72
370.602	0.71
370.967	0.72
371.331	0.72
371.695	0.72
372.059	0.71
372.423	0.71
372.787	0.71
373.151	0.7
373.515	0.7
373.878	0.7
374.242	0.7
374.606	0.7
374.97	0.7
375.334	0.7
375.697	0.7
376.061	0.71
376.425	0.71
376.788	0.71
377.152	0.73
377.515	0.73
377.879	0.73
378.242	0.74
378.606	0.74
378.969	0.75
379.333	0.77
379.696	0.78
380.059	0.79
380.422	0.81
380.786	0.81
381.149	0.84
381.512	0.84
381.875	0.87
382.238	0.88
382.601	0.9
382.964	0.93
383.327	0.95
383.69	0.97
384.053	1.01
384.416	1.02
384.779	1.04
385.142	1.07
385.504	1.09
385.867	1.11
386.23	1.12
386.593	1.13
386.955	1.12
387.318	1.12
387.68	1.12
388.043	1.12
388.405	1.12
388.768	1.11
389.13	1.09
389.493	1.1
389.855	1.1
390.217	1.08
390.58	1.07
390.942	1.08
391.304	1.08
391.666	1.1
392.028	1.12
392.391	1.13
392.753	1.16
393.115	1.21
393.477	1.25
393.839	1.28
394.201	1.32
394.563	1.4
394.924	1.41
395.286	1.47
395.648	1.52
396.01	1.55
396.371	1.59
396.733	1.61
397.095	1.64
397.456	1.66
397.818	1.65
398.18	1.63
398.541	1.64
398.903	1.6
399.264	1.57
399.625	1.52
399.987	1.48
400.348	1.43
400.709	1.36
401.071	1.29
401.432	1.21
401.793	1.16
402.154	1.07
402.515	1
402.876	0.94
403.238	0.87
403.599	0.81
403.96	0.76
404.32	0.7
404.681	0.65
405.042	0.61
405.403	0.57
405.764	0.53
406.125	0.49
406.485	0.46
406.846	0.42
407.207	0.4
407.567	0.37
407.928	0.35
408.288	0.33
408.649	0.31
409.009	0.3
409.37	0.29
409.73	0.26
410.091	0.25
410.451	0.25
410.811	0.23
411.171	0.22
411.532	0.21
411.892	0.21
412.252	0.2
412.612	0.19
412.972	0.18
413.332	0.17
413.692	0.17
414.052	0.16
414.412	0.15
414.772	0.15
415.132	0.15
415.492	0.15
415.851	0.14
416.211	0.14
416.571	0.12
416.931	0.13
417.29	0.13
417.65	0.12
418.009	0.12
418.369	0.12
418.728	0.12
419.088	0.11
419.447	0.11
419.807	0.11
420.166	0.11
420.525	0.1
420.884	0.1
421.244	0.1
421.603	0.1
421.962	0.1
422.321	0.1
422.68	0.1
423.039	0.1
423.398	0.09
423.757	0.09
424.116	0.1
424.475	0.09
424.834	0.09
425.193	0.09
425.551	0.09
425.91	0.08
426.269	0.09
426.628	0.08
426.986	0.08
427.345	0.08
427.703	0.08
428.062	0.07
428.42	0.08
428.779	0.08
429.137	0.08
429.496	0.07
429.854	0.07
430.212	0.07
430.57	0.07
430.929	0.07
431.287	0.08
431.645	0.07
432.003	0.08
432.361	0.07
432.719	0.07
433.077	0.08
433.435	0.06
433.793	0.07
434.151	0.06
434.509	0.07
434.866	0.07
435.224	0.06
435.582	0.06
435.94	0.06
436.297	0.06
436.655	0.06
437.012	0.06
437.37	0.07
437.727	0.06
438.085	0.06
438.442	0.06
438.8	0.06
439.157	0.06
439.514	0.06
439.872	0.06
440.229	0.06
440.586	0.06
440.943	0.06
441.3	0.06
441.657	0.06
442.014	0.05
442.371	0.05
442.728	0.05
443.085	0.05
443.442	0.06
443.799	0.04
444.156	0.05
444.513	0.05
444.869	0.05
445.226	0.06
445.583	0.05
445.939	0.05
446.296	0.04
446.652	0.05
447.009	0.05
447.365	0.05
447.722	0.06
448.078	0.05
448.434	0.05
448.791	0.05
449.147	0.05
449.503	0.05
449.859	0.04
450.215	0.04
450.571	0.05
450.928	0.05
451.284	0.05
451.64	0.04
451.995	0.04
452.351	0.04
452.707	0.04
453.063	0.04
453.419	0.04
453.775	0.03
454.13	0.05
454.486	0.04
454.842	0.03
455.197	0.04
455.553	0.04
455.908	0.03
456.264	0.04
456.619	0.04
456.975	0.04
457.33	0.03
457.685	0.03
458.04	0.03
458.396	0.02
458.751	0.03
459.106	0.02
459.461	0.03
459.816	0.03
460.171	0.03
460.526	0.03
460.881	0.03
461.236	0.03
461.591	0.02
461.946	0.02
462.301	0.03
462.655	0.03
463.01	0.02
463.365	0.02
463.719	0.02
464.074	0.02
464.428	0.01
464.783	0.02
465.137	0.01
465.492	0.02
465.846	0.01
466.201	0.02
466.555	0.02
466.909	0.01
467.263	0.02
467.618	0.02
467.972	0.02
468.326	0.01
468.68	0.02
469.034	0.01
469.388	0.01
469.742	0.01
470.096	0.02
470.45	0.01
470.804	0.01
471.157	0.02
471.511	0.02
471.865	0.02
472.218	0.02
472.572	0.01
472.926	0.02
473.279	0.02
473.633	0.02
473.986	0.02
474.34	0.03
474.693	0.03
475.046	0.03
475.4	0.03
475.753	0.04
476.106	0.03
476.459	0.04
476.812	0.04
477.165	0.04
477.519	0.04
477.872	0.04
478.224	0.04
478.577	0.05
478.93	0.05
479.283	0.05
479.636	0.05
479.989	0.05
480.341	0.05
480.694	0.06
481.047	0.06
481.399	0.06
481.752	0.06
482.104	0.06
482.457	0.06
482.809	0.06
483.162	0.07
483.514	0.07
483.866	0.06
484.219	0.06
484.571	0.06
484.923	0.07
485.275	0.07
485.627	0.07
485.979	0.07
486.331	0.07
486.683	0.08
487.035	0.07
487.387	0.08
487.739	0.08
488.091	0.08
488.443	0.08
488.794	0.08
489.146	0.08
489.498	0.08
489.849	0.08
490.201	0.08
490.552	0.08
490.904	0.08
491.255	0.09
491.607	0.09
491.958	0.09
492.309	0.09
492.661	0.09
493.012	0.09
493.363	0.09
493.714	0.09
494.065	0.09
494.416	0.1
494.767	0.1
495.118	0.1
495.469	0.1
495.82	0.1
496.171	0.1
496.522	0.11
496.872	0.1
497.223	0.11
497.574	0.11
497.924	0.11
498.275	0.11
498.626	0.11
498.976	0.11
499.327	0.11
499.677	0.12
500.027	0.12
500.378	0.12
500.728	0.12
501.078	0.12
501.428	0.12
501.779	0.13
502.129	0.13
502.479	0.12
502.829	0.13
503.179	0.13
503.529	0.13
503.879	0.13
504.229	0.14
504.578	0.13
504.928	0.14
505.278	0.14
505.628	0.14
505.977	0.15
506.327	0.14
506.676	0.15
507.026	0.14
507.375	0.15
507.725	0.15
508.074	0.15
508.424	0.15
508.773	0.15
509.122	0.16
509.471	0.16
509.82	0.16
510.17	0.16
510.519	0.16
510.868	0.16
511.217	0.16
511.566	0.16
511.915	0.16
512.263	0.17
512.612	0.17
512.961	0.17
513.31	0.17
513.659	0.17
514.007	0.17
514.356	0.18
514.704	0.18
515.053	0.18
515.401	0.18
515.75	0.19
516.098	0.18
516.447	0.19
516.795	0.19
517.143	0.19
517.491	0.19
517.839	0.19
518.188	0.2
518.536	0.19
518.884	0.2
519.232	0.2
519.58	0.2
519.928	0.2
520.275	0.2
520.623	0.2
520.971	0.21
521.319	0.21
521.666	0.21
522.014	0.21
522.362	0.21
522.709	0.21
523.057	0.22
523.404	0.22
523.752	0.22
524.099	0.22
524.446	0.22
524.794	0.22
525.141	0.23
525.488	0.23
525.835	0.23
526.182	0.23
526.529	0.23
526.876	0.24
527.223	0.24
527.57	0.24
527.917	0.24
528.264	0.25
528.611	0.24
528.958	0.24
529.304	0.25
529.651	0.25
529.998	0.25
530.344	0.25
530.691	0.26
531.037	0.26
531.384	0.26
531.73	0.26
532.076	0.26
532.423	0.26
532.769	0.26
533.115	0.26
533.461	0.27
533.807	0.27
534.154	0.27
534.5	0.27
534.846	0.27
535.192	0.28
535.537	0.28
535.883	0.28
536.229	0.28
536.575	0.29
536.921	0.29
537.266	0.29
537.612	0.29
537.957	0.3
538.303	0.3
538.649	0.3
538.994	0.3
539.339	0.3
539.685	0.31
540.03	0.3
540.375	0.32
540.721	0.31
541.066	0.31
541.411	0.32
541.756	0.32
542.101	0.32
542.446	0.33
542.791	0.33
543.136	0.33
543.481	0.33
543.825	0.33
544.17	0.34
544.515	0.34
544.86	0.34
545.204	0.34
545.549	0.35
545.893	0.35
546.238	0.35
546.582	0.35
546.927	0.35
547.271	0.36
547.615	0.36
547.96	0.36
548.304	0.37
548.648	0.37
548.992	0.37
549.336	0.37
549.68	0.37
550.024	0.38
550.368	0.38
550.712	0.38
551.056	0.37
551.4	0.38
551.743	0.39
552.087	0.39
552.431	0.39
552.774	0.39
553.118	0.39
553.462	0.4
553.805	0.4
554.148	0.4
554.492	0.4
554.835	0.4
555.178	0.4
555.522	0.4
555.865	0.4
556.208	0.41
556.551	0.4
556.894	0.41
557.237	0.41
557.58	0.41
557.923	0.41
558.266	0.41
558.609	0.41
558.952	0.42
559.294	0.42
559.637	0.42
559.98	0.42
560.322	0.42
560.665	0.42
561.007	0.42
561.35	0.42
561.692	0.43
562.034	0.43
562.377	0.42
562.719	0.43
563.061	0.43
563.403	0.43
563.745	0.43
564.088	0.43
564.43	0.43
564.772	0.43
565.113	0.44
565.455	0.44
565.797	0.44
566.139	0.44
566.481	0.44
566.822	0.44
567.164	0.43
567.506	0.43
567.847	0.44
568.189	0.44
568.53	0.44
568.872	0.44
569.213	0.45
569.554	0.45
569.895	0.44
570.237	0.44
570.578	0.45
570.919	0.44
571.26	0.44
571.601	0.45
571.942	0.45
572.283	0.45
572.624	0.45
572.965	0.44
573.306	0.45
573.646	0.45
573.987	0.44
574.328	0.45
574.668	0.44
575.009	0.45
575.349	0.45
575.69	0.45
576.03	0.45
576.37	0.44
576.711	0.44
577.051	0.44
577.391	0.44
577.731	0.45
578.072	0.45
578.412	0.45
578.752	0.45
579.092	0.45
579.431	0.45
579.771	0.44
580.111	0.44
580.451	0.43
580.791	0.44
581.13	0.45
581.47	0.45
581.81	0.45
582.149	0.45
582.489	0.46
582.828	0.46
583.167	0.45
583.507	0.43
583.846	0.41
584.185	0.42
584.525	0.44
584.864	0.45
585.203	0.46
585.542	0.46
585.881	0.47
586.22	0.47
586.559	0.47
586.898	0.46
587.236	0.46
587.575	0.46
587.914	0.46
588.252	0.47
588.591	0.47
588.93	0.48
589.268	0.48
589.607	0.48
589.945	0.48
590.283	0.48
590.622	0.49
590.96	0.49
591.298	0.49
591.636	0.5
591.974	0.5
592.313	0.51
592.651	0.5
592.989	0.51
593.326	0.51
593.664	0.51
594.002	0.51
594.34	0.52
594.678	0.52
595.015	0.52
595.353	0.51
595.691	0.51
596.028	0.52
596.366	0.52
596.703	0.52
597.04	0.53
597.378	0.53
597.715	0.53
598.052	0.54
598.389	0.54
598.726	0.54
599.064	0.54
599.401	0.55
599.738	0.54
600.074	0.55
600.411	0.55
600.748	0.55
601.085	0.55
601.422	0.55
601.758	0.54
602.095	0.54
602.432	0.55
602.768	0.54
603.105	0.54
603.441	0.55
603.777	0.55
604.114	0.55
604.45	0.55
604.786	0.56
605.122	0.56
605.459	0.56
605.795	0.55
606.131	0.55
606.467	0.55
606.803	0.55
607.139	0.55
607.474	0.55
607.81	0.54
608.146	0.54
608.482	0.54
608.817	0.54
609.153	0.54
609.488	0.54
609.824	0.54
610.159	0.54
610.495	0.53
610.83	0.54
611.165	0.54
611.5	0.54
611.836	0.54
612.171	0.54
612.506	0.54
612.841	0.53
613.176	0.53
613.511	0.53
613.845	0.53
614.18	0.53
614.515	0.53
614.85	0.53
615.184	0.52
615.519	0.53
615.854	0.52
616.188	0.52
616.523	0.52
616.857	0.52
617.191	0.51
617.526	0.51
617.86	0.51
618.194	0.51
618.528	0.51
618.862	0.51
619.196	0.51
619.53	0.51
619.864	0.51
620.198	0.5
620.532	0.5
620.866	0.5
621.2	0.5
621.533	0.5
621.867	0.5
622.201	0.5
622.534	0.49
622.868	0.49
623.201	0.5
623.534	0.49
623.868	0.49
624.201	0.48
624.534	0.48
624.868	0.48
625.201	0.49
625.534	0.48
625.867	0.48
626.2	0.48
626.533	0.48
626.865	0.47
627.198	0.47
627.531	0.47
627.864	0.46
628.196	0.46
628.529	0.46
628.862	0.46
629.194	0.46
629.527	0.46
629.859	0.45
630.191	0.44
630.524	0.45
630.856	0.44
631.188	0.44
631.52	0.44
631.852	0.44
632.184	0.43
632.516	0.43
632.848	0.43
633.18	0.43
633.512	0.43
633.844	0.42
634.175	0.42
634.507	0.41
634.839	0.41
635.17	0.41
635.502	0.4
635.833	0.4
636.165	0.4
636.496	0.39
636.827	0.4
637.159	0.4
637.49	0.39
637.821	0.38
638.152	0.38
638.483	0.38
638.814	0.38
639.145	0.38
639.476	0.37
639.807	0.37
640.137	0.37
640.468	0.36
640.799	0.36
641.129	0.36
641.46	0.36
641.791	0.36
642.121	0.36
642.451	0.35
642.782	0.35
643.112	0.35
643.442	0.35
643.773	0.34
644.103	0.34
644.433	0.33
644.763	0.33
645.093	0.33
645.423	0.33
645.753	0.33
646.082	0.32
646.412	0.32
646.742	0.32
647.072	0.32
647.401	0.32
647.731	0.32
648.06	0.32
648.39	0.32
648.719	0.32
649.048	0.32
649.378	0.32
649.707	0.31
650.036	0.31
650.365	0.31
650.694	0.31
651.023	0.31
651.352	0.31
651.681	0.31
652.01	0.31
652.339	0.31
652.668	0.3
652.996	0.31
653.325	0.31
653.654	0.3
653.982	0.3
654.311	0.3
654.639	0.3
654.967	0.3
655.296	0.31
655.624	0.31
655.952	0.3
656.28	0.3
656.609	0.3
656.937	0.3
657.265	0.31
657.593	0.3
657.92	0.17
658.248	0.1
658.576	0.08
658.904	0.14
659.231	0.22
659.559	0.28
659.887	0.28
660.214	0.29
660.542	0.29
660.869	0.3
661.196	0.3
661.524	0.3
661.851	0.29
662.178	0.3
662.505	0.3
662.832	0.29
663.159	0.3
663.486	0.3
663.813	0.3
664.14	0.3
664.467	0.29
664.794	0.29
665.12	0.29
665.447	0.29
665.774	0.29
666.1	0.29
666.427	0.29
666.753	0.29
667.079	0.29
667.406	0.29
667.732	0.28
668.058	0.28
668.384	0.28
668.71	0.28
669.036	0.28
669.362	0.28
669.688	0.28
670.014	0.28
670.34	0.28
670.666	0.28
670.991	0.28
671.317	0.27
671.643	0.28
671.968	0.27
672.294	0.27
672.619	0.27
672.945	0.26
673.27	0.27
673.595	0.26
673.92	0.25
674.246	0.26
674.571	0.25
674.896	0.26
675.221	0.25
675.546	0.25
675.87	0.26
676.195	0.25
676.52	0.25
676.845	0.25
677.169	0.25
677.494	0.25
677.819	0.25
678.143	0.24
678.468	0.24
678.792	0.24
679.116	0.24
679.44	0.24
679.765	0.23
680.089	0.23
680.413	0.23
680.737	0.23
681.061	0.23
681.385	0.22
681.709	0.22
682.033	0.22
682.356	0.21
682.68	0.21
683.004	0.21
683.327	0.21
683.651	0.2
683.974	0.2
684.298	0.2
684.621	0.2
684.944	0.2
685.268	0.2
685.591	0.2
685.914	0.2
686.237	0.19
686.56	0.19
686.883	0.19
687.206	0.19
687.529	0.19
687.852	0.18
688.175	0.18
688.497	0.18
688.82	0.18
689.142	0.18
689.465	0.17
689.787	0.17
690.11	0.17
690.432	0.17
690.755	0.16
691.077	0.16
691.399	0.16
691.721	0.16
692.043	0.16
692.365	0.16
692.687	0.16
693.009	0.16
693.331	0.16
693.653	0.15
693.974	0.15
694.296	0.15
694.618	0.15
694.939	0.15
695.261	0.15
695.582	0.14
695.904	0.14
696.225	0.14
696.546	0.14
696.868	0.14
697.189	0.14
697.51	0.14
697.831	0.14
698.152	0.13
698.473	0.13
698.794	0.13
699.114	0.13
699.435	0.13
699.756	0.12
700.077	0.13
700.397	0.12
700.718	0.13
701.038	0.12
701.359	0.13
701.679	0.13
701.999	0.13
702.32	0.13
702.64	0.12
702.96	0.12
703.28	0.12
703.6	0.12
703.92	0.12
704.24	0.12
704.56	0.12
704.879	0.11
705.199	0.12
705.519	0.11
705.838	0.11
706.158	0.11
706.478	0.11
706.797	0.11
707.116	0.11
707.436	0.11
707.755	0.11
708.074	0.11
708.393	0.11
708.712	0.11
709.031	0.1
709.35	0.11
709.669	0.1
709.988	0.1
710.307	0.1
710.626	0.1
710.944	0.1
711.263	0.1
711.582	0.1
711.9	0.1
712.219	0.11
712.537	0.11
712.855	0.11
713.174	0.1
713.492	0.1
713.81	0.1
714.128	0.11
714.446	0.11
714.764	0.11
715.082	0.11
715.4	0.11
715.718	0.11
716.035	0.1
716.353	0.11
716.671	0.11
716.988	0.1
717.306	0.11
717.623	0.11
717.941	0.11
718.258	0.11
718.575	0.11
718.893	0.11
719.21	0.11
719.527	0.11
719.844	0.11
720.161	0.11
720.478	0.11
720.795	0.11
721.112	0.11
721.428	0.11
721.745	0.11
722.062	0.12
722.378	0.12
722.695	0.12
723.011	0.12
723.328	0.11
723.644	0.12
723.96	0.12
724.276	0.12
724.593	0.12
724.909	0.12
725.225	0.11
725.541	0.12
725.857	0.12
726.173	0.12
726.488	0.12
726.804	0.12
727.12	0.12
727.435	0.12
727.751	0.12
728.067	0.12
728.382	0.12
728.697	0.12
729.013	0.12
729.328	0.12
729.643	0.12
729.958	0.12
730.273	0.12
730.588	0.12
730.903	0.12
731.218	0.12
731.533	0.12
731.848	0.12
732.163	0.12
732.477	0.12
732.792	0.11
733.107	0.11
733.421	0.11
733.736	0.11
734.05	0.11
734.364	0.11
734.678	0.12
734.993	0.12
735.307	0.12
735.621	0.12
735.935	0.12
736.249	0.11
736.563	0.12
736.877	0.11
737.19	0.12
737.504	0.12
737.818	0.12
738.131	0.12
738.445	0.12
738.758	0.11
739.072	0.11
739.385	0.11
739.698	0.11
740.012	0.11
740.325	0.11
740.638	0.11
740.951	0.1
741.264	0.1
741.577	0.11
741.89	0.11
742.203	0.11
742.515	0.11
742.828	0.11
743.141	0.11
743.453	0.1
743.766	0.1
744.078	0.1
744.391	0.1
744.703	0.1
745.015	0.1
745.327	0.1
745.639	0.09
745.952	0.09
746.264	0.09
746.575	0.09
746.887	0.09
747.199	0.09
747.511	0.09
747.823	0.09
748.134	0.09
748.446	0.09
748.757	0.09
749.069	0.09
749.38	0.09
749.692	0.09
750.003	0.09
750.314	0.09
750.625	0.09
750.936	0.09
751.248	0.09
751.559	0.09
751.869	0.09
752.18	0.09
752.491	0.08
752.802	0.08
753.112	0.08
753.423	0.08
753.734	0.08
754.044	0.07
754.355	0.07
754.665	0.07
754.975	0.07
755.285	0.07
755.596	0.07
755.906	0.07
756.216	0.07
756.526	0.07
756.836	0.07
757.146	0.07
757.455	0.07
757.765	0.07
758.075	0.06
758.385	0.07
758.694	0.07
759.004	0.06
759.313	0.06
759.622	0.06
759.932	0.06
760.241	0.06
760.55	0.06
760.859	0.06
761.168	0.07
761.477	0.06
761.786	0.06
762.095	0.06
762.404	0.06
762.713	0.06
763.021	0.06
763.33	0.06
763.639	0.06
763.947	0.06
764.256	0.06
764.564	0.06
764.872	0.06
765.181	0.06
765.489	0.06
765.797	0.06
766.105	0.06
766.413	0.05
766.721	0.05
767.029	0.05
767.337	0.05
767.644	0.05
767.952	0.05
768.26	0.05
768.567	0.05
768.875	0.05
769.182	0.05
769.49	0.05
769.797	0.05
770.104	0.05
770.411	0.05
770.718	0.04
771.026	0.04
771.333	0.04
771.639	0.05
771.946	0.04
772.253	0.04
772.56	0.05
772.867	0.05
773.173	0.05
773.48	0.05
773.786	0.05
774.093	0.04
774.399	0.04
774.705	0.04
775.012	0.04
775.318	0.04
775.624	0.04
775.93	0.04
776.236	0.04
776.542	0.04
776.848	0.04
777.154	0.04
777.459	0.04
777.765	0.04
778.071	0.04
778.376	0.04
778.682	0.04
778.987	0.05
779.292	0.04
779.598	0.05
779.903	0.05
780.208	0.04
780.513	0.05
780.818	0.05
781.123	0.04
781.428	0.04
781.733	0.04
782.038	0.05
782.343	0.05
782.647	0.05
782.952	0.05
783.256	0.05
783.561	0.04
783.865	0.04
784.17	0.04
784.474	0.04
784.778	0.04
785.082	0.04
785.386	0.04
785.69	0.04
785.994	0.04
786.298	0.04
786.602	0.04
786.906	0.04
787.209	0.04
787.513	0.04
787.817	0.03
788.12	0.03
788.424	0.03
788.727	0.03
789.03	0.04
789.333	0.04
789.637	0.04
789.94	0.05
790.243	0.04
790.546	0.04
790.849	0.04
791.152	0.03
791.454	0.03
791.757	0.03
792.06	0.04
792.362	0.03
792.665	0.03
792.967	0.03
793.27	0.04
793.572	0.04
793.874	0.04
794.177	0.04
794.479	0.04
794.781	0.04
795.083	0.04
795.385	0.04
795.687	0.04
795.989	0.04
796.29	0.04
796.592	0.05
796.894	0.04
797.195	0.05
797.497	0.04
797.798	0.04
798.1	0.04
798.401	0.04
798.702	0.05
799.003	0.04
799.304	0.05
799.605	0.04
799.906	0.04
800.207	0.04
800.508	0.04
800.809	0.04
801.11	0.04
801.41	0.04
801.711	0.04
802.011	0.04
802.312	0.04
802.612	0.04
802.913	0.05
803.213	0.05
803.513	0.05
803.813	0.04
804.113	0.04
804.413	0.04
804.713	0.04
805.013	0.04
805.313	0.04
805.613	0.03
805.912	0.04
806.212	0.04
806.511	0.04
806.811	0.04
807.11	0.04
807.41	0.04
807.709	0.03
808.008	0.03
808.307	0.03
808.606	0.03
808.905	0.04
809.204	0.04
809.503	0.04
809.802	0.04
810.101	0.04
810.399	0.04
810.698	0.05
810.997	0.04
811.295	0.05
811.593	0.05
811.892	0.05
812.19	0.05
812.488	0.04
812.786	0.05
813.084	0.05
813.383	0.04
813.68	0.04
813.978	0.05
814.276	0.05
814.574	0.05
814.872	0.05
815.169	0.05
815.467	0.05
815.764	0.05
816.062	0.05
816.359	0.04
816.656	0.04
816.954	0.04
817.251	0.05
817.548	0.05
817.845	0.05
818.142	0.04
818.439	0.04
818.735	0.04
819.032	0.04
819.329	0.04
819.626	0.05
819.922	0.04
820.219	0.05
820.515	0.05
820.811	0.05
821.108	0.04
821.404	0.04
821.7	0.04
821.996	0.04
822.292	0.04
822.588	0.05
822.884	0.05
823.18	0.05
823.475	0.05
823.771	0.04
824.067	0.04
824.362	0.04
824.658	0.04
824.953	0.04
825.249	0.05
825.544	0.04
825.839	0.05
826.134	0.05
826.429	0.04
826.724	0.05
827.019	0.05
827.314	0.04
827.609	0.05
827.904	0.05
828.198	0.05
828.493	0.05
828.787	0.04
829.082	0.05
829.376	0.05
829.671	0.05
829.965	0.05
830.259	0.06
830.553	0.05
830.847	0.05
831.141	0.05
831.435	0.05
831.729	0.05
832.023	0.05
832.317	0.06
832.61	0.06
832.904	0.06
833.197	0.06
833.491	0.06
833.784	0.06
834.077	0.07
834.371	0.06
834.664	0.06
834.957	0.06
835.25	0.06
835.543	0.06
835.836	0.06
836.129	0.06
836.421	0.05
836.714	0.06
837.007	0.05
837.299	0.05
837.592	0.06
837.884	0.05
838.177	0.05
838.469	0.05
838.761	0.05
839.053	0.05
839.345	0.05
839.637	0.05
839.929	0.05
840.221	0.05
840.513	0.05
840.805	0.05
841.096	0.06
841.388	0.06
841.68	0.04
841.971	0.05
842.262	0.04
842.554	0.05
842.845	0.05
843.136	0.05
843.427	0.05
843.718	0.05
844.009	0.06
844.3	0.05
844.591	0.06
844.882	0.06
845.173	0.05
845.463	0.06
845.754	0.06
846.044	0.06
846.335	0.06
846.625	0.06
846.915	0.06
847.206	0.06
847.496	0.06
847.786	0.07
848.076	0.05
848.366	0.05
848.656	0.05
848.945	0.05
849.235	0.05
849.525	0.05
849.814	0.05
850.104	0.05
850.393	0.04
850.683	0.04
850.972	0.05
851.261	0.04
851.551	0.05
851.84	0.06
852.129	0.04
852.418	0.05
852.707	0.05
852.995	0.05
853.284	0.06
853.573	0.05
853.862	0.06
854.15	0.05
854.439	0.06
854.727	0.07
855.015	0.06
855.304	0.05
855.592	0.05
855.88	0.04
856.168	0.04
856.456	0.04
856.744	0.05
857.032	0.06
857.32	0.06
857.607	0.05
857.895	0.05
858.183	0.05
858.47	0.05
858.757	0.06
859.045	0.06
859.332	0.05
859.619	0.05
859.907	0.05
860.194	0.04
860.481	0.05
860.768	0.06
861.054	0.05
861.341	0.05
861.628	0.06
861.915	0.05
862.201	0.05
862.488	0.05
862.774	0.05
863.061	0.04
863.347	0.04
863.633	0.06
863.919	0.05
864.205	0.04
864.491	0.06
864.777	0.04
865.063	0.03
865.349	0.04
865.635	0.02
865.92	0.04
866.206	0.06
866.492	0.05
866.777	0.05
867.062	0.04
867.348	0.04
867.633	0.04
867.918	0.05
868.203	0.05
868.488	0.05
868.773	0.03
869.058	0.04
869.343	0.03
869.628	0.05
869.912	0.04
870.197	0.03
870.482	0.01
870.766	0.05
871.05	0.03
871.335	0.04
871.619	0.03
871.903	0.01
872.187	0.06
872.471	-0.02
872.755	0.06
873.039	0.05
873.323	0.05
873.607	0.03
873.89	0.05
874.174	0.05
874.458	0.05
874.741	0.03
875.024	0.01
875.308	0.02
875.591	0.02
875.874	0.01
876.157	0.02
876.44	0.04
876.723	0.11
877.006	0.06
877.289	0.04
877.572	0.03
877.854	0.05
878.137	0.07
878.42	0.02
878.702	-0.03
878.984	-0
879.267	0.02
879.549	0.04
879.831	0.02
880.113	0.03
880.395	-0.03
880.677	0.02
880.959	0.08
