Data from Rubpy_EV_600_EDTA_Buffered_Absorbance_12-55-44-178.txt Node
Date: Tue Jun 30 12:55:44 BST 2026
User: fpm-admin
Spectrometer: OFX00224
Trigger mode: 0
Integration Time (sec): 7.000000E-2
Scans to average: 3
Nonlinearity correction enabled: false
Boxcar width: 0
Storing dark spectrum: false
XAxis mode: Wavelengths
Number of Pixels in Spectrum: 2136
>>>>>Begin Spectral Data<<<<<
154.91	-0.99
155.289	0.73
155.669	0.16
156.048	-0.2
156.428	0.16
156.807	-0.66
157.186	-0.06
157.566	-0
157.945	0.93
158.325	0.7
158.704	-0
159.083	-0
159.462	-0.4
159.842	-0.45
160.221	0.51
160.6	-0.02
160.979	-0.32
161.359	0.37
161.738	0.01
162.117	-0
162.496	0.33
162.875	0.65
163.254	0.12
163.633	-0
164.012	-0.18
164.391	-0.33
164.77	1.04
165.149	-0
165.528	0.85
165.907	-0.38
166.286	-0
166.665	-0
167.044	-0
167.423	0.62
167.802	-0.17
168.181	0.45
168.559	-0.3
168.938	0.2
169.317	0.41
169.696	-0.26
170.074	0.58
170.453	0.6
170.832	0.22
171.21	-0
171.589	0.77
171.968	-0.63
172.346	-0
172.725	0.13
173.103	-0.43
173.482	-0
173.861	-0
174.239	0.39
174.617	-0.57
174.996	0.05
175.374	-0
175.753	-0
176.131	-0
176.51	0.78
176.888	0.55
177.266	-0
177.645	0
178.023	-0
178.401	-0.13
178.779	0.06
179.158	0.53
179.536	-0
179.914	0.07
180.292	-0
180.67	-0
181.048	-0
181.427	-1
181.805	0.78
182.183	-0.73
182.561	-0
182.939	-0
183.317	0.16
183.695	0.45
184.073	-0.1
184.451	-0
184.829	-0
185.206	-0.06
185.584	-0
185.962	-0.73
186.34	-0.23
186.718	-0.19
187.096	-0.02
187.473	0.16
187.851	0.12
188.229	-0.4
188.607	0.03
188.984	0.14
189.362	0.16
189.74	0.09
190.117	0.06
190.495	0.06
190.872	0.03
191.25	0.21
191.627	0.08
192.005	0.12
192.382	0.1
192.76	0.1
193.137	0.17
193.515	0.17
193.892	0.08
194.269	-0.01
194.647	0.11
195.024	0.03
195.401	0.07
195.779	0.19
196.156	0.09
196.533	0.07
196.91	0.1
197.288	0.2
197.665	0.05
198.042	0.02
198.419	0.05
198.796	0.17
199.173	0.13
199.55	0.06
199.927	0.03
200.304	0.09
200.681	0.02
201.058	0.02
201.435	0.01
201.812	0.09
202.189	0.15
202.566	0.11
202.943	0.08
203.32	0.1
203.697	0.05
204.073	0.02
204.45	0.08
204.827	0.14
205.204	0.09
205.58	0.1
205.957	0.13
206.334	0.09
206.71	0.05
207.087	0.08
207.464	0.07
207.84	0.13
208.217	0.02
208.593	0.21
208.97	0.11
209.346	-0.01
209.723	0.1
210.099	0.13
210.476	0.05
210.852	0.11
211.228	0.09
211.605	0.04
211.981	0.05
212.357	0.01
212.733	0.02
213.11	0.11
213.486	0.16
213.862	-0.05
214.238	0.15
214.614	0.04
214.991	0.04
215.367	0.17
215.743	0.03
216.119	0.15
216.495	-0.1
216.871	0.11
217.247	0.07
217.623	0.12
217.999	0.09
218.375	0.09
218.751	0.05
219.127	0.17
219.502	0.17
219.878	0.1
220.254	0.09
220.63	0.21
221.006	0.05
221.381	0.03
221.757	0.1
222.133	0.11
222.508	0.09
222.884	0.1
223.26	0.05
223.635	0.06
224.011	0.02
224.386	0.07
224.762	0.03
225.137	0.05
225.513	0.03
225.888	0.09
226.264	0.17
226.639	0.1
227.014	0.07
227.39	0.02
227.765	0.1
228.14	0.05
228.516	0.11
228.891	0.09
229.266	0.12
229.641	0.06
230.017	0.16
230.392	0.1
230.767	0.1
231.142	0.04
231.517	0.04
231.892	0.13
232.267	0.14
232.642	0.14
233.017	0.08
233.392	0.11
233.767	0.13
234.142	0.07
234.517	0.05
234.892	0.06
235.267	0.06
235.641	0.1
236.016	0.02
236.391	0.06
236.766	-0.03
237.14	0.05
237.515	0.07
237.89	0.17
238.264	0.02
238.639	0.08
239.014	0
239.388	0
239.763	0.05
240.137	0.01
240.512	0.13
240.886	0.07
241.261	0.15
241.635	0.12
242.009	0.1
242.384	0.04
242.758	0.06
243.132	0.1
243.507	0.08
243.881	0.09
244.255	0.05
244.629	0.08
245.004	0.12
245.378	0.03
245.752	0.14
246.126	0.05
246.5	0.17
246.874	0.13
247.248	0.01
247.622	0.02
247.996	0.1
248.37	0.1
248.744	0.04
249.118	0.12
249.492	0.1
249.866	0.1
250.24	0.01
250.613	0.03
250.987	0.08
251.361	0.11
251.735	0.11
252.108	0.08
252.482	0.06
252.856	-0.04
253.229	0.1
253.603	0.03
253.977	0.05
254.35	0.13
254.724	0.08
255.097	0.06
255.471	0.01
255.844	-0
256.218	0.08
256.591	0.12
256.964	0.04
257.338	0.09
257.711	0.16
258.084	0.07
258.458	0.11
258.831	0.1
259.204	0.1
259.577	0.12
259.95	0.14
260.323	0.05
260.697	0.09
261.07	0.1
261.443	0.09
261.816	0.12
262.189	0.12
262.562	0.15
262.935	0.14
263.308	0.06
263.68	0.1
264.053	0.05
264.426	0.12
264.799	0.05
265.172	0.17
265.545	0.08
265.917	0.13
266.29	0.14
266.663	0.06
267.035	0.1
267.408	0.15
267.781	0.09
268.153	0.07
268.526	0.13
268.898	0.18
269.271	0.06
269.643	0.1
270.016	0.11
270.388	0.1
270.76	0.08
271.133	0.08
271.505	0.03
271.877	0.05
272.25	-0
272.622	0.1
272.994	0.14
273.366	0.14
273.739	0.15
274.111	0.04
274.483	0.03
274.855	0.05
275.227	0.12
275.599	0.07
275.971	0.09
276.343	0.1
276.715	0.08
277.087	0.12
277.459	0.11
277.831	0.06
278.203	0.12
278.574	0.1
278.946	0.09
279.318	0.09
279.69	0.09
280.061	0.05
280.433	0.16
280.805	0.18
281.176	0.03
281.548	0.06
281.92	0.08
282.291	0.08
282.663	0.07
283.034	0.09
283.406	0.13
283.777	0.13
284.148	0.11
284.52	0.05
284.891	0.1
285.262	0.11
285.634	0.13
286.005	0.11
286.376	0.09
286.747	0.09
287.119	0.07
287.49	0.09
287.861	0.06
288.232	0.14
288.603	0.14
288.974	-0
289.345	0.09
289.716	0.05
290.087	0.03
290.458	0.03
290.829	0.13
291.2	0.04
291.571	0.09
291.941	0.09
292.312	0.1
292.683	0.08
293.054	0.08
293.424	0.06
293.795	0.06
294.166	0.08
294.536	0.07
294.907	0.09
295.277	0.07
295.648	0.04
296.018	0.06
296.389	0.09
296.759	0.07
297.13	0.08
297.5	0.1
297.871	0.06
298.241	0.04
298.611	0.06
298.981	0.11
299.352	0.07
299.722	0.03
300.092	0.07
300.462	0.09
300.832	0.05
301.202	0.06
301.573	0.05
301.943	0.06
302.313	0.03
302.683	0.04
303.053	0.05
303.422	0.05
303.792	0.04
304.162	0.06
304.532	0.05
304.902	0.04
305.272	0.05
305.641	0.06
306.011	0.06
306.381	0.05
306.75	0.05
307.12	0.06
307.49	0.06
307.859	0.06
308.229	0.06
308.598	0.05
308.968	0.05
309.337	0.06
309.707	0.06
310.076	0.06
310.445	0.07
310.815	0.07
311.184	0.07
311.553	0.06
311.923	0.06
312.292	0.06
312.661	0.07
313.03	0.07
313.399	0.07
313.768	0.07
314.137	0.06
314.506	0.07
314.875	0.07
315.244	0.07
315.613	0.06
315.982	0.07
316.351	0.06
316.72	0.06
317.089	0.07
317.458	0.07
317.826	0.07
318.195	0.06
318.564	0.07
318.933	0.06
319.301	0.06
319.67	0.06
320.038	0.06
320.407	0.06
320.775	0.06
321.144	0.06
321.512	0.06
321.881	0.06
322.249	0.06
322.618	0.06
322.986	0.06
323.354	0.06
323.723	0.06
324.091	0.05
324.459	0.05
324.827	0.06
325.195	0.06
325.564	0.06
325.932	0.06
326.3	0.05
326.668	0.05
327.036	0.05
327.404	0.05
327.772	0.05
328.14	0.06
328.508	0.06
328.875	0.05
329.243	0.05
329.611	0.05
329.979	0.06
330.346	0.05
330.714	0.06
331.082	0.05
331.449	0.06
331.817	0.06
332.185	0.05
332.552	0.05
332.92	0.05
333.287	0.06
333.655	0.05
334.022	0.05
334.389	0.06
334.757	0.06
335.124	0.06
335.491	0.06
335.859	0.06
336.226	0.06
336.593	0.06
336.96	0.07
337.327	0.06
337.695	0.07
338.062	0.06
338.429	0.07
338.796	0.07
339.163	0.07
339.53	0.06
339.897	0.07
340.263	0.07
340.63	0.07
340.997	0.07
341.364	0.07
341.731	0.07
342.097	0.07
342.464	0.08
342.831	0.08
343.197	0.08
343.564	0.08
343.931	0.08
344.297	0.08
344.664	0.08
345.03	0.08
345.396	0.09
345.763	0.09
346.129	0.09
346.496	0.09
346.862	0.09
347.228	0.09
347.594	0.09
347.961	0.1
348.327	0.1
348.693	0.1
349.059	0.1
349.425	0.1
349.791	0.1
350.157	0.1
350.523	0.11
350.889	0.11
351.255	0.12
351.621	0.11
351.987	0.12
352.353	0.12
352.719	0.12
353.084	0.12
353.45	0.13
353.816	0.12
354.181	0.13
354.547	0.13
354.913	0.14
355.278	0.14
355.644	0.14
356.009	0.14
356.375	0.15
356.74	0.15
357.106	0.15
357.471	0.16
357.836	0.16
358.202	0.16
358.567	0.17
358.932	0.17
359.297	0.17
359.663	0.18
360.028	0.18
360.393	0.18
360.758	0.18
361.123	0.19
361.488	0.19
361.853	0.19
362.218	0.19
362.583	0.19
362.948	0.2
363.312	0.2
363.677	0.2
364.042	0.21
364.407	0.22
364.772	0.22
365.136	0.22
365.501	0.23
365.865	0.22
366.23	0.24
366.595	0.24
366.959	0.24
367.324	0.25
367.688	0.26
368.052	0.26
368.417	0.27
368.781	0.27
369.145	0.27
369.51	0.27
369.874	0.28
370.238	0.28
370.602	0.27
370.967	0.28
371.331	0.28
371.695	0.27
372.059	0.27
372.423	0.27
372.787	0.27
373.151	0.27
373.515	0.27
373.878	0.27
374.242	0.27
374.606	0.27
374.97	0.27
375.334	0.27
375.697	0.27
376.061	0.28
376.425	0.28
376.788	0.28
377.152	0.28
377.515	0.28
377.879	0.29
378.242	0.29
378.606	0.3
378.969	0.29
379.333	0.3
379.696	0.31
380.059	0.31
380.422	0.32
380.786	0.32
381.149	0.33
381.512	0.33
381.875	0.35
382.238	0.35
382.601	0.36
382.964	0.37
383.327	0.38
383.69	0.39
384.053	0.4
384.416	0.41
384.779	0.42
385.142	0.43
385.504	0.44
385.867	0.44
386.23	0.45
386.593	0.46
386.955	0.45
387.318	0.46
387.68	0.45
388.043	0.45
388.405	0.45
388.768	0.44
389.13	0.44
389.493	0.44
389.855	0.44
390.217	0.44
390.58	0.43
390.942	0.44
391.304	0.43
391.666	0.44
392.028	0.45
392.391	0.46
392.753	0.47
393.115	0.49
393.477	0.51
393.839	0.53
394.201	0.54
394.563	0.57
394.924	0.59
395.286	0.62
395.648	0.64
396.01	0.66
396.371	0.68
396.733	0.69
397.095	0.7
397.456	0.71
397.818	0.71
398.18	0.71
398.541	0.7
398.903	0.68
399.264	0.66
399.625	0.64
399.987	0.62
400.348	0.59
400.709	0.56
401.071	0.53
401.432	0.5
401.793	0.47
402.154	0.44
402.515	0.41
402.876	0.38
403.238	0.35
403.599	0.33
403.96	0.3
404.32	0.28
404.681	0.26
405.042	0.25
405.403	0.23
405.764	0.21
406.125	0.19
406.485	0.18
406.846	0.17
407.207	0.16
407.567	0.15
407.928	0.14
408.288	0.14
408.649	0.12
409.009	0.12
409.37	0.12
409.73	0.11
410.091	0.1
410.451	0.1
410.811	0.1
411.171	0.09
411.532	0.08
411.892	0.09
412.252	0.08
412.612	0.08
412.972	0.08
413.332	0.07
413.692	0.07
414.052	0.07
414.412	0.06
414.772	0.07
415.132	0.06
415.492	0.06
415.851	0.06
416.211	0.06
416.571	0.05
416.931	0.05
417.29	0.06
417.65	0.05
418.009	0.05
418.369	0.04
418.728	0.05
419.088	0.05
419.447	0.04
419.807	0.04
420.166	0.04
420.525	0.04
420.884	0.05
421.244	0.04
421.603	0.04
421.962	0.05
422.321	0.05
422.68	0.04
423.039	0.04
423.398	0.04
423.757	0.05
424.116	0.04
424.475	0.04
424.834	0.04
425.193	0.04
425.551	0.04
425.91	0.03
426.269	0.04
426.628	0.04
426.986	0.04
427.345	0.03
427.703	0.04
428.062	0.03
428.42	0.03
428.779	0.03
429.137	0.03
429.496	0.03
429.854	0.03
430.212	0.03
430.57	0.04
430.929	0.03
431.287	0.03
431.645	0.02
432.003	0.03
432.361	0.03
432.719	0.03
433.077	0.03
433.435	0.03
433.793	0.03
434.151	0.03
434.509	0.03
434.866	0.03
435.224	0.03
435.582	0.03
435.94	0.03
436.297	0.03
436.655	0.03
437.012	0.03
437.37	0.03
437.727	0.03
438.085	0.03
438.442	0.03
438.8	0.02
439.157	0.03
439.514	0.02
439.872	0.03
440.229	0.03
440.586	0.02
440.943	0.02
441.3	0.03
441.657	0.02
442.014	0.02
442.371	0.02
442.728	0.02
443.085	0.02
443.442	0.02
443.799	0.02
444.156	0.02
444.513	0.02
444.869	0.03
445.226	0.03
445.583	0.02
445.939	0.02
446.296	0.02
446.652	0.03
447.009	0.02
447.365	0.02
447.722	0.03
448.078	0.02
448.434	0.02
448.791	0.02
449.147	0.02
449.503	0.02
449.859	0.02
450.215	0.02
450.571	0.02
450.928	0.02
451.284	0.02
451.64	0.02
451.995	0.01
452.351	0
452.707	0.01
453.063	0.01
453.419	0.01
453.775	0.01
454.13	0.02
454.486	0.02
454.842	0.01
455.197	0.01
455.553	0.02
455.908	0.01
456.264	0.01
456.619	0.01
456.975	0.01
457.33	0.01
457.685	-0
458.04	0.01
458.396	0
458.751	0
459.106	-0
459.461	0
459.816	0.01
460.171	0
460.526	0.01
460.881	0.01
461.236	-0
461.591	-0
461.946	0
462.301	0
462.655	0
463.01	-0.01
463.365	-0.01
463.719	-0.01
464.074	0
464.428	-0.01
464.783	-0.01
465.137	-0.02
465.492	-0.01
465.846	-0.01
466.201	-0.01
466.555	-0.01
466.909	-0.02
467.263	-0.01
467.618	-0.01
467.972	-0.01
468.326	-0.01
468.68	-0.01
469.034	-0.01
469.388	-0.01
469.742	-0.02
470.096	-0.01
470.45	-0.01
470.804	-0.01
471.157	-0.01
471.511	-0.01
471.865	-0
472.218	-0.01
472.572	-0.01
472.926	-0.01
473.279	-0.01
473.633	-0.01
473.986	-0.01
474.34	-0.01
474.693	-0.01
475.046	-0
475.4	-0
475.753	-0
476.106	0
476.459	0
476.812	0.01
477.165	0.01
477.519	0.01
477.872	0
478.224	0.01
478.577	0.01
478.93	0.01
479.283	0.02
479.636	0.01
479.989	0.01
480.341	0.01
480.694	0.01
481.047	0.01
481.399	0.01
481.752	0.02
482.104	0.02
482.457	0.02
482.809	0.02
483.162	0.02
483.514	0.02
483.866	0.02
484.219	0.02
484.571	0.02
484.923	0.02
485.275	0.02
485.627	0.02
485.979	0.02
486.331	0.02
486.683	0.03
487.035	0.02
487.387	0.03
487.739	0.03
488.091	0.03
488.443	0.03
488.794	0.03
489.146	0.03
489.498	0.03
489.849	0.03
490.201	0.03
490.552	0.03
490.904	0.03
491.255	0.03
491.607	0.03
491.958	0.03
492.309	0.03
492.661	0.03
493.012	0.03
493.363	0.03
493.714	0.03
494.065	0.03
494.416	0.04
494.767	0.04
495.118	0.04
495.469	0.04
495.82	0.04
496.171	0.04
496.522	0.04
496.872	0.04
497.223	0.04
497.574	0.04
497.924	0.04
498.275	0.04
498.626	0.05
498.976	0.04
499.327	0.04
499.677	0.05
500.027	0.04
500.378	0.05
500.728	0.05
501.078	0.05
501.428	0.04
501.779	0.05
502.129	0.05
502.479	0.05
502.829	0.05
503.179	0.05
503.529	0.05
503.879	0.05
504.229	0.05
504.578	0.05
504.928	0.05
505.278	0.05
505.628	0.06
505.977	0.06
506.327	0.05
506.676	0.06
507.026	0.06
507.375	0.06
507.725	0.06
508.074	0.06
508.424	0.06
508.773	0.06
509.122	0.06
509.471	0.06
509.82	0.06
510.17	0.07
510.519	0.06
510.868	0.06
511.217	0.06
511.566	0.07
511.915	0.07
512.263	0.07
512.612	0.07
512.961	0.07
513.31	0.07
513.659	0.07
514.007	0.07
514.356	0.07
514.704	0.07
515.053	0.07
515.401	0.07
515.75	0.08
516.098	0.08
516.447	0.07
516.795	0.07
517.143	0.08
517.491	0.08
517.839	0.08
518.188	0.08
518.536	0.07
518.884	0.08
519.232	0.08
519.58	0.08
519.928	0.08
520.275	0.08
520.623	0.08
520.971	0.08
521.319	0.09
521.666	0.08
522.014	0.08
522.362	0.09
522.709	0.09
523.057	0.09
523.404	0.08
523.752	0.08
524.099	0.09
524.446	0.09
524.794	0.09
525.141	0.09
525.488	0.09
525.835	0.09
526.182	0.09
526.529	0.09
526.876	0.09
527.223	0.1
527.57	0.1
527.917	0.1
528.264	0.1
528.611	0.1
528.958	0.1
529.304	0.1
529.651	0.1
529.998	0.1
530.344	0.1
530.691	0.11
531.037	0.11
531.384	0.11
531.73	0.1
532.076	0.11
532.423	0.11
532.769	0.11
533.115	0.11
533.461	0.11
533.807	0.11
534.154	0.11
534.5	0.11
534.846	0.11
535.192	0.11
535.537	0.11
535.883	0.11
536.229	0.12
536.575	0.11
536.921	0.12
537.266	0.12
537.612	0.12
537.957	0.12
538.303	0.12
538.649	0.12
538.994	0.13
539.339	0.12
539.685	0.12
540.03	0.12
540.375	0.13
540.721	0.13
541.066	0.13
541.411	0.13
541.756	0.13
542.101	0.13
542.446	0.14
542.791	0.14
543.136	0.14
543.481	0.14
543.825	0.13
544.17	0.14
544.515	0.13
544.86	0.14
545.204	0.13
545.549	0.14
545.893	0.14
546.238	0.14
546.582	0.14
546.927	0.14
547.271	0.15
547.615	0.14
547.96	0.15
548.304	0.15
548.648	0.15
548.992	0.15
549.336	0.15
549.68	0.15
550.024	0.16
550.368	0.15
550.712	0.15
551.056	0.15
551.4	0.16
551.743	0.16
552.087	0.15
552.431	0.16
552.774	0.16
553.118	0.16
553.462	0.16
553.805	0.16
554.148	0.16
554.492	0.16
554.835	0.16
555.178	0.16
555.522	0.17
555.865	0.16
556.208	0.17
556.551	0.16
556.894	0.17
557.237	0.17
557.58	0.17
557.923	0.17
558.266	0.17
558.609	0.17
558.952	0.17
559.294	0.17
559.637	0.17
559.98	0.17
560.322	0.17
560.665	0.17
561.007	0.17
561.35	0.17
561.692	0.17
562.034	0.17
562.377	0.17
562.719	0.17
563.061	0.17
563.403	0.17
563.745	0.17
564.088	0.17
564.43	0.18
564.772	0.18
565.113	0.18
565.455	0.18
565.797	0.18
566.139	0.18
566.481	0.18
566.822	0.18
567.164	0.18
567.506	0.18
567.847	0.18
568.189	0.18
568.53	0.18
568.872	0.18
569.213	0.18
569.554	0.18
569.895	0.18
570.237	0.18
570.578	0.18
570.919	0.18
571.26	0.18
571.601	0.18
571.942	0.18
572.283	0.18
572.624	0.18
572.965	0.17
573.306	0.18
573.646	0.18
573.987	0.18
574.328	0.18
574.668	0.18
575.009	0.18
575.349	0.18
575.69	0.18
576.03	0.18
576.37	0.18
576.711	0.17
577.051	0.18
577.391	0.18
577.731	0.18
578.072	0.18
578.412	0.18
578.752	0.18
579.092	0.18
579.431	0.17
579.771	0.17
580.111	0.16
580.451	0.17
580.791	0.17
581.13	0.18
581.47	0.18
581.81	0.18
582.149	0.18
582.489	0.18
582.828	0.18
583.167	0.17
583.507	0.16
583.846	0.14
584.185	0.15
584.525	0.17
584.864	0.18
585.203	0.18
585.542	0.18
585.881	0.19
586.22	0.19
586.559	0.19
586.898	0.18
587.236	0.18
587.575	0.18
587.914	0.18
588.252	0.18
588.591	0.19
588.93	0.19
589.268	0.18
589.607	0.19
589.945	0.19
590.283	0.19
590.622	0.19
590.96	0.19
591.298	0.2
591.636	0.2
591.974	0.2
592.313	0.2
592.651	0.2
592.989	0.2
593.326	0.2
593.664	0.2
594.002	0.2
594.34	0.21
594.678	0.2
595.015	0.2
595.353	0.2
595.691	0.2
596.028	0.21
596.366	0.21
596.703	0.21
597.04	0.21
597.378	0.21
597.715	0.21
598.052	0.22
598.389	0.22
598.726	0.22
599.064	0.22
599.401	0.22
599.738	0.22
600.074	0.22
600.411	0.22
600.748	0.22
601.085	0.22
601.422	0.21
601.758	0.21
602.095	0.21
602.432	0.22
602.768	0.21
603.105	0.22
603.441	0.22
603.777	0.22
604.114	0.22
604.45	0.22
604.786	0.22
605.122	0.22
605.459	0.22
605.795	0.22
606.131	0.22
606.467	0.22
606.803	0.22
607.139	0.22
607.474	0.22
607.81	0.21
608.146	0.22
608.482	0.21
608.817	0.21
609.153	0.22
609.488	0.21
609.824	0.21
610.159	0.21
610.495	0.21
610.83	0.22
611.165	0.21
611.5	0.21
611.836	0.22
612.171	0.22
612.506	0.21
612.841	0.21
613.176	0.21
613.511	0.21
613.845	0.21
614.18	0.21
614.515	0.21
614.85	0.21
615.184	0.21
615.519	0.21
615.854	0.21
616.188	0.21
616.523	0.21
616.857	0.2
617.191	0.2
617.526	0.21
617.86	0.21
618.194	0.2
618.528	0.2
618.862	0.21
619.196	0.21
619.53	0.21
619.864	0.21
620.198	0.2
620.532	0.2
620.866	0.21
621.2	0.21
621.533	0.2
621.867	0.21
622.201	0.21
622.534	0.2
622.868	0.2
623.201	0.2
623.534	0.2
623.868	0.2
624.201	0.2
624.534	0.2
624.868	0.2
625.201	0.19
625.534	0.2
625.867	0.19
626.2	0.2
626.533	0.2
626.865	0.2
627.198	0.19
627.531	0.19
627.864	0.19
628.196	0.19
628.529	0.19
628.862	0.19
629.194	0.19
629.527	0.19
629.859	0.19
630.191	0.18
630.524	0.18
630.856	0.18
631.188	0.18
631.52	0.18
631.852	0.18
632.184	0.18
632.516	0.18
632.848	0.18
633.18	0.18
633.512	0.18
633.844	0.17
634.175	0.17
634.507	0.17
634.839	0.17
635.17	0.16
635.502	0.16
635.833	0.16
636.165	0.16
636.496	0.16
636.827	0.17
637.159	0.16
637.49	0.17
637.821	0.16
638.152	0.16
638.483	0.16
638.814	0.16
639.145	0.16
639.476	0.16
639.807	0.16
640.137	0.15
640.468	0.15
640.799	0.15
641.129	0.16
641.46	0.15
641.791	0.15
642.121	0.15
642.451	0.15
642.782	0.14
643.112	0.14
643.442	0.14
643.773	0.15
644.103	0.14
644.433	0.14
644.763	0.14
645.093	0.14
645.423	0.14
645.753	0.14
646.082	0.14
646.412	0.13
646.742	0.14
647.072	0.13
647.401	0.13
647.731	0.13
648.06	0.13
648.39	0.13
648.719	0.13
649.048	0.13
649.378	0.13
649.707	0.13
650.036	0.13
650.365	0.13
650.694	0.13
651.023	0.13
651.352	0.13
651.681	0.13
652.01	0.13
652.339	0.13
652.668	0.13
652.996	0.13
653.325	0.13
653.654	0.13
653.982	0.13
654.311	0.13
654.639	0.13
654.967	0.13
655.296	0.13
655.624	0.13
655.952	0.12
656.28	0.13
656.609	0.12
656.937	0.13
657.265	0.12
657.593	0.11
657.92	0.01
658.248	-0
658.576	0
658.904	0.01
659.231	0.07
659.559	0.11
659.887	0.12
660.214	0.12
660.542	0.12
660.869	0.12
661.196	0.12
661.524	0.13
661.851	0.12
662.178	0.13
662.505	0.12
662.832	0.12
663.159	0.13
663.486	0.12
663.813	0.12
664.14	0.13
664.467	0.13
664.794	0.12
665.12	0.13
665.447	0.12
665.774	0.12
666.1	0.13
666.427	0.13
666.753	0.12
667.079	0.12
667.406	0.12
667.732	0.12
668.058	0.12
668.384	0.12
668.71	0.12
669.036	0.12
669.362	0.12
669.688	0.12
670.014	0.12
670.34	0.12
670.666	0.12
670.991	0.12
671.317	0.12
671.643	0.12
671.968	0.12
672.294	0.12
672.619	0.11
672.945	0.11
673.27	0.11
673.595	0.11
673.92	0.1
674.246	0.11
674.571	0.11
674.896	0.11
675.221	0.11
675.546	0.11
675.87	0.11
676.195	0.11
676.52	0.11
676.845	0.11
677.169	0.11
677.494	0.11
677.819	0.11
678.143	0.11
678.468	0.11
678.792	0.11
679.116	0.11
679.44	0.11
679.765	0.1
680.089	0.1
680.413	0.1
680.737	0.1
681.061	0.1
681.385	0.1
681.709	0.09
682.033	0.09
682.356	0.09
682.68	0.09
683.004	0.09
683.327	0.09
683.651	0.09
683.974	0.08
684.298	0.09
684.621	0.09
684.944	0.09
685.268	0.09
685.591	0.08
685.914	0.08
686.237	0.08
686.56	0.08
686.883	0.08
687.206	0.08
687.529	0.08
687.852	0.08
688.175	0.08
688.497	0.08
688.82	0.08
689.142	0.08
689.465	0.08
689.787	0.08
690.11	0.08
690.432	0.07
690.755	0.07
691.077	0.07
691.399	0.07
691.721	0.07
692.043	0.07
692.365	0.07
692.687	0.07
693.009	0.07
693.331	0.07
693.653	0.07
693.974	0.07
694.296	0.07
694.618	0.07
694.939	0.06
695.261	0.07
695.582	0.06
695.904	0.06
696.225	0.06
696.546	0.06
696.868	0.06
697.189	0.06
697.51	0.06
697.831	0.06
698.152	0.06
698.473	0.06
698.794	0.06
699.114	0.06
699.435	0.05
699.756	0.05
700.077	0.06
700.397	0.06
700.718	0.06
701.038	0.06
701.359	0.06
701.679	0.06
701.999	0.06
702.32	0.06
702.64	0.06
702.96	0.06
703.28	0.05
703.6	0.05
703.92	0.05
704.24	0.05
704.56	0.05
704.879	0.05
705.199	0.05
705.519	0.05
705.838	0.05
706.158	0.05
706.478	0.05
706.797	0.05
707.116	0.05
707.436	0.05
707.755	0.05
708.074	0.05
708.393	0.05
708.712	0.05
709.031	0.05
709.35	0.05
709.669	0.05
709.988	0.05
710.307	0.05
710.626	0.05
710.944	0.05
711.263	0.05
711.582	0.05
711.9	0.05
712.219	0.05
712.537	0.05
712.855	0.05
713.174	0.05
713.492	0.05
713.81	0.05
714.128	0.05
714.446	0.05
714.764	0.05
715.082	0.05
715.4	0.05
715.718	0.05
716.035	0.05
716.353	0.05
716.671	0.05
716.988	0.05
717.306	0.05
717.623	0.05
717.941	0.05
718.258	0.05
718.575	0.06
718.893	0.05
719.21	0.05
719.527	0.05
719.844	0.05
720.161	0.06
720.478	0.06
720.795	0.06
721.112	0.06
721.428	0.06
721.745	0.05
722.062	0.06
722.378	0.05
722.695	0.06
723.011	0.06
723.328	0.05
723.644	0.06
723.96	0.06
724.276	0.06
724.593	0.06
724.909	0.06
725.225	0.06
725.541	0.06
725.857	0.06
726.173	0.06
726.488	0.06
726.804	0.06
727.12	0.06
727.435	0.06
727.751	0.06
728.067	0.06
728.382	0.05
728.697	0.06
729.013	0.06
729.328	0.06
729.643	0.06
729.958	0.06
730.273	0.06
730.588	0.06
730.903	0.06
731.218	0.06
731.533	0.06
731.848	0.06
732.163	0.05
732.477	0.05
732.792	0.05
733.107	0.05
733.421	0.05
733.736	0.05
734.05	0.05
734.364	0.05
734.678	0.05
734.993	0.05
735.307	0.05
735.621	0.05
735.935	0.05
736.249	0.05
736.563	0.05
736.877	0.05
737.19	0.06
737.504	0.06
737.818	0.05
738.131	0.05
738.445	0.05
738.758	0.05
739.072	0.05
739.385	0.05
739.698	0.05
740.012	0.05
740.325	0.05
740.638	0.05
740.951	0.04
741.264	0.04
741.577	0.05
741.89	0.05
742.203	0.05
742.515	0.05
742.828	0.05
743.141	0.05
743.453	0.05
743.766	0.05
744.078	0.05
744.391	0.04
744.703	0.05
745.015	0.05
745.327	0.04
745.639	0.04
745.952	0.04
746.264	0.04
746.575	0.04
746.887	0.04
747.199	0.05
747.511	0.04
747.823	0.04
748.134	0.04
748.446	0.04
748.757	0.04
749.069	0.04
749.38	0.05
749.692	0.05
750.003	0.04
750.314	0.04
750.625	0.05
750.936	0.05
751.248	0.05
751.559	0.05
751.869	0.05
752.18	0.05
752.491	0.05
752.802	0.05
753.112	0.04
753.423	0.04
753.734	0.04
754.044	0.04
754.355	0.04
754.665	0.03
754.975	0.03
755.285	0.04
755.596	0.04
755.906	0.03
756.216	0.03
756.526	0.03
756.836	0.04
757.146	0.03
757.455	0.03
757.765	0.03
758.075	0.03
758.385	0.03
758.694	0.03
759.004	0.03
759.313	0.03
759.622	0.03
759.932	0.03
760.241	0.03
760.55	0.03
760.859	0.03
761.168	0.04
761.477	0.04
761.786	0.03
762.095	0.03
762.404	0.03
762.713	0.03
763.021	0.03
763.33	0.03
763.639	0.03
763.947	0.03
764.256	0.03
764.564	0.03
764.872	0.03
765.181	0.03
765.489	0.03
765.797	0.03
766.105	0.03
766.413	0.03
766.721	0.03
767.029	0.03
767.337	0.03
767.644	0.03
767.952	0.03
768.26	0.03
768.567	0.03
768.875	0.03
769.182	0.03
769.49	0.03
769.797	0.03
770.104	0.03
770.411	0.03
770.718	0.03
771.026	0.03
771.333	0.02
771.639	0.02
771.946	0.02
772.253	0.02
772.56	0.02
772.867	0.02
773.173	0.03
773.48	0.03
773.786	0.03
774.093	0.02
774.399	0.02
774.705	0.02
775.012	0.02
775.318	0.02
775.624	0.02
775.93	0.02
776.236	0.02
776.542	0.02
776.848	0.03
777.154	0.02
777.459	0.02
777.765	0.02
778.071	0.02
778.376	0.03
778.682	0.03
778.987	0.03
779.292	0.03
779.598	0.03
779.903	0.03
780.208	0.03
780.513	0.03
780.818	0.03
781.123	0.03
781.428	0.03
781.733	0.03
782.038	0.03
782.343	0.03
782.647	0.04
782.952	0.04
783.256	0.03
783.561	0.04
783.865	0.03
784.17	0.03
784.474	0.03
784.778	0.03
785.082	0.03
785.386	0.03
785.69	0.03
785.994	0.04
786.298	0.03
786.602	0.03
786.906	0.03
787.209	0.03
787.513	0.03
787.817	0.03
788.12	0.02
788.424	0.03
788.727	0.03
789.03	0.03
789.333	0.03
789.637	0.03
789.94	0.04
790.243	0.03
790.546	0.03
790.849	0.02
791.152	0.02
791.454	0.02
791.757	0.02
792.06	0.02
792.362	0.02
792.665	0.02
792.967	0.03
793.27	0.02
793.572	0.03
793.874	0.03
794.177	0.02
794.479	0.03
794.781	0.03
795.083	0.03
795.385	0.03
795.687	0.02
795.989	0.03
796.29	0.03
796.592	0.03
796.894	0.03
797.195	0.03
797.497	0.03
797.798	0.03
798.1	0.03
798.401	0.04
798.702	0.04
799.003	0.03
799.304	0.03
799.605	0.03
799.906	0.03
800.207	0.03
800.508	0.02
800.809	0.03
801.11	0.03
801.41	0.03
801.711	0.04
802.011	0.03
802.312	0.03
802.612	0.03
802.913	0.04
803.213	0.03
803.513	0.03
803.813	0.04
804.113	0.03
804.413	0.04
804.713	0.03
805.013	0.03
805.313	0.03
805.613	0.03
805.912	0.03
806.212	0.03
806.511	0.02
806.811	0.03
807.11	0.02
807.41	0.02
807.709	0.02
808.008	0.02
808.307	0.02
808.606	0.02
808.905	0.03
809.204	0.03
809.503	0.03
809.802	0.04
810.101	0.03
810.399	0.04
810.698	0.04
810.997	0.04
811.295	0.04
811.593	0.04
811.892	0.04
812.19	0.04
812.488	0.03
812.786	0.04
813.084	0.03
813.383	0.03
813.68	0.04
813.978	0.04
814.276	0.04
814.574	0.04
814.872	0.04
815.169	0.04
815.467	0.04
815.764	0.04
816.062	0.04
816.359	0.04
816.656	0.04
816.954	0.04
817.251	0.04
817.548	0.04
817.845	0.05
818.142	0.04
818.439	0.04
818.735	0.04
819.032	0.04
819.329	0.04
819.626	0.04
819.922	0.05
820.219	0.04
820.515	0.04
820.811	0.04
821.108	0.04
821.404	0.04
821.7	0.04
821.996	0.04
822.292	0.03
822.588	0.04
822.884	0.03
823.18	0.03
823.475	0.03
823.771	0.03
824.067	0.03
824.362	0.03
824.658	0.03
824.953	0.03
825.249	0.03
825.544	0.04
825.839	0.04
826.134	0.04
826.429	0.04
826.724	0.04
827.019	0.04
827.314	0.04
827.609	0.04
827.904	0.03
828.198	0.03
828.493	0.03
828.787	0.03
829.082	0.04
829.376	0.03
829.671	0.03
829.965	0.03
830.259	0.04
830.553	0.04
830.847	0.04
831.141	0.04
831.435	0.04
831.729	0.04
832.023	0.04
832.317	0.05
832.61	0.04
832.904	0.04
833.197	0.04
833.491	0.04
833.784	0.04
834.077	0.04
834.371	0.04
834.664	0.05
834.957	0.04
835.25	0.04
835.543	0.05
835.836	0.04
836.129	0.04
836.421	0.04
836.714	0.04
837.007	0.04
837.299	0.03
837.592	0.05
837.884	0.04
838.177	0.03
838.469	0.03
838.761	0.04
839.053	0.03
839.345	0.03
839.637	0.03
839.929	0.03
840.221	0.03
840.513	0.03
840.805	0.03
841.096	0.04
841.388	0.03
841.68	0.03
841.971	0.04
842.262	0.03
842.554	0.04
842.845	0.04
843.136	0.03
843.427	0.04
843.718	0.04
844.009	0.04
844.3	0.04
844.591	0.05
844.882	0.04
845.173	0.03
845.463	0.04
845.754	0.05
846.044	0.05
846.335	0.05
846.625	0.05
846.915	0.05
847.206	0.04
847.496	0.04
847.786	0.04
848.076	0.04
848.366	0.04
848.656	0.04
848.945	0.05
849.235	0.04
849.525	0.04
849.814	0.05
850.104	0.05
850.393	0.03
850.683	0.04
850.972	0.05
851.261	0.04
851.551	0.04
851.84	0.05
852.129	0.04
852.418	0.04
852.707	0.05
852.995	0.04
853.284	0.05
853.573	0.04
853.862	0.05
854.15	0.05
854.439	0.05
854.727	0.05
855.015	0.05
855.304	0.05
855.592	0.04
855.88	0.02
856.168	0.03
856.456	0.03
856.744	0.03
857.032	0.03
857.32	0.04
857.607	0.05
857.895	0.03
858.183	0.06
858.47	0.04
858.757	0.04
859.045	0.05
859.332	0.04
859.619	0.02
859.907	0.03
860.194	0.04
860.481	0.03
860.768	0.02
861.054	0.02
861.341	0.04
861.628	0.04
861.915	0.03
862.201	0.04
862.488	0.03
862.774	0.03
863.061	0.03
863.347	0.03
863.633	0.05
863.919	0.04
864.205	0.04
864.491	0.02
864.777	0.03
865.063	0.02
865.349	0.02
865.635	0.02
865.92	0.01
866.206	0.05
866.492	0.05
866.777	0.04
867.062	0.03
867.348	0.03
867.633	0.03
867.918	0.03
868.203	0.05
868.488	0.02
868.773	0.01
869.058	0.03
869.343	0
869.628	0.02
869.912	0.03
870.197	0.02
870.482	0.01
870.766	0.04
871.05	0.04
871.335	0.02
871.619	0.01
871.903	-0
872.187	0.05
872.471	-0.02
872.755	0.05
873.039	0.03
873.323	0.01
873.607	-0.02
873.89	0.01
874.174	0.04
874.458	-0.02
874.741	0.01
875.024	-0.02
875.308	0.01
875.591	-0.04
875.874	0.02
876.157	-0.02
876.44	0.01
876.723	0.06
877.006	0
877.289	-0.01
877.572	0.01
877.854	-0.07
878.137	-0.03
878.42	0.01
878.702	-0.01
878.984	-0.02
879.267	0.02
879.549	-0
879.831	0.05
880.113	-0.01
880.395	-0.01
880.677	-0.03
880.959	0.01
