Data from Rubpy_EV_600_EDTA_Buffered_Absorbance_13-01-58-996.txt Node
Date: Tue Jun 30 13:01:58 BST 2026
User: fpm-admin
Spectrometer: OFX00224
Trigger mode: 0
Integration Time (sec): 7.000000E-2
Scans to average: 3
Nonlinearity correction enabled: false
Boxcar width: 0
Storing dark spectrum: false
XAxis mode: Wavelengths
Number of Pixels in Spectrum: 2136
>>>>>Begin Spectral Data<<<<<
154.91	-0.6
155.289	-0
155.669	0.44
156.048	0.3
156.428	-0
156.807	-0.76
157.186	-0.24
157.566	1
157.945	0.12
158.325	-0
158.704	-0
159.083	-0
159.462	0.3
159.842	-0
160.221	1.2
160.6	0.08
160.979	-0
161.359	0.15
161.738	0.45
162.117	-0.54
162.496	-0
162.875	0.09
163.254	-0.01
163.633	-0.85
164.012	-0
164.391	-0
164.77	-0
165.149	-0.03
165.528	0.46
165.907	-0
166.286	-0
166.665	0.74
167.044	-0
167.423	1.7
167.802	0.13
168.181	-0
168.559	-0
168.938	-0
169.317	0.11
169.696	-0.34
170.074	-0
170.453	0.38
170.832	0.44
171.21	-0
171.589	0.22
171.968	-0
172.346	-0
172.725	-0.14
173.103	-0.49
173.482	-0
173.861	0.1
174.239	0.59
174.617	-0
174.996	-0
175.374	-0
175.753	-1
176.131	-0
176.51	-0.12
176.888	-0
177.266	-0
177.645	-0.02
178.023	-0
178.401	-0.21
178.779	0.1
179.158	0.23
179.536	-0
179.914	0.28
180.292	0.65
180.67	-0
181.048	-0
181.427	-1.28
181.805	0.3
182.183	-0.12
182.561	-0
182.939	0.14
183.317	0.82
183.695	-0
184.073	-0.19
184.451	-0
184.829	-1.18
185.206	0.11
185.584	0.12
185.962	-0.12
186.34	-0
186.718	-0.24
187.096	-0
187.473	-0.29
187.851	-0.16
188.229	0.08
188.607	0.09
188.984	0.27
189.362	0.14
189.74	0.17
190.117	0.06
190.495	0.17
190.872	0.15
191.25	0.17
191.627	0.28
192.005	0.22
192.382	0.33
192.76	0.22
193.137	0.27
193.515	0.27
193.892	0.16
194.269	0.1
194.647	0.26
195.024	0.16
195.401	0.17
195.779	0.24
196.156	0.13
196.533	0.19
196.91	0.16
197.288	0.12
197.665	0.12
198.042	0.07
198.419	0.11
198.796	0.15
199.173	0.15
199.55	0.11
199.927	0.1
200.304	0.14
200.681	0.07
201.058	0.05
201.435	0.14
201.812	0.15
202.189	0.22
202.566	0.22
202.943	0.17
203.32	0.19
203.697	0.21
204.073	0.05
204.45	0.14
204.827	0.19
205.204	0.2
205.58	0.12
205.957	0.13
206.334	0.17
206.71	0.12
207.087	0.16
207.464	0.05
207.84	0.2
208.217	0.13
208.593	0.2
208.97	0.26
209.346	0.03
209.723	0.12
210.099	0.18
210.476	0.13
210.852	0.16
211.228	0.16
211.605	0.08
211.981	0.24
212.357	0.13
212.733	0.21
213.11	0.13
213.486	0.16
213.862	0.09
214.238	0.17
214.614	0.23
214.991	0.08
215.367	0.28
215.743	0.11
216.119	0.17
216.495	0.04
216.871	0.22
217.247	0.21
217.623	0.06
217.999	0.22
218.375	0.09
218.751	0.1
219.127	0.24
219.502	0.1
219.878	0.23
220.254	0.11
220.63	0.16
221.006	0.12
221.381	0.13
221.757	0.18
222.133	0.21
222.508	0.06
222.884	0.12
223.26	0.09
223.635	0.09
224.011	0.11
224.386	0.08
224.762	0.08
225.137	0.21
225.513	0.07
225.888	0.09
226.264	0.18
226.639	0.16
227.014	0.18
227.39	0.09
227.765	0.13
228.14	0.06
228.516	0.14
228.891	0.13
229.266	0.19
229.641	0.26
230.017	0.23
230.392	0.21
230.767	0.16
231.142	0.07
231.517	0.17
231.892	0.18
232.267	0.14
232.642	0.15
233.017	0.11
233.392	0.13
233.767	0.11
234.142	0.18
234.517	0.14
234.892	0.2
235.267	0.09
235.641	0.06
236.016	0.03
236.391	0.1
236.766	0.1
237.14	0.03
237.515	0.16
237.89	0.19
238.264	0.17
238.639	0.28
239.014	0.18
239.388	0.05
239.763	0.24
240.137	0.12
240.512	0.16
240.886	0.15
241.261	0.15
241.635	0.09
242.009	0.14
242.384	0.12
242.758	0.11
243.132	0.11
243.507	0.12
243.881	0.15
244.255	0.1
244.629	0.18
245.004	0.15
245.378	0.1
245.752	0.14
246.126	0.09
246.5	0.14
246.874	0.18
247.248	0.16
247.622	0.19
247.996	0.23
248.37	0.22
248.744	0.05
249.118	0.23
249.492	0.16
249.866	0.14
250.24	0.13
250.613	0.08
250.987	0.09
251.361	0.13
251.735	0.09
252.108	0.15
252.482	0.14
252.856	0.03
253.229	0.18
253.603	0.2
253.977	0.12
254.35	0.18
254.724	0.06
255.097	0.13
255.471	0.1
255.844	0.11
256.218	0.16
256.591	0.13
256.964	0.08
257.338	0.12
257.711	0.16
258.084	0.19
258.458	0.2
258.831	0.15
259.204	0.17
259.577	0.13
259.95	0.18
260.323	0.06
260.697	0.19
261.07	0.15
261.443	0.14
261.816	0.18
262.189	0.1
262.562	0.15
262.935	0.2
263.308	0.13
263.68	0.1
264.053	0.16
264.426	0.18
264.799	0.14
265.172	0.13
265.545	0.16
265.917	0.24
266.29	0.21
266.663	0.11
267.035	0.19
267.408	0.11
267.781	0.15
268.153	0.19
268.526	0.2
268.898	0.2
269.271	0.24
269.643	0.22
270.016	0.18
270.388	0.13
270.76	0.14
271.133	0.16
271.505	0.23
271.877	0.19
272.25	0.04
272.622	0.13
272.994	0.17
273.366	0.29
273.739	0.17
274.111	0.09
274.483	0.06
274.855	0.21
275.227	0.19
275.599	0.09
275.971	0.13
276.343	0.11
276.715	0.08
277.087	0.15
277.459	0.12
277.831	0.05
278.203	0.14
278.574	0.16
278.946	0.15
279.318	0.18
279.69	0.13
280.061	0.2
280.433	0.16
280.805	0.14
281.176	0.13
281.548	0.14
281.92	0.13
282.291	0.13
282.663	0.17
283.034	0.15
283.406	0.22
283.777	0.12
284.148	0.13
284.52	0.16
284.891	0.16
285.262	0.19
285.634	0.2
286.005	0.16
286.376	0.15
286.747	0.19
287.119	0.12
287.49	0.08
287.861	0.15
288.232	0.23
288.603	0.1
288.974	0.05
289.345	0.14
289.716	0.14
290.087	0.12
290.458	0.13
290.829	0.14
291.2	0.09
291.571	0.12
291.941	0.16
292.312	0.16
292.683	0.1
293.054	0.08
293.424	0.15
293.795	0.16
294.166	0.16
294.536	0.15
294.907	0.14
295.277	0.13
295.648	0.12
296.018	0.11
296.389	0.18
296.759	0.13
297.13	0.1
297.5	0.18
297.871	0.09
298.241	0.07
298.611	0.13
298.981	0.13
299.352	0.13
299.722	0.13
300.092	0.11
300.462	0.11
300.832	0.13
301.202	0.11
301.573	0.09
301.943	0.12
302.313	0.1
302.683	0.1
303.053	0.12
303.422	0.09
303.792	0.1
304.162	0.1
304.532	0.1
304.902	0.1
305.272	0.09
305.641	0.11
306.011	0.1
306.381	0.11
306.75	0.11
307.12	0.12
307.49	0.11
307.859	0.11
308.229	0.11
308.598	0.11
308.968	0.11
309.337	0.12
309.707	0.12
310.076	0.12
310.445	0.12
310.815	0.12
311.184	0.13
311.553	0.13
311.923	0.13
312.292	0.12
312.661	0.13
313.03	0.13
313.399	0.13
313.768	0.13
314.137	0.12
314.506	0.13
314.875	0.13
315.244	0.13
315.613	0.13
315.982	0.13
316.351	0.13
316.72	0.12
317.089	0.12
317.458	0.12
317.826	0.13
318.195	0.12
318.564	0.12
318.933	0.11
319.301	0.12
319.67	0.12
320.038	0.11
320.407	0.12
320.775	0.11
321.144	0.12
321.512	0.12
321.881	0.12
322.249	0.12
322.618	0.11
322.986	0.11
323.354	0.11
323.723	0.11
324.091	0.1
324.459	0.11
324.827	0.12
325.195	0.1
325.564	0.1
325.932	0.11
326.3	0.1
326.668	0.1
327.036	0.1
327.404	0.1
327.772	0.11
328.14	0.11
328.508	0.1
328.875	0.1
329.243	0.1
329.611	0.1
329.979	0.11
330.346	0.1
330.714	0.11
331.082	0.1
331.449	0.1
331.817	0.1
332.185	0.11
332.552	0.1
332.92	0.1
333.287	0.11
333.655	0.11
334.022	0.11
334.389	0.11
334.757	0.11
335.124	0.12
335.491	0.11
335.859	0.12
336.226	0.12
336.593	0.12
336.96	0.12
337.327	0.12
337.695	0.13
338.062	0.13
338.429	0.13
338.796	0.13
339.163	0.13
339.53	0.13
339.897	0.13
340.263	0.14
340.63	0.14
340.997	0.14
341.364	0.14
341.731	0.15
342.097	0.15
342.464	0.15
342.831	0.15
343.197	0.16
343.564	0.16
343.931	0.15
344.297	0.16
344.664	0.16
345.03	0.17
345.396	0.17
345.763	0.17
346.129	0.17
346.496	0.18
346.862	0.18
347.228	0.18
347.594	0.18
347.961	0.19
348.327	0.19
348.693	0.19
349.059	0.2
349.425	0.2
349.791	0.2
350.157	0.21
350.523	0.21
350.889	0.21
351.255	0.22
351.621	0.22
351.987	0.23
352.353	0.23
352.719	0.23
353.084	0.24
353.45	0.25
353.816	0.25
354.181	0.26
354.547	0.26
354.913	0.27
355.278	0.27
355.644	0.28
356.009	0.28
356.375	0.29
356.74	0.29
357.106	0.3
357.471	0.31
357.836	0.31
358.202	0.32
358.567	0.33
358.932	0.34
359.297	0.34
359.663	0.35
360.028	0.35
360.393	0.35
360.758	0.36
361.123	0.36
361.488	0.37
361.853	0.37
362.218	0.38
362.583	0.38
362.948	0.39
363.312	0.39
363.677	0.39
364.042	0.41
364.407	0.41
364.772	0.42
365.136	0.42
365.501	0.43
365.865	0.45
366.23	0.45
366.595	0.46
366.959	0.47
367.324	0.48
367.688	0.49
368.052	0.51
368.417	0.51
368.781	0.51
369.145	0.52
369.51	0.52
369.874	0.53
370.238	0.53
370.602	0.53
370.967	0.53
371.331	0.53
371.695	0.52
372.059	0.53
372.423	0.52
372.787	0.52
373.151	0.51
373.515	0.52
373.878	0.51
374.242	0.51
374.606	0.52
374.97	0.51
375.334	0.51
375.697	0.52
376.061	0.52
376.425	0.53
376.788	0.53
377.152	0.53
377.515	0.54
377.879	0.55
378.242	0.55
378.606	0.55
378.969	0.56
379.333	0.56
379.696	0.58
380.059	0.59
380.422	0.6
380.786	0.6
381.149	0.61
381.512	0.63
381.875	0.64
382.238	0.65
382.601	0.67
382.964	0.69
383.327	0.71
383.69	0.73
384.053	0.74
384.416	0.76
384.779	0.78
385.142	0.8
385.504	0.82
385.867	0.82
386.23	0.83
386.593	0.83
386.955	0.84
387.318	0.84
387.68	0.84
388.043	0.84
388.405	0.83
388.768	0.82
389.13	0.81
389.493	0.81
389.855	0.81
390.217	0.81
390.58	0.8
390.942	0.81
391.304	0.81
391.666	0.82
392.028	0.83
392.391	0.85
392.753	0.87
393.115	0.9
393.477	0.94
393.839	0.97
394.201	1.01
394.563	1.05
394.924	1.08
395.286	1.13
395.648	1.16
396.01	1.19
396.371	1.23
396.733	1.24
397.095	1.27
397.456	1.29
397.818	1.29
398.18	1.27
398.541	1.26
398.903	1.24
399.264	1.21
399.625	1.17
399.987	1.12
400.348	1.08
400.709	1.03
401.071	0.97
401.432	0.92
401.793	0.86
402.154	0.81
402.515	0.75
402.876	0.69
403.238	0.65
403.599	0.6
403.96	0.57
404.32	0.52
404.681	0.48
405.042	0.45
405.403	0.42
405.764	0.39
406.125	0.36
406.485	0.34
406.846	0.31
407.207	0.3
407.567	0.28
407.928	0.26
408.288	0.25
408.649	0.23
409.009	0.22
409.37	0.21
409.73	0.2
410.091	0.19
410.451	0.18
410.811	0.18
411.171	0.17
411.532	0.16
411.892	0.15
412.252	0.15
412.612	0.14
412.972	0.14
413.332	0.13
413.692	0.13
414.052	0.12
414.412	0.11
414.772	0.12
415.132	0.11
415.492	0.11
415.851	0.1
416.211	0.11
416.571	0.1
416.931	0.1
417.29	0.1
417.65	0.09
418.009	0.09
418.369	0.08
418.728	0.09
419.088	0.08
419.447	0.09
419.807	0.08
420.166	0.08
420.525	0.08
420.884	0.08
421.244	0.08
421.603	0.08
421.962	0.08
422.321	0.07
422.68	0.08
423.039	0.07
423.398	0.07
423.757	0.07
424.116	0.07
424.475	0.07
424.834	0.07
425.193	0.07
425.551	0.06
425.91	0.06
426.269	0.06
426.628	0.06
426.986	0.06
427.345	0.06
427.703	0.06
428.062	0.05
428.42	0.06
428.779	0.06
429.137	0.06
429.496	0.05
429.854	0.05
430.212	0.06
430.57	0.06
430.929	0.06
431.287	0.06
431.645	0.05
432.003	0.06
432.361	0.06
432.719	0.05
433.077	0.05
433.435	0.05
433.793	0.06
434.151	0.05
434.509	0.06
434.866	0.06
435.224	0.05
435.582	0.05
435.94	0.05
436.297	0.05
436.655	0.04
437.012	0.05
437.37	0.06
437.727	0.04
438.085	0.05
438.442	0.05
438.8	0.04
439.157	0.05
439.514	0.05
439.872	0.05
440.229	0.05
440.586	0.04
440.943	0.04
441.3	0.04
441.657	0.04
442.014	0.04
442.371	0.04
442.728	0.04
443.085	0.04
443.442	0.05
443.799	0.03
444.156	0.04
444.513	0.04
444.869	0.04
445.226	0.05
445.583	0.03
445.939	0.04
446.296	0.04
446.652	0.05
447.009	0.04
447.365	0.04
447.722	0.04
448.078	0.04
448.434	0.03
448.791	0.03
449.147	0.04
449.503	0.03
449.859	0.04
450.215	0.04
450.571	0.04
450.928	0.03
451.284	0.03
451.64	0.03
451.995	0.03
452.351	0.03
452.707	0.04
453.063	0.03
453.419	0.04
453.775	0.03
454.13	0.03
454.486	0.03
454.842	0.03
455.197	0.03
455.553	0.03
455.908	0.02
456.264	0.03
456.619	0.02
456.975	0.03
457.33	0.03
457.685	0.03
458.04	0.02
458.396	0.01
458.751	0.03
459.106	0.01
459.461	0.03
459.816	0.01
460.171	0.02
460.526	0.02
460.881	0.02
461.236	0
461.591	0.02
461.946	0.01
462.301	0.01
462.655	0.02
463.01	0.01
463.365	0.01
463.719	0.01
464.074	0.01
464.428	0
464.783	0.01
465.137	-0
465.492	0.01
465.846	0.01
466.201	0
466.555	0.01
466.909	-0
467.263	0.01
467.618	0.01
467.972	0
468.326	0
468.68	0.01
469.034	0
469.388	0
469.742	0
470.096	0.01
470.45	0.01
470.804	0
471.157	0.01
471.511	-0
471.865	0.01
472.218	0.01
472.572	0
472.926	0.01
473.279	0
473.633	0.01
473.986	0.01
474.34	0.01
474.693	0.02
475.046	0.02
475.4	0.02
475.753	0.02
476.106	0.02
476.459	0.02
476.812	0.03
477.165	0.03
477.519	0.02
477.872	0.03
478.224	0.03
478.577	0.04
478.93	0.03
479.283	0.04
479.636	0.03
479.989	0.04
480.341	0.04
480.694	0.04
481.047	0.04
481.399	0.04
481.752	0.04
482.104	0.04
482.457	0.04
482.809	0.04
483.162	0.05
483.514	0.05
483.866	0.04
484.219	0.04
484.571	0.04
484.923	0.05
485.275	0.05
485.627	0.05
485.979	0.05
486.331	0.05
486.683	0.06
487.035	0.05
487.387	0.06
487.739	0.05
488.091	0.06
488.443	0.05
488.794	0.06
489.146	0.06
489.498	0.06
489.849	0.06
490.201	0.06
490.552	0.06
490.904	0.06
491.255	0.06
491.607	0.06
491.958	0.07
492.309	0.07
492.661	0.06
493.012	0.06
493.363	0.07
493.714	0.06
494.065	0.07
494.416	0.07
494.767	0.07
495.118	0.07
495.469	0.08
495.82	0.07
496.171	0.07
496.522	0.08
496.872	0.07
497.223	0.08
497.574	0.08
497.924	0.08
498.275	0.08
498.626	0.09
498.976	0.08
499.327	0.09
499.677	0.08
500.027	0.09
500.378	0.09
500.728	0.09
501.078	0.09
501.428	0.09
501.779	0.09
502.129	0.1
502.479	0.1
502.829	0.09
503.179	0.1
503.529	0.09
503.879	0.1
504.229	0.1
504.578	0.1
504.928	0.1
505.278	0.1
505.628	0.1
505.977	0.11
506.327	0.11
506.676	0.11
507.026	0.11
507.375	0.11
507.725	0.11
508.074	0.11
508.424	0.11
508.773	0.11
509.122	0.12
509.471	0.12
509.82	0.12
510.17	0.12
510.519	0.12
510.868	0.12
511.217	0.12
511.566	0.12
511.915	0.13
512.263	0.13
512.612	0.13
512.961	0.13
513.31	0.13
513.659	0.13
514.007	0.13
514.356	0.13
514.704	0.14
515.053	0.14
515.401	0.14
515.75	0.14
516.098	0.14
516.447	0.14
516.795	0.14
517.143	0.14
517.491	0.14
517.839	0.14
518.188	0.14
518.536	0.15
518.884	0.14
519.232	0.15
519.58	0.15
519.928	0.15
520.275	0.15
520.623	0.16
520.971	0.16
521.319	0.16
521.666	0.16
522.014	0.16
522.362	0.16
522.709	0.17
523.057	0.16
523.404	0.16
523.752	0.16
524.099	0.16
524.446	0.17
524.794	0.17
525.141	0.17
525.488	0.17
525.835	0.17
526.182	0.17
526.529	0.17
526.876	0.18
527.223	0.18
527.57	0.18
527.917	0.18
528.264	0.18
528.611	0.18
528.958	0.18
529.304	0.18
529.651	0.19
529.998	0.19
530.344	0.19
530.691	0.19
531.037	0.19
531.384	0.2
531.73	0.19
532.076	0.2
532.423	0.2
532.769	0.2
533.115	0.2
533.461	0.2
533.807	0.2
534.154	0.2
534.5	0.2
534.846	0.21
535.192	0.2
535.537	0.21
535.883	0.21
536.229	0.21
536.575	0.21
536.921	0.22
537.266	0.21
537.612	0.22
537.957	0.22
538.303	0.22
538.649	0.23
538.994	0.23
539.339	0.23
539.685	0.23
540.03	0.23
540.375	0.24
540.721	0.23
541.066	0.24
541.411	0.24
541.756	0.24
542.101	0.24
542.446	0.24
542.791	0.25
543.136	0.24
543.481	0.24
543.825	0.25
544.17	0.25
544.515	0.25
544.86	0.26
545.204	0.25
545.549	0.26
545.893	0.26
546.238	0.26
546.582	0.26
546.927	0.27
547.271	0.27
547.615	0.27
547.96	0.27
548.304	0.27
548.648	0.27
548.992	0.27
549.336	0.28
549.68	0.28
550.024	0.28
550.368	0.28
550.712	0.28
551.056	0.29
551.4	0.28
551.743	0.29
552.087	0.29
552.431	0.29
552.774	0.29
553.118	0.3
553.462	0.29
553.805	0.29
554.148	0.3
554.492	0.3
554.835	0.3
555.178	0.3
555.522	0.3
555.865	0.3
556.208	0.3
556.551	0.3
556.894	0.31
557.237	0.3
557.58	0.31
557.923	0.31
558.266	0.31
558.609	0.31
558.952	0.31
559.294	0.31
559.637	0.31
559.98	0.31
560.322	0.32
560.665	0.32
561.007	0.32
561.35	0.32
561.692	0.32
562.034	0.32
562.377	0.32
562.719	0.32
563.061	0.32
563.403	0.32
563.745	0.32
564.088	0.32
564.43	0.33
564.772	0.32
565.113	0.33
565.455	0.32
565.797	0.33
566.139	0.32
566.481	0.33
566.822	0.32
567.164	0.33
567.506	0.32
567.847	0.33
568.189	0.33
568.53	0.33
568.872	0.33
569.213	0.33
569.554	0.33
569.895	0.33
570.237	0.33
570.578	0.33
570.919	0.33
571.26	0.33
571.601	0.33
571.942	0.34
572.283	0.33
572.624	0.33
572.965	0.33
573.306	0.33
573.646	0.33
573.987	0.33
574.328	0.33
574.668	0.33
575.009	0.33
575.349	0.33
575.69	0.33
576.03	0.33
576.37	0.33
576.711	0.32
577.051	0.33
577.391	0.33
577.731	0.33
578.072	0.33
578.412	0.33
578.752	0.33
579.092	0.33
579.431	0.33
579.771	0.32
580.111	0.32
580.451	0.32
580.791	0.33
581.13	0.33
581.47	0.33
581.81	0.33
582.149	0.33
582.489	0.34
582.828	0.34
583.167	0.33
583.507	0.31
583.846	0.29
584.185	0.3
584.525	0.32
584.864	0.33
585.203	0.34
585.542	0.34
585.881	0.35
586.22	0.35
586.559	0.35
586.898	0.34
587.236	0.34
587.575	0.34
587.914	0.34
588.252	0.35
588.591	0.35
588.93	0.35
589.268	0.35
589.607	0.35
589.945	0.35
590.283	0.36
590.622	0.36
590.96	0.36
591.298	0.37
591.636	0.37
591.974	0.37
592.313	0.37
592.651	0.37
592.989	0.38
593.326	0.38
593.664	0.38
594.002	0.38
594.34	0.38
594.678	0.39
595.015	0.38
595.353	0.38
595.691	0.38
596.028	0.38
596.366	0.39
596.703	0.39
597.04	0.39
597.378	0.4
597.715	0.4
598.052	0.4
598.389	0.4
598.726	0.41
599.064	0.41
599.401	0.41
599.738	0.41
600.074	0.41
600.411	0.41
600.748	0.41
601.085	0.4
601.422	0.41
601.758	0.4
602.095	0.4
602.432	0.41
602.768	0.4
603.105	0.41
603.441	0.41
603.777	0.41
604.114	0.41
604.45	0.41
604.786	0.42
605.122	0.41
605.459	0.41
605.795	0.41
606.131	0.41
606.467	0.41
606.803	0.41
607.139	0.41
607.474	0.41
607.81	0.4
608.146	0.41
608.482	0.4
608.817	0.4
609.153	0.4
609.488	0.4
609.824	0.4
610.159	0.4
610.495	0.4
610.83	0.4
611.165	0.4
611.5	0.4
611.836	0.4
612.171	0.4
612.506	0.4
612.841	0.4
613.176	0.4
613.511	0.4
613.845	0.39
614.18	0.39
614.515	0.39
614.85	0.4
615.184	0.39
615.519	0.39
615.854	0.39
616.188	0.39
616.523	0.39
616.857	0.38
617.191	0.38
617.526	0.38
617.86	0.38
618.194	0.38
618.528	0.38
618.862	0.38
619.196	0.38
619.53	0.38
619.864	0.38
620.198	0.38
620.532	0.38
620.866	0.38
621.2	0.38
621.533	0.38
621.867	0.38
622.201	0.37
622.534	0.37
622.868	0.37
623.201	0.37
623.534	0.37
623.868	0.37
624.201	0.36
624.534	0.36
624.868	0.36
625.201	0.36
625.534	0.36
625.867	0.36
626.2	0.36
626.533	0.35
626.865	0.36
627.198	0.35
627.531	0.35
627.864	0.35
628.196	0.35
628.529	0.35
628.862	0.34
629.194	0.34
629.527	0.34
629.859	0.34
630.191	0.34
630.524	0.33
630.856	0.33
631.188	0.33
631.52	0.33
631.852	0.33
632.184	0.33
632.516	0.32
632.848	0.32
633.18	0.32
633.512	0.32
633.844	0.32
634.175	0.31
634.507	0.31
634.839	0.31
635.17	0.31
635.502	0.3
635.833	0.3
636.165	0.3
636.496	0.3
636.827	0.3
637.159	0.3
637.49	0.3
637.821	0.29
638.152	0.29
638.483	0.29
638.814	0.29
639.145	0.28
639.476	0.28
639.807	0.28
640.137	0.28
640.468	0.28
640.799	0.27
641.129	0.28
641.46	0.28
641.791	0.27
642.121	0.27
642.451	0.26
642.782	0.26
643.112	0.26
643.442	0.26
643.773	0.26
644.103	0.25
644.433	0.25
644.763	0.25
645.093	0.25
645.423	0.24
645.753	0.24
646.082	0.24
646.412	0.24
646.742	0.24
647.072	0.24
647.401	0.24
647.731	0.24
648.06	0.24
648.39	0.24
648.719	0.24
649.048	0.24
649.378	0.24
649.707	0.23
650.036	0.24
650.365	0.23
650.694	0.23
651.023	0.23
651.352	0.23
651.681	0.23
652.01	0.23
652.339	0.23
652.668	0.23
652.996	0.23
653.325	0.23
653.654	0.23
653.982	0.23
654.311	0.23
654.639	0.23
654.967	0.23
655.296	0.23
655.624	0.23
655.952	0.22
656.28	0.23
656.609	0.22
656.937	0.23
657.265	0.23
657.593	0.21
657.92	0.09
658.248	0.03
658.576	0.02
658.904	0.08
659.231	0.16
659.559	0.21
659.887	0.22
660.214	0.22
660.542	0.22
660.869	0.22
661.196	0.22
661.524	0.22
661.851	0.22
662.178	0.22
662.505	0.23
662.832	0.22
663.159	0.23
663.486	0.22
663.813	0.23
664.14	0.22
664.467	0.22
664.794	0.22
665.12	0.22
665.447	0.22
665.774	0.22
666.1	0.22
666.427	0.22
666.753	0.22
667.079	0.22
667.406	0.22
667.732	0.22
668.058	0.21
668.384	0.22
668.71	0.22
669.036	0.21
669.362	0.21
669.688	0.21
670.014	0.22
670.34	0.21
670.666	0.21
670.991	0.21
671.317	0.21
671.643	0.21
671.968	0.21
672.294	0.2
672.619	0.2
672.945	0.2
673.27	0.2
673.595	0.2
673.92	0.19
674.246	0.19
674.571	0.19
674.896	0.19
675.221	0.2
675.546	0.2
675.87	0.19
676.195	0.19
676.52	0.2
676.845	0.19
677.169	0.19
677.494	0.19
677.819	0.19
678.143	0.19
678.468	0.18
678.792	0.18
679.116	0.18
679.44	0.18
679.765	0.18
680.089	0.18
680.413	0.18
680.737	0.17
681.061	0.17
681.385	0.17
681.709	0.17
682.033	0.16
682.356	0.16
682.68	0.16
683.004	0.16
683.327	0.16
683.651	0.15
683.974	0.15
684.298	0.15
684.621	0.15
684.944	0.15
685.268	0.15
685.591	0.15
685.914	0.15
686.237	0.14
686.56	0.14
686.883	0.14
687.206	0.14
687.529	0.14
687.852	0.14
688.175	0.14
688.497	0.13
688.82	0.14
689.142	0.13
689.465	0.13
689.787	0.13
690.11	0.13
690.432	0.12
690.755	0.13
691.077	0.12
691.399	0.12
691.721	0.12
692.043	0.12
692.365	0.12
692.687	0.12
693.009	0.12
693.331	0.12
693.653	0.12
693.974	0.12
694.296	0.12
694.618	0.11
694.939	0.11
695.261	0.11
695.582	0.11
695.904	0.11
696.225	0.11
696.546	0.11
696.868	0.11
697.189	0.11
697.51	0.11
697.831	0.1
698.152	0.1
698.473	0.1
698.794	0.1
699.114	0.1
699.435	0.1
699.756	0.1
700.077	0.1
700.397	0.1
700.718	0.1
701.038	0.1
701.359	0.1
701.679	0.1
701.999	0.1
702.32	0.1
702.64	0.1
702.96	0.1
703.28	0.09
703.6	0.09
703.92	0.09
704.24	0.09
704.56	0.09
704.879	0.09
705.199	0.09
705.519	0.09
705.838	0.09
706.158	0.09
706.478	0.08
706.797	0.09
707.116	0.09
707.436	0.08
707.755	0.08
708.074	0.09
708.393	0.08
708.712	0.08
709.031	0.08
709.35	0.08
709.669	0.08
709.988	0.08
710.307	0.08
710.626	0.08
710.944	0.08
711.263	0.08
711.582	0.08
711.9	0.08
712.219	0.08
712.537	0.08
712.855	0.08
713.174	0.08
713.492	0.08
713.81	0.08
714.128	0.08
714.446	0.08
714.764	0.08
715.082	0.08
715.4	0.08
715.718	0.08
716.035	0.08
716.353	0.08
716.671	0.08
716.988	0.08
717.306	0.08
717.623	0.08
717.941	0.09
718.258	0.09
718.575	0.09
718.893	0.09
719.21	0.09
719.527	0.09
719.844	0.09
720.161	0.09
720.478	0.09
720.795	0.09
721.112	0.09
721.428	0.09
721.745	0.09
722.062	0.09
722.378	0.09
722.695	0.09
723.011	0.09
723.328	0.09
723.644	0.09
723.96	0.09
724.276	0.1
724.593	0.09
724.909	0.09
725.225	0.09
725.541	0.09
725.857	0.09
726.173	0.09
726.488	0.09
726.804	0.09
727.12	0.09
727.435	0.09
727.751	0.09
728.067	0.09
728.382	0.09
728.697	0.1
729.013	0.1
729.328	0.1
729.643	0.1
729.958	0.09
730.273	0.1
730.588	0.09
730.903	0.1
731.218	0.1
731.533	0.09
731.848	0.1
732.163	0.09
732.477	0.09
732.792	0.09
733.107	0.09
733.421	0.09
733.736	0.09
734.05	0.09
734.364	0.09
734.678	0.09
734.993	0.09
735.307	0.09
735.621	0.09
735.935	0.09
736.249	0.09
736.563	0.09
736.877	0.09
737.19	0.09
737.504	0.09
737.818	0.09
738.131	0.09
738.445	0.09
738.758	0.09
739.072	0.09
739.385	0.09
739.698	0.09
740.012	0.08
740.325	0.09
740.638	0.08
740.951	0.08
741.264	0.08
741.577	0.08
741.89	0.08
742.203	0.09
742.515	0.09
742.828	0.09
743.141	0.08
743.453	0.08
743.766	0.08
744.078	0.08
744.391	0.08
744.703	0.08
745.015	0.08
745.327	0.07
745.639	0.07
745.952	0.07
746.264	0.07
746.575	0.07
746.887	0.07
747.199	0.07
747.511	0.07
747.823	0.07
748.134	0.07
748.446	0.07
748.757	0.07
749.069	0.07
749.38	0.07
749.692	0.07
750.003	0.07
750.314	0.07
750.625	0.07
750.936	0.08
751.248	0.07
751.559	0.07
751.869	0.07
752.18	0.07
752.491	0.07
752.802	0.07
753.112	0.06
753.423	0.06
753.734	0.06
754.044	0.06
754.355	0.05
754.665	0.05
754.975	0.05
755.285	0.06
755.596	0.05
755.906	0.05
756.216	0.05
756.526	0.06
756.836	0.06
757.146	0.06
757.455	0.05
757.765	0.05
758.075	0.05
758.385	0.05
758.694	0.05
759.004	0.05
759.313	0.05
759.622	0.05
759.932	0.05
760.241	0.05
760.55	0.05
760.859	0.05
761.168	0.05
761.477	0.05
761.786	0.05
762.095	0.05
762.404	0.05
762.713	0.05
763.021	0.05
763.33	0.05
763.639	0.05
763.947	0.05
764.256	0.05
764.564	0.05
764.872	0.05
765.181	0.05
765.489	0.04
765.797	0.05
766.105	0.04
766.413	0.04
766.721	0.04
767.029	0.04
767.337	0.04
767.644	0.04
767.952	0.05
768.26	0.04
768.567	0.05
768.875	0.04
769.182	0.04
769.49	0.04
769.797	0.04
770.104	0.04
770.411	0.04
770.718	0.04
771.026	0.04
771.333	0.04
771.639	0.03
771.946	0.03
772.253	0.03
772.56	0.04
772.867	0.04
773.173	0.04
773.48	0.04
773.786	0.04
774.093	0.04
774.399	0.03
774.705	0.03
775.012	0.03
775.318	0.04
775.624	0.03
775.93	0.03
776.236	0.03
776.542	0.03
776.848	0.04
777.154	0.03
777.459	0.03
777.765	0.03
778.071	0.03
778.376	0.04
778.682	0.04
778.987	0.04
779.292	0.04
779.598	0.04
779.903	0.04
780.208	0.04
780.513	0.04
780.818	0.04
781.123	0.04
781.428	0.04
781.733	0.04
782.038	0.04
782.343	0.04
782.647	0.04
782.952	0.04
783.256	0.04
783.561	0.04
783.865	0.04
784.17	0.03
784.474	0.03
784.778	0.03
785.082	0.03
785.386	0.03
785.69	0.03
785.994	0.04
786.298	0.04
786.602	0.04
786.906	0.04
787.209	0.04
787.513	0.04
787.817	0.03
788.12	0.03
788.424	0.03
788.727	0.03
789.03	0.04
789.333	0.04
789.637	0.04
789.94	0.04
790.243	0.03
790.546	0.03
790.849	0.03
791.152	0.03
791.454	0.03
791.757	0.03
792.06	0.03
792.362	0.03
792.665	0.03
792.967	0.03
793.27	0.03
793.572	0.03
793.874	0.04
794.177	0.04
794.479	0.04
794.781	0.04
795.083	0.04
795.385	0.04
795.687	0.03
795.989	0.04
796.29	0.04
796.592	0.04
796.894	0.04
797.195	0.04
797.497	0.04
797.798	0.04
798.1	0.03
798.401	0.04
798.702	0.04
799.003	0.04
799.304	0.04
799.605	0.04
799.906	0.04
800.207	0.04
800.508	0.03
800.809	0.03
801.11	0.03
801.41	0.03
801.711	0.04
802.011	0.04
802.312	0.04
802.612	0.04
802.913	0.04
803.213	0.04
803.513	0.04
803.813	0.04
804.113	0.04
804.413	0.04
804.713	0.04
805.013	0.04
805.313	0.03
805.613	0.04
805.912	0.04
806.212	0.04
806.511	0.03
806.811	0.04
807.11	0.03
807.41	0.03
807.709	0.03
808.008	0.03
808.307	0.03
808.606	0.03
808.905	0.03
809.204	0.03
809.503	0.03
809.802	0.04
810.101	0.04
810.399	0.04
810.698	0.04
810.997	0.04
811.295	0.04
811.593	0.04
811.892	0.05
812.19	0.05
812.488	0.04
812.786	0.05
813.084	0.04
813.383	0.04
813.68	0.04
813.978	0.05
814.276	0.05
814.574	0.05
814.872	0.05
815.169	0.05
815.467	0.05
815.764	0.05
816.062	0.05
816.359	0.04
816.656	0.04
816.954	0.04
817.251	0.04
817.548	0.04
817.845	0.05
818.142	0.04
818.439	0.03
818.735	0.03
819.032	0.04
819.329	0.04
819.626	0.04
819.922	0.04
820.219	0.04
820.515	0.04
820.811	0.04
821.108	0.04
821.404	0.04
821.7	0.04
821.996	0.04
822.292	0.04
822.588	0.05
822.884	0.05
823.18	0.04
823.475	0.04
823.771	0.04
824.067	0.04
824.362	0.04
824.658	0.04
824.953	0.04
825.249	0.04
825.544	0.04
825.839	0.05
826.134	0.04
826.429	0.04
826.724	0.04
827.019	0.05
827.314	0.04
827.609	0.05
827.904	0.04
828.198	0.05
828.493	0.05
828.787	0.05
829.082	0.04
829.376	0.04
829.671	0.04
829.965	0.04
830.259	0.05
830.553	0.05
830.847	0.04
831.141	0.05
831.435	0.05
831.729	0.04
832.023	0.05
832.317	0.06
832.61	0.05
832.904	0.05
833.197	0.05
833.491	0.06
833.784	0.05
834.077	0.06
834.371	0.06
834.664	0.05
834.957	0.05
835.25	0.05
835.543	0.06
835.836	0.05
836.129	0.06
836.421	0.04
836.714	0.05
837.007	0.05
837.299	0.04
837.592	0.06
837.884	0.05
838.177	0.04
838.469	0.05
838.761	0.05
839.053	0.03
839.345	0.05
839.637	0.04
839.929	0.04
840.221	0.04
840.513	0.05
840.805	0.05
841.096	0.05
841.388	0.05
841.68	0.04
841.971	0.05
842.262	0.04
842.554	0.05
842.845	0.04
843.136	0.05
843.427	0.05
843.718	0.05
844.009	0.05
844.3	0.04
844.591	0.05
844.882	0.06
845.173	0.04
845.463	0.05
845.754	0.06
846.044	0.06
846.335	0.06
846.625	0.06
846.915	0.05
847.206	0.05
847.496	0.06
847.786	0.05
848.076	0.05
848.366	0.05
848.656	0.04
848.945	0.05
849.235	0.05
849.525	0.05
849.814	0.05
850.104	0.05
850.393	0.04
850.683	0.03
850.972	0.05
851.261	0.04
851.551	0.05
851.84	0.05
852.129	0.05
852.418	0.05
852.707	0.05
852.995	0.04
853.284	0.04
853.573	0.06
853.862	0.07
854.15	0.05
854.439	0.04
854.727	0.05
855.015	0.06
855.304	0.04
855.592	0.05
855.88	0.05
856.168	0.04
856.456	0.04
856.744	0.05
857.032	0.04
857.32	0.06
857.607	0.05
857.895	0.05
858.183	0.06
858.47	0.05
858.757	0.05
859.045	0.07
859.332	0.05
859.619	0.04
859.907	0.04
860.194	0.04
860.481	0.04
860.768	0.05
861.054	0.04
861.341	0.04
861.628	0.04
861.915	0.06
862.201	0.04
862.488	0.05
862.774	0.05
863.061	0.04
863.347	0.05
863.633	0.07
863.919	0.05
864.205	0.05
864.491	0.05
864.777	0.05
865.063	0.04
865.349	0.05
865.635	0.04
865.92	0.03
866.206	0.04
866.492	0.05
866.777	0.05
867.062	0.05
867.348	0.05
867.633	0.05
867.918	0.02
868.203	0.06
868.488	0.05
868.773	0.03
869.058	0.04
869.343	0.01
869.628	0.04
869.912	0.04
870.197	0.01
870.482	0.01
870.766	0.03
871.05	0.04
871.335	0.02
871.619	-0
871.903	0.01
872.187	0.07
872.471	-0
872.755	0.04
873.039	0.08
873.323	0.02
873.607	0.02
873.89	0.02
874.174	0.04
874.458	0
874.741	0.03
875.024	-0
875.308	0.01
875.591	-0.07
875.874	-0.03
876.157	-0.01
876.44	0.02
876.723	0.03
877.006	0.08
877.289	0.01
877.572	0.06
877.854	0.01
878.137	0.03
878.42	-0
878.702	-0.04
878.984	0.02
879.267	0
879.549	-0.01
879.831	-0.04
880.113	0.01
880.395	0.07
880.677	0.06
880.959	-0.01
