Data from Rubpy_EV_600_EDTA_Buffered_Absorbance_12-54-54-073.txt Node
Date: Tue Jun 30 12:54:54 BST 2026
User: fpm-admin
Spectrometer: OFX00224
Trigger mode: 0
Integration Time (sec): 7.000000E-2
Scans to average: 3
Nonlinearity correction enabled: false
Boxcar width: 0
Storing dark spectrum: false
XAxis mode: Wavelengths
Number of Pixels in Spectrum: 2136
>>>>>Begin Spectral Data<<<<<
154.91	-0.88
155.289	0.64
155.669	0.82
156.048	-0
156.428	-0
156.807	-0.7
157.186	-0.05
157.566	0.52
157.945	0.69
158.325	0.05
158.704	0.73
159.083	-0.43
159.462	-0
159.842	-0.24
160.221	-0
160.6	0.09
160.979	-0.16
161.359	0.85
161.738	-0
162.117	-0
162.496	0.75
162.875	0.32
163.254	0.04
163.633	-0.95
164.012	-0.22
164.391	-0.24
164.77	-0.5
165.149	-0
165.528	0.22
165.907	-0.08
166.286	-0.09
166.665	-0.37
167.044	-0
167.423	0.85
167.802	0.13
168.181	0.32
168.559	-0
168.938	-0.16
169.317	-0.05
169.696	-0.46
170.074	-0
170.453	-0.5
170.832	-0
171.21	-0
171.589	0.63
171.968	-0
172.346	-0
172.725	-0
173.103	-0.49
173.482	-0
173.861	1.18
174.239	-0.06
174.617	-0
174.996	-0
175.374	-0
175.753	-1.16
176.131	-0
176.51	-0.37
176.888	0.16
177.266	-0
177.645	-0.03
178.023	-0
178.401	-0.2
178.779	-0.11
179.158	0.39
179.536	-0
179.914	0.53
180.292	0.32
180.67	-0
181.048	-0
181.427	-0
181.805	-0
182.183	-1.05
182.561	-0
182.939	-0.12
183.317	0.82
183.695	0.24
184.073	0.37
184.451	-0
184.829	-0.74
185.206	-0.09
185.584	0.39
185.962	-0
186.34	-0
186.718	-0.07
187.096	-0.11
187.473	-0.13
187.851	0.06
188.229	0.12
188.607	-0.02
188.984	0
189.362	0.09
189.74	0.14
190.117	0.07
190.495	0.11
190.872	0.13
191.25	0.1
191.627	0.14
192.005	0.12
192.382	0.14
192.76	0.05
193.137	0.24
193.515	0.13
193.892	0.06
194.269	0.01
194.647	0.11
195.024	-0.02
195.401	0.03
195.779	0.15
196.156	0
196.533	0.11
196.91	0.17
197.288	0.11
197.665	0.03
198.042	-0.03
198.419	0.02
198.796	0.13
199.173	0.09
199.55	0.05
199.927	-0.01
200.304	0.05
200.681	0.04
201.058	0.07
201.435	0.12
201.812	0.13
202.189	0.04
202.566	0.06
202.943	0.22
203.32	0.12
203.697	0.19
204.073	0.01
204.45	0.05
204.827	0.11
205.204	0.15
205.58	0.02
205.957	0.13
206.334	0.08
206.71	0.01
207.087	0.07
207.464	0.08
207.84	0.06
208.217	0.01
208.593	0.07
208.97	0.17
209.346	0.03
209.723	0.12
210.099	0.11
210.476	0.09
210.852	0.13
211.228	0.02
211.605	0.02
211.981	0.15
212.357	0.07
212.733	0.07
213.11	0.07
213.486	0.19
213.862	0.03
214.238	0.16
214.614	0.15
214.991	0.02
215.367	0.17
215.743	0.11
216.119	0.1
216.495	-0.04
216.871	0.14
217.247	0.15
217.623	0.07
217.999	0.11
218.375	0.07
218.751	0.06
219.127	0.09
219.502	0.08
219.878	0.14
220.254	0.08
220.63	0.07
221.006	0.09
221.381	0.08
221.757	0.16
222.133	0.07
222.508	0.07
222.884	0.03
223.26	0.11
223.635	0.02
224.011	0.02
224.386	0.06
224.762	-0.01
225.137	0.09
225.513	0.15
225.888	0.08
226.264	0.15
226.639	0.12
227.014	0.11
227.39	0.18
227.765	0.13
228.14	0.05
228.516	0.13
228.891	0.06
229.266	0.07
229.641	0
230.017	0.07
230.392	0.14
230.767	0.14
231.142	0.09
231.517	0.05
231.892	0.1
232.267	0.1
232.642	0.18
233.017	0.05
233.392	0.13
233.767	0.08
234.142	0.1
234.517	0.07
234.892	0.13
235.267	0.08
235.641	0
236.016	0.04
236.391	0.08
236.766	0.07
237.14	0.06
237.515	0.12
237.89	0.06
238.264	0.07
238.639	0.16
239.014	0.05
239.388	0.06
239.763	0.11
240.137	0.07
240.512	0.16
240.886	0.03
241.261	0.12
241.635	0.11
242.009	0.11
242.384	0.03
242.758	0.13
243.132	0.08
243.507	0.15
243.881	0.11
244.255	0.13
244.629	0.09
245.004	0.02
245.378	0.08
245.752	0.13
246.126	0.1
246.5	0.1
246.874	0.11
247.248	0.08
247.622	0.05
247.996	0.08
248.37	0.16
248.744	-0.02
249.118	0.08
249.492	0.13
249.866	0.06
250.24	0.05
250.613	0.09
250.987	0.08
251.361	0.15
251.735	0.07
252.108	0.12
252.482	0.1
252.856	-0
253.229	0.12
253.603	0.08
253.977	0.04
254.35	0.08
254.724	0.05
255.097	0.08
255.471	0.04
255.844	0.09
256.218	0.05
256.591	0.09
256.964	0.06
257.338	0.06
257.711	0.06
258.084	0.11
258.458	0.12
258.831	0.14
259.204	0.08
259.577	0.08
259.95	0.09
260.323	0.04
260.697	0.13
261.07	0.11
261.443	0.11
261.816	0.11
262.189	0.1
262.562	0.09
262.935	0.12
263.308	0.05
263.68	-0.07
264.053	0.1
264.426	0.14
264.799	0.07
265.172	0.09
265.545	0.12
265.917	0.12
266.29	0.1
266.663	0.04
267.035	0.1
267.408	0.1
267.781	0.11
268.153	0.1
268.526	0.14
268.898	0.07
269.271	0.08
269.643	0.09
270.016	0.11
270.388	0.11
270.76	0.09
271.133	0.15
271.505	0.1
271.877	0.09
272.25	-0.02
272.622	0.11
272.994	0.06
273.366	0.21
273.739	0.12
274.111	0.05
274.483	0.06
274.855	0.06
275.227	0.1
275.599	0.04
275.971	0.1
276.343	0.11
276.715	0.1
277.087	0.1
277.459	0.09
277.831	0.05
278.203	0.1
278.574	0.14
278.946	0.11
279.318	0.09
279.69	0.15
280.061	0.16
280.433	0.14
280.805	0.08
281.176	0.04
281.548	0.08
281.92	0.08
282.291	0.05
282.663	0.07
283.034	0.09
283.406	0.11
283.777	0.06
284.148	0.06
284.52	0.07
284.891	0.08
285.262	0.06
285.634	0.14
286.005	0.1
286.376	0.08
286.747	0.07
287.119	0.1
287.49	0.03
287.861	0.08
288.232	0.18
288.603	0.05
288.974	0.01
289.345	0.04
289.716	0.04
290.087	0.02
290.458	0.08
290.829	0.05
291.2	0
291.571	0.02
291.941	0.08
292.312	0.06
292.683	0.05
293.054	0.06
293.424	0.05
293.795	0.11
294.166	0.03
294.536	0.08
294.907	0.06
295.277	0.11
295.648	0.06
296.018	0.12
296.389	0.08
296.759	0.07
297.13	0.12
297.5	0.08
297.871	0.08
298.241	0.04
298.611	0.05
298.981	0.07
299.352	0.02
299.722	0.07
300.092	0.05
300.462	0.04
300.832	0.03
301.202	0.03
301.573	0.04
301.943	0.04
302.313	0.03
302.683	0.04
303.053	0.06
303.422	0.05
303.792	0.04
304.162	0.05
304.532	0.04
304.902	0.05
305.272	0.03
305.641	0.05
306.011	0.05
306.381	0.04
306.75	0.04
307.12	0.05
307.49	0.04
307.859	0.05
308.229	0.04
308.598	0.05
308.968	0.04
309.337	0.05
309.707	0.05
310.076	0.05
310.445	0.05
310.815	0.05
311.184	0.06
311.553	0.05
311.923	0.05
312.292	0.05
312.661	0.06
313.03	0.06
313.399	0.06
313.768	0.06
314.137	0.05
314.506	0.05
314.875	0.05
315.244	0.05
315.613	0.05
315.982	0.05
316.351	0.05
316.72	0.06
317.089	0.05
317.458	0.06
317.826	0.05
318.195	0.05
318.564	0.05
318.933	0.05
319.301	0.05
319.67	0.05
320.038	0.04
320.407	0.05
320.775	0.05
321.144	0.05
321.512	0.05
321.881	0.05
322.249	0.05
322.618	0.05
322.986	0.04
323.354	0.05
323.723	0.05
324.091	0.04
324.459	0.04
324.827	0.04
325.195	0.04
325.564	0.05
325.932	0.05
326.3	0.04
326.668	0.04
327.036	0.04
327.404	0.04
327.772	0.05
328.14	0.05
328.508	0.04
328.875	0.04
329.243	0.04
329.611	0.04
329.979	0.04
330.346	0.04
330.714	0.04
331.082	0.04
331.449	0.04
331.817	0.04
332.185	0.04
332.552	0.04
332.92	0.04
333.287	0.05
333.655	0.04
334.022	0.04
334.389	0.05
334.757	0.04
335.124	0.05
335.491	0.05
335.859	0.05
336.226	0.05
336.593	0.05
336.96	0.05
337.327	0.05
337.695	0.05
338.062	0.05
338.429	0.05
338.796	0.05
339.163	0.05
339.53	0.05
339.897	0.05
340.263	0.06
340.63	0.06
340.997	0.05
341.364	0.06
341.731	0.06
342.097	0.06
342.464	0.06
342.831	0.06
343.197	0.06
343.564	0.07
343.931	0.06
344.297	0.07
344.664	0.07
345.03	0.07
345.396	0.07
345.763	0.07
346.129	0.07
346.496	0.07
346.862	0.07
347.228	0.07
347.594	0.07
347.961	0.08
348.327	0.08
348.693	0.08
349.059	0.08
349.425	0.08
349.791	0.08
350.157	0.09
350.523	0.08
350.889	0.09
351.255	0.09
351.621	0.09
351.987	0.1
352.353	0.09
352.719	0.09
353.084	0.1
353.45	0.1
353.816	0.1
354.181	0.1
354.547	0.11
354.913	0.11
355.278	0.11
355.644	0.11
356.009	0.11
356.375	0.12
356.74	0.12
357.106	0.12
357.471	0.12
357.836	0.13
358.202	0.13
358.567	0.14
358.932	0.14
359.297	0.14
359.663	0.14
360.028	0.14
360.393	0.14
360.758	0.15
361.123	0.15
361.488	0.15
361.853	0.16
362.218	0.15
362.583	0.15
362.948	0.16
363.312	0.16
363.677	0.16
364.042	0.17
364.407	0.18
364.772	0.17
365.136	0.17
365.501	0.18
365.865	0.18
366.23	0.19
366.595	0.19
366.959	0.2
367.324	0.2
367.688	0.21
368.052	0.21
368.417	0.21
368.781	0.21
369.145	0.22
369.51	0.22
369.874	0.22
370.238	0.22
370.602	0.22
370.967	0.22
371.331	0.23
371.695	0.22
372.059	0.22
372.423	0.22
372.787	0.22
373.151	0.22
373.515	0.22
373.878	0.22
374.242	0.22
374.606	0.22
374.97	0.22
375.334	0.22
375.697	0.22
376.061	0.22
376.425	0.23
376.788	0.23
377.152	0.23
377.515	0.23
377.879	0.23
378.242	0.23
378.606	0.24
378.969	0.24
379.333	0.24
379.696	0.25
380.059	0.25
380.422	0.26
380.786	0.26
381.149	0.27
381.512	0.27
381.875	0.28
382.238	0.28
382.601	0.29
382.964	0.3
383.327	0.31
383.69	0.32
384.053	0.32
384.416	0.34
384.779	0.34
385.142	0.35
385.504	0.35
385.867	0.36
386.23	0.37
386.593	0.37
386.955	0.37
387.318	0.37
387.68	0.37
388.043	0.37
388.405	0.37
388.768	0.36
389.13	0.36
389.493	0.36
389.855	0.36
390.217	0.36
390.58	0.35
390.942	0.35
391.304	0.36
391.666	0.36
392.028	0.37
392.391	0.38
392.753	0.39
393.115	0.39
393.477	0.42
393.839	0.43
394.201	0.44
394.563	0.47
394.924	0.48
395.286	0.5
395.648	0.53
396.01	0.54
396.371	0.55
396.733	0.56
397.095	0.58
397.456	0.58
397.818	0.58
398.18	0.58
398.541	0.57
398.903	0.56
399.264	0.54
399.625	0.52
399.987	0.51
400.348	0.48
400.709	0.46
401.071	0.43
401.432	0.41
401.793	0.38
402.154	0.36
402.515	0.33
402.876	0.31
403.238	0.29
403.599	0.27
403.96	0.25
404.32	0.23
404.681	0.21
405.042	0.2
405.403	0.18
405.764	0.17
406.125	0.16
406.485	0.15
406.846	0.14
407.207	0.13
407.567	0.12
407.928	0.12
408.288	0.11
408.649	0.1
409.009	0.1
409.37	0.1
409.73	0.09
410.091	0.08
410.451	0.08
410.811	0.08
411.171	0.08
411.532	0.07
411.892	0.07
412.252	0.07
412.612	0.07
412.972	0.06
413.332	0.06
413.692	0.05
414.052	0.05
414.412	0.05
414.772	0.05
415.132	0.05
415.492	0.05
415.851	0.05
416.211	0.05
416.571	0.05
416.931	0.04
417.29	0.04
417.65	0.04
418.009	0.04
418.369	0.04
418.728	0.04
419.088	0.04
419.447	0.04
419.807	0.04
420.166	0.04
420.525	0.04
420.884	0.03
421.244	0.04
421.603	0.03
421.962	0.04
422.321	0.04
422.68	0.04
423.039	0.03
423.398	0.04
423.757	0.03
424.116	0.04
424.475	0.04
424.834	0.03
425.193	0.04
425.551	0.03
425.91	0.03
426.269	0.03
426.628	0.03
426.986	0.03
427.345	0.03
427.703	0.03
428.062	0.03
428.42	0.03
428.779	0.03
429.137	0.03
429.496	0.03
429.854	0.03
430.212	0.02
430.57	0.03
430.929	0.03
431.287	0.03
431.645	0.02
432.003	0.03
432.361	0.03
432.719	0.02
433.077	0.03
433.435	0.02
433.793	0.03
434.151	0.02
434.509	0.02
434.866	0.03
435.224	0.03
435.582	0.02
435.94	0.02
436.297	0.02
436.655	0.02
437.012	0.02
437.37	0.03
437.727	0.02
438.085	0.02
438.442	0.02
438.8	0.02
439.157	0.02
439.514	0.02
439.872	0.03
440.229	0.03
440.586	0.02
440.943	0.01
441.3	0.03
441.657	0.03
442.014	0.02
442.371	0.02
442.728	0.02
443.085	0.02
443.442	0.02
443.799	0.01
444.156	0.02
444.513	0.01
444.869	0.02
445.226	0.02
445.583	0.02
445.939	0.02
446.296	0.02
446.652	0.03
447.009	0.02
447.365	0.02
447.722	0.02
448.078	0.01
448.434	0.01
448.791	0.01
449.147	0.03
449.503	0.01
449.859	0.01
450.215	0.02
450.571	0.02
450.928	0.01
451.284	0.01
451.64	0.01
451.995	0.01
452.351	0
452.707	0.01
453.063	0.01
453.419	0.01
453.775	0.01
454.13	0.01
454.486	0.02
454.842	0.01
455.197	0.01
455.553	0.01
455.908	0.01
456.264	0.01
456.619	0.01
456.975	0
457.33	0.01
457.685	0
458.04	0.01
458.396	-0
458.751	0
459.106	0
459.461	-0
459.816	0
460.171	-0
460.526	0.01
460.881	-0
461.236	-0.01
461.591	-0.01
461.946	-0.01
462.301	-0
462.655	-0.01
463.01	-0.01
463.365	-0.01
463.719	-0.01
464.074	-0.01
464.428	-0.01
464.783	-0.01
465.137	-0.02
465.492	-0.01
465.846	-0.01
466.201	-0.01
466.555	-0.01
466.909	-0.02
467.263	-0.01
467.618	-0.01
467.972	-0.01
468.326	-0.02
468.68	-0.02
469.034	-0.02
469.388	-0.01
469.742	-0.02
470.096	-0.01
470.45	-0.02
470.804	-0.02
471.157	-0.01
471.511	-0.01
471.865	-0.02
472.218	-0.02
472.572	-0.02
472.926	-0.02
473.279	-0.02
473.633	-0.01
473.986	-0.01
474.34	-0.02
474.693	-0.01
475.046	-0.01
475.4	-0.01
475.753	-0.01
476.106	-0
476.459	-0
476.812	0
477.165	0
477.519	-0
477.872	0
478.224	0.01
478.577	0.01
478.93	0
479.283	0.01
479.636	0.01
479.989	0.01
480.341	0.01
480.694	0.01
481.047	0.01
481.399	0.01
481.752	0.01
482.104	0.01
482.457	0.01
482.809	0.01
483.162	0.01
483.514	0.01
483.866	0.01
484.219	0.01
484.571	0.02
484.923	0.01
485.275	0.02
485.627	0.01
485.979	0.02
486.331	0.02
486.683	0.02
487.035	0.02
487.387	0.02
487.739	0.02
488.091	0.02
488.443	0.02
488.794	0.02
489.146	0.02
489.498	0.02
489.849	0.02
490.201	0.02
490.552	0.02
490.904	0.02
491.255	0.02
491.607	0.02
491.958	0.03
492.309	0.03
492.661	0.02
493.012	0.02
493.363	0.02
493.714	0.02
494.065	0.02
494.416	0.03
494.767	0.03
495.118	0.03
495.469	0.03
495.82	0.03
496.171	0.03
496.522	0.03
496.872	0.03
497.223	0.03
497.574	0.03
497.924	0.04
498.275	0.03
498.626	0.04
498.976	0.03
499.327	0.03
499.677	0.03
500.027	0.04
500.378	0.04
500.728	0.04
501.078	0.04
501.428	0.04
501.779	0.04
502.129	0.04
502.479	0.04
502.829	0.04
503.179	0.04
503.529	0.04
503.879	0.04
504.229	0.04
504.578	0.04
504.928	0.04
505.278	0.04
505.628	0.04
505.977	0.05
506.327	0.05
506.676	0.05
507.026	0.04
507.375	0.05
507.725	0.05
508.074	0.05
508.424	0.05
508.773	0.05
509.122	0.05
509.471	0.05
509.82	0.05
510.17	0.05
510.519	0.05
510.868	0.05
511.217	0.05
511.566	0.05
511.915	0.05
512.263	0.06
512.612	0.05
512.961	0.05
513.31	0.05
513.659	0.06
514.007	0.05
514.356	0.06
514.704	0.06
515.053	0.06
515.401	0.06
515.75	0.06
516.098	0.06
516.447	0.06
516.795	0.06
517.143	0.06
517.491	0.06
517.839	0.07
518.188	0.06
518.536	0.06
518.884	0.06
519.232	0.06
519.58	0.06
519.928	0.07
520.275	0.07
520.623	0.07
520.971	0.07
521.319	0.07
521.666	0.07
522.014	0.07
522.362	0.07
522.709	0.07
523.057	0.07
523.404	0.07
523.752	0.07
524.099	0.07
524.446	0.07
524.794	0.08
525.141	0.08
525.488	0.07
525.835	0.07
526.182	0.08
526.529	0.08
526.876	0.08
527.223	0.08
527.57	0.08
527.917	0.08
528.264	0.08
528.611	0.08
528.958	0.08
529.304	0.08
529.651	0.08
529.998	0.08
530.344	0.08
530.691	0.09
531.037	0.09
531.384	0.09
531.73	0.08
532.076	0.09
532.423	0.09
532.769	0.09
533.115	0.09
533.461	0.08
533.807	0.09
534.154	0.08
534.5	0.09
534.846	0.09
535.192	0.09
535.537	0.09
535.883	0.09
536.229	0.1
536.575	0.09
536.921	0.1
537.266	0.09
537.612	0.1
537.957	0.1
538.303	0.1
538.649	0.1
538.994	0.1
539.339	0.1
539.685	0.11
540.03	0.1
540.375	0.11
540.721	0.11
541.066	0.11
541.411	0.11
541.756	0.11
542.101	0.11
542.446	0.11
542.791	0.11
543.136	0.11
543.481	0.11
543.825	0.11
544.17	0.11
544.515	0.11
544.86	0.11
545.204	0.11
545.549	0.11
545.893	0.11
546.238	0.12
546.582	0.12
546.927	0.12
547.271	0.12
547.615	0.12
547.96	0.12
548.304	0.12
548.648	0.12
548.992	0.12
549.336	0.12
549.68	0.12
550.024	0.13
550.368	0.13
550.712	0.13
551.056	0.13
551.4	0.13
551.743	0.13
552.087	0.13
552.431	0.13
552.774	0.13
553.118	0.13
553.462	0.13
553.805	0.13
554.148	0.13
554.492	0.14
554.835	0.14
555.178	0.14
555.522	0.14
555.865	0.13
556.208	0.14
556.551	0.14
556.894	0.14
557.237	0.14
557.58	0.14
557.923	0.14
558.266	0.13
558.609	0.14
558.952	0.14
559.294	0.14
559.637	0.14
559.98	0.14
560.322	0.14
560.665	0.14
561.007	0.14
561.35	0.14
561.692	0.14
562.034	0.14
562.377	0.14
562.719	0.14
563.061	0.14
563.403	0.14
563.745	0.14
564.088	0.14
564.43	0.15
564.772	0.14
565.113	0.15
565.455	0.14
565.797	0.15
566.139	0.14
566.481	0.14
566.822	0.14
567.164	0.15
567.506	0.14
567.847	0.15
568.189	0.15
568.53	0.15
568.872	0.14
569.213	0.15
569.554	0.15
569.895	0.14
570.237	0.15
570.578	0.14
570.919	0.14
571.26	0.14
571.601	0.15
571.942	0.15
572.283	0.14
572.624	0.14
572.965	0.14
573.306	0.14
573.646	0.15
573.987	0.15
574.328	0.15
574.668	0.15
575.009	0.15
575.349	0.15
575.69	0.14
576.03	0.14
576.37	0.14
576.711	0.14
577.051	0.14
577.391	0.14
577.731	0.15
578.072	0.14
578.412	0.14
578.752	0.14
579.092	0.14
579.431	0.14
579.771	0.14
580.111	0.13
580.451	0.13
580.791	0.14
581.13	0.14
581.47	0.15
581.81	0.14
582.149	0.14
582.489	0.15
582.828	0.14
583.167	0.14
583.507	0.12
583.846	0.1
584.185	0.12
584.525	0.13
584.864	0.14
585.203	0.15
585.542	0.15
585.881	0.15
586.22	0.15
586.559	0.15
586.898	0.15
587.236	0.14
587.575	0.14
587.914	0.14
588.252	0.15
588.591	0.15
588.93	0.15
589.268	0.15
589.607	0.15
589.945	0.15
590.283	0.15
590.622	0.16
590.96	0.16
591.298	0.16
591.636	0.16
591.974	0.16
592.313	0.16
592.651	0.16
592.989	0.16
593.326	0.17
593.664	0.17
594.002	0.17
594.34	0.17
594.678	0.17
595.015	0.16
595.353	0.16
595.691	0.16
596.028	0.17
596.366	0.17
596.703	0.17
597.04	0.17
597.378	0.17
597.715	0.17
598.052	0.18
598.389	0.18
598.726	0.18
599.064	0.18
599.401	0.18
599.738	0.18
600.074	0.18
600.411	0.18
600.748	0.18
601.085	0.18
601.422	0.17
601.758	0.17
602.095	0.17
602.432	0.17
602.768	0.17
603.105	0.18
603.441	0.18
603.777	0.18
604.114	0.18
604.45	0.18
604.786	0.18
605.122	0.18
605.459	0.18
605.795	0.18
606.131	0.18
606.467	0.18
606.803	0.18
607.139	0.18
607.474	0.17
607.81	0.17
608.146	0.18
608.482	0.18
608.817	0.17
609.153	0.18
609.488	0.17
609.824	0.17
610.159	0.17
610.495	0.17
610.83	0.18
611.165	0.18
611.5	0.17
611.836	0.18
612.171	0.18
612.506	0.18
612.841	0.17
613.176	0.17
613.511	0.17
613.845	0.17
614.18	0.17
614.515	0.17
614.85	0.17
615.184	0.17
615.519	0.17
615.854	0.17
616.188	0.17
616.523	0.17
616.857	0.17
617.191	0.17
617.526	0.17
617.86	0.17
618.194	0.17
618.528	0.17
618.862	0.17
619.196	0.17
619.53	0.17
619.864	0.17
620.198	0.17
620.532	0.17
620.866	0.17
621.2	0.17
621.533	0.17
621.867	0.17
622.201	0.17
622.534	0.17
622.868	0.17
623.201	0.17
623.534	0.16
623.868	0.16
624.201	0.16
624.534	0.16
624.868	0.16
625.201	0.16
625.534	0.17
625.867	0.16
626.2	0.16
626.533	0.16
626.865	0.16
627.198	0.16
627.531	0.16
627.864	0.16
628.196	0.16
628.529	0.16
628.862	0.16
629.194	0.16
629.527	0.15
629.859	0.15
630.191	0.15
630.524	0.15
630.856	0.15
631.188	0.15
631.52	0.15
631.852	0.14
632.184	0.15
632.516	0.14
632.848	0.15
633.18	0.14
633.512	0.14
633.844	0.14
634.175	0.14
634.507	0.14
634.839	0.14
635.17	0.13
635.502	0.14
635.833	0.14
636.165	0.14
636.496	0.13
636.827	0.14
637.159	0.14
637.49	0.14
637.821	0.13
638.152	0.13
638.483	0.13
638.814	0.13
639.145	0.13
639.476	0.13
639.807	0.13
640.137	0.13
640.468	0.12
640.799	0.12
641.129	0.13
641.46	0.13
641.791	0.13
642.121	0.13
642.451	0.12
642.782	0.12
643.112	0.12
643.442	0.12
643.773	0.12
644.103	0.12
644.433	0.11
644.763	0.11
645.093	0.12
645.423	0.11
645.753	0.11
646.082	0.11
646.412	0.11
646.742	0.11
647.072	0.11
647.401	0.11
647.731	0.11
648.06	0.11
648.39	0.11
648.719	0.11
649.048	0.11
649.378	0.11
649.707	0.11
650.036	0.11
650.365	0.11
650.694	0.1
651.023	0.11
651.352	0.11
651.681	0.11
652.01	0.11
652.339	0.11
652.668	0.11
652.996	0.11
653.325	0.11
653.654	0.11
653.982	0.11
654.311	0.11
654.639	0.11
654.967	0.11
655.296	0.11
655.624	0.1
655.952	0.1
656.28	0.1
656.609	0.1
656.937	0.11
657.265	0.11
657.593	0.09
657.92	0
658.248	-0
658.576	0
658.904	0
659.231	0.05
659.559	0.09
659.887	0.1
660.214	0.1
660.542	0.1
660.869	0.1
661.196	0.1
661.524	0.1
661.851	0.1
662.178	0.1
662.505	0.1
662.832	0.1
663.159	0.1
663.486	0.1
663.813	0.11
664.14	0.11
664.467	0.11
664.794	0.11
665.12	0.11
665.447	0.11
665.774	0.11
666.1	0.11
666.427	0.1
666.753	0.1
667.079	0.1
667.406	0.1
667.732	0.1
668.058	0.1
668.384	0.1
668.71	0.1
669.036	0.1
669.362	0.1
669.688	0.1
670.014	0.1
670.34	0.1
670.666	0.1
670.991	0.1
671.317	0.1
671.643	0.1
671.968	0.1
672.294	0.1
672.619	0.1
672.945	0.09
673.27	0.09
673.595	0.09
673.92	0.09
674.246	0.09
674.571	0.09
674.896	0.09
675.221	0.09
675.546	0.1
675.87	0.09
676.195	0.09
676.52	0.1
676.845	0.09
677.169	0.09
677.494	0.09
677.819	0.09
678.143	0.09
678.468	0.09
678.792	0.09
679.116	0.09
679.44	0.09
679.765	0.09
680.089	0.08
680.413	0.08
680.737	0.08
681.061	0.08
681.385	0.08
681.709	0.08
682.033	0.08
682.356	0.08
682.68	0.07
683.004	0.08
683.327	0.08
683.651	0.07
683.974	0.07
684.298	0.07
684.621	0.07
684.944	0.07
685.268	0.07
685.591	0.07
685.914	0.07
686.237	0.07
686.56	0.07
686.883	0.07
687.206	0.07
687.529	0.07
687.852	0.07
688.175	0.07
688.497	0.07
688.82	0.07
689.142	0.07
689.465	0.06
689.787	0.06
690.11	0.06
690.432	0.06
690.755	0.06
691.077	0.06
691.399	0.06
691.721	0.06
692.043	0.06
692.365	0.06
692.687	0.06
693.009	0.06
693.331	0.06
693.653	0.06
693.974	0.05
694.296	0.06
694.618	0.05
694.939	0.05
695.261	0.05
695.582	0.05
695.904	0.05
696.225	0.05
696.546	0.05
696.868	0.05
697.189	0.05
697.51	0.05
697.831	0.05
698.152	0.05
698.473	0.05
698.794	0.05
699.114	0.05
699.435	0.05
699.756	0.05
700.077	0.05
700.397	0.05
700.718	0.05
701.038	0.05
701.359	0.05
701.679	0.05
701.999	0.06
702.32	0.06
702.64	0.05
702.96	0.05
703.28	0.05
703.6	0.04
703.92	0.04
704.24	0.04
704.56	0.04
704.879	0.04
705.199	0.04
705.519	0.04
705.838	0.04
706.158	0.04
706.478	0.04
706.797	0.04
707.116	0.04
707.436	0.04
707.755	0.04
708.074	0.04
708.393	0.04
708.712	0.04
709.031	0.04
709.35	0.04
709.669	0.04
709.988	0.04
710.307	0.04
710.626	0.04
710.944	0.04
711.263	0.04
711.582	0.04
711.9	0.04
712.219	0.04
712.537	0.04
712.855	0.04
713.174	0.04
713.492	0.04
713.81	0.04
714.128	0.04
714.446	0.04
714.764	0.04
715.082	0.04
715.4	0.04
715.718	0.04
716.035	0.04
716.353	0.04
716.671	0.04
716.988	0.04
717.306	0.04
717.623	0.04
717.941	0.05
718.258	0.05
718.575	0.05
718.893	0.05
719.21	0.04
719.527	0.05
719.844	0.05
720.161	0.05
720.478	0.05
720.795	0.05
721.112	0.05
721.428	0.05
721.745	0.05
722.062	0.05
722.378	0.05
722.695	0.05
723.011	0.05
723.328	0.05
723.644	0.05
723.96	0.05
724.276	0.05
724.593	0.05
724.909	0.05
725.225	0.05
725.541	0.05
725.857	0.05
726.173	0.05
726.488	0.05
726.804	0.05
727.12	0.05
727.435	0.05
727.751	0.05
728.067	0.05
728.382	0.05
728.697	0.05
729.013	0.05
729.328	0.05
729.643	0.05
729.958	0.05
730.273	0.05
730.588	0.05
730.903	0.05
731.218	0.05
731.533	0.05
731.848	0.05
732.163	0.04
732.477	0.04
732.792	0.04
733.107	0.04
733.421	0.04
733.736	0.04
734.05	0.04
734.364	0.04
734.678	0.04
734.993	0.05
735.307	0.05
735.621	0.04
735.935	0.05
736.249	0.05
736.563	0.05
736.877	0.05
737.19	0.05
737.504	0.05
737.818	0.05
738.131	0.04
738.445	0.04
738.758	0.04
739.072	0.04
739.385	0.04
739.698	0.04
740.012	0.04
740.325	0.04
740.638	0.04
740.951	0.04
741.264	0.04
741.577	0.04
741.89	0.04
742.203	0.04
742.515	0.05
742.828	0.05
743.141	0.04
743.453	0.04
743.766	0.04
744.078	0.04
744.391	0.04
744.703	0.04
745.015	0.04
745.327	0.04
745.639	0.04
745.952	0.03
746.264	0.04
746.575	0.03
746.887	0.04
747.199	0.04
747.511	0.04
747.823	0.04
748.134	0.04
748.446	0.04
748.757	0.04
749.069	0.04
749.38	0.04
749.692	0.04
750.003	0.04
750.314	0.04
750.625	0.04
750.936	0.05
751.248	0.04
751.559	0.04
751.869	0.05
752.18	0.05
752.491	0.04
752.802	0.04
753.112	0.04
753.423	0.04
753.734	0.04
754.044	0.03
754.355	0.03
754.665	0.03
754.975	0.03
755.285	0.03
755.596	0.03
755.906	0.03
756.216	0.03
756.526	0.03
756.836	0.03
757.146	0.03
757.455	0.03
757.765	0.03
758.075	0.03
758.385	0.03
758.694	0.03
759.004	0.03
759.313	0.03
759.622	0.03
759.932	0.03
760.241	0.03
760.55	0.03
760.859	0.03
761.168	0.03
761.477	0.03
761.786	0.03
762.095	0.03
762.404	0.03
762.713	0.03
763.021	0.03
763.33	0.03
763.639	0.03
763.947	0.03
764.256	0.03
764.564	0.03
764.872	0.03
765.181	0.03
765.489	0.03
765.797	0.03
766.105	0.03
766.413	0.03
766.721	0.02
767.029	0.03
767.337	0.03
767.644	0.03
767.952	0.03
768.26	0.03
768.567	0.03
768.875	0.03
769.182	0.03
769.49	0.03
769.797	0.03
770.104	0.03
770.411	0.03
770.718	0.03
771.026	0.03
771.333	0.03
771.639	0.02
771.946	0.02
772.253	0.02
772.56	0.02
772.867	0.02
773.173	0.02
773.48	0.03
773.786	0.02
774.093	0.02
774.399	0.02
774.705	0.02
775.012	0.02
775.318	0.02
775.624	0.02
775.93	0.02
776.236	0.02
776.542	0.02
776.848	0.02
777.154	0.02
777.459	0.02
777.765	0.02
778.071	0.02
778.376	0.03
778.682	0.02
778.987	0.03
779.292	0.02
779.598	0.02
779.903	0.03
780.208	0.03
780.513	0.03
780.818	0.03
781.123	0.02
781.428	0.02
781.733	0.02
782.038	0.03
782.343	0.03
782.647	0.03
782.952	0.04
783.256	0.03
783.561	0.03
783.865	0.03
784.17	0.03
784.474	0.03
784.778	0.03
785.082	0.03
785.386	0.03
785.69	0.02
785.994	0.03
786.298	0.03
786.602	0.03
786.906	0.03
787.209	0.03
787.513	0.03
787.817	0.03
788.12	0.02
788.424	0.02
788.727	0.03
789.03	0.03
789.333	0.03
789.637	0.03
789.94	0.03
790.243	0.03
790.546	0.03
790.849	0.02
791.152	0.02
791.454	0.02
791.757	0.02
792.06	0.02
792.362	0.02
792.665	0.02
792.967	0.02
793.27	0.02
793.572	0.02
793.874	0.03
794.177	0.03
794.479	0.03
794.781	0.03
795.083	0.03
795.385	0.03
795.687	0.02
795.989	0.03
796.29	0.03
796.592	0.03
796.894	0.03
797.195	0.03
797.497	0.03
797.798	0.03
798.1	0.03
798.401	0.03
798.702	0.03
799.003	0.03
799.304	0.03
799.605	0.03
799.906	0.03
800.207	0.03
800.508	0.02
800.809	0.03
801.11	0.03
801.41	0.03
801.711	0.03
802.011	0.03
802.312	0.03
802.612	0.03
802.913	0.04
803.213	0.03
803.513	0.03
803.813	0.03
804.113	0.03
804.413	0.03
804.713	0.03
805.013	0.03
805.313	0.03
805.613	0.03
805.912	0.03
806.212	0.03
806.511	0.02
806.811	0.03
807.11	0.02
807.41	0.03
807.709	0.02
808.008	0.02
808.307	0.02
808.606	0.02
808.905	0.02
809.204	0.03
809.503	0.03
809.802	0.03
810.101	0.03
810.399	0.04
810.698	0.03
810.997	0.04
811.295	0.03
811.593	0.04
811.892	0.04
812.19	0.04
812.488	0.03
812.786	0.03
813.084	0.03
813.383	0.03
813.68	0.04
813.978	0.04
814.276	0.04
814.574	0.04
814.872	0.04
815.169	0.04
815.467	0.04
815.764	0.04
816.062	0.04
816.359	0.03
816.656	0.04
816.954	0.04
817.251	0.03
817.548	0.04
817.845	0.04
818.142	0.04
818.439	0.04
818.735	0.03
819.032	0.04
819.329	0.04
819.626	0.04
819.922	0.04
820.219	0.04
820.515	0.04
820.811	0.04
821.108	0.04
821.404	0.03
821.7	0.03
821.996	0.03
822.292	0.03
822.588	0.04
822.884	0.03
823.18	0.03
823.475	0.03
823.771	0.03
824.067	0.03
824.362	0.03
824.658	0.03
824.953	0.03
825.249	0.03
825.544	0.04
825.839	0.04
826.134	0.04
826.429	0.03
826.724	0.03
827.019	0.04
827.314	0.04
827.609	0.04
827.904	0.03
828.198	0.04
828.493	0.04
828.787	0.03
829.082	0.03
829.376	0.03
829.671	0.04
829.965	0.03
830.259	0.04
830.553	0.04
830.847	0.03
831.141	0.03
831.435	0.03
831.729	0.03
832.023	0.04
832.317	0.04
832.61	0.04
832.904	0.04
833.197	0.04
833.491	0.04
833.784	0.04
834.077	0.04
834.371	0.04
834.664	0.04
834.957	0.05
835.25	0.04
835.543	0.04
835.836	0.04
836.129	0.04
836.421	0.03
836.714	0.05
837.007	0.04
837.299	0.03
837.592	0.04
837.884	0.04
838.177	0.03
838.469	0.04
838.761	0.03
839.053	0.03
839.345	0.04
839.637	0.03
839.929	0.03
840.221	0.03
840.513	0.04
840.805	0.02
841.096	0.03
841.388	0.04
841.68	0.03
841.971	0.03
842.262	0.03
842.554	0.03
842.845	0.03
843.136	0.03
843.427	0.03
843.718	0.04
844.009	0.04
844.3	0.04
844.591	0.04
844.882	0.04
845.173	0.03
845.463	0.04
845.754	0.04
846.044	0.04
846.335	0.05
846.625	0.05
846.915	0.04
847.206	0.04
847.496	0.04
847.786	0.04
848.076	0.06
848.366	0.05
848.656	0.04
848.945	0.05
849.235	0.04
849.525	0.04
849.814	0.05
850.104	0.05
850.393	0.03
850.683	0.04
850.972	0.04
851.261	0.04
851.551	0.05
851.84	0.04
852.129	0.04
852.418	0.04
852.707	0.04
852.995	0.05
853.284	0.04
853.573	0.05
853.862	0.05
854.15	0.05
854.439	0.04
854.727	0.05
855.015	0.05
855.304	0.04
855.592	0.03
855.88	0.03
856.168	0.04
856.456	0.03
856.744	0.03
857.032	0.04
857.32	0.05
857.607	0.05
857.895	0.03
858.183	0.05
858.47	0.03
858.757	0.04
859.045	0.06
859.332	0.03
859.619	0.03
859.907	0.04
860.194	0.04
860.481	0.04
860.768	0.03
861.054	0.04
861.341	0.04
861.628	0.04
861.915	0.04
862.201	0.03
862.488	0.04
862.774	0.04
863.061	0.03
863.347	0.02
863.633	0.06
863.919	0.06
864.205	0.03
864.491	0.02
864.777	0.03
865.063	0.03
865.349	0.04
865.635	0.01
865.92	0.02
866.206	0.04
866.492	0.03
866.777	0.04
867.062	0.03
867.348	0.05
867.633	0.05
867.918	0.03
868.203	0.05
868.488	0.03
868.773	-0
869.058	0.02
869.343	0.01
869.628	0.05
869.912	-0.01
870.197	0.01
870.482	0.01
870.766	0.02
871.05	0.02
871.335	0.01
871.619	0.01
871.903	0.04
872.187	0.05
872.471	0.02
872.755	0.07
873.039	0
873.323	0.04
873.607	0.02
873.89	0.05
874.174	0.06
874.458	0.03
874.741	0.02
875.024	0.02
875.308	-0.03
875.591	-0.03
875.874	-0.03
876.157	-0.05
876.44	0.05
876.723	0.06
877.006	0.05
877.289	0
877.572	0.06
877.854	-0
878.137	0.01
878.42	0.01
878.702	-0.06
878.984	0.01
879.267	0
879.549	0.06
879.831	0
880.113	0.1
880.395	-0.08
880.677	0.03
880.959	-0.02
