Data from Rubpy_EV_600_EDTA_Buffered_Absorbance_13-13-32-155.txt Node
Date: Tue Jun 30 13:13:32 BST 2026
User: fpm-admin
Spectrometer: OFX00224
Trigger mode: 0
Integration Time (sec): 7.000000E-2
Scans to average: 3
Nonlinearity correction enabled: false
Boxcar width: 0
Storing dark spectrum: false
XAxis mode: Wavelengths
Number of Pixels in Spectrum: 2136
>>>>>Begin Spectral Data<<<<<
154.91	-0.73
155.289	-0.03
155.669	0.2
156.048	-0.39
156.428	-0
156.807	-0
157.186	0.36
157.566	-0
157.945	-0
158.325	1
158.704	-0
159.083	-0.5
159.462	-0.65
159.842	0.7
160.221	-0
160.6	-0
160.979	0.49
161.359	-0
161.738	-0
162.117	-0.68
162.496	0.53
162.875	-0
163.254	-0.28
163.633	-0.78
164.012	-0
164.391	0.2
164.77	-0
165.149	-0
165.528	-0.18
165.907	-0
166.286	-0.09
166.665	-0.19
167.044	-0
167.423	0.36
167.802	-0.29
168.181	-0
168.559	-0.68
168.938	-0
169.317	-0.2
169.696	-0.67
170.074	-0
170.453	-0.18
170.832	-0
171.21	-0
171.589	0.47
171.968	-0
172.346	-0
172.725	1.28
173.103	0.95
173.482	-0
173.861	-0.37
174.239	0.59
174.617	-0
174.996	-0
175.374	-0
175.753	-1.24
176.131	-0
176.51	-0.34
176.888	1.36
177.266	-0
177.645	0.01
178.023	-0
178.401	-0.18
178.779	-0.1
179.158	0.03
179.536	-0
179.914	0.45
180.292	-0
180.67	-0
181.048	-0
181.427	-1.23
181.805	0.36
182.183	-0
182.561	-0
182.939	0.47
183.317	0.2
183.695	0.95
184.073	0.1
184.451	-0
184.829	-1.06
185.206	-0
185.584	-0.2
185.962	0.48
186.34	-0
186.718	-0.24
187.096	0.43
187.473	-0.06
187.851	0.25
188.229	0.08
188.607	0.08
188.984	0.28
189.362	0.16
189.74	0.33
190.117	0.22
190.495	0.2
190.872	0.17
191.25	0.25
191.627	0.14
192.005	0.26
192.382	0.26
192.76	0.23
193.137	0.38
193.515	0.24
193.892	0.31
194.269	0.04
194.647	0.27
195.024	0.22
195.401	0.32
195.779	0.35
196.156	0.11
196.533	0.2
196.91	0.26
197.288	0.18
197.665	0.17
198.042	0.12
198.419	0.2
198.796	0.18
199.173	0.17
199.55	0.12
199.927	0.21
200.304	0.17
200.681	0.18
201.058	0.18
201.435	0.32
201.812	0.2
202.189	0.24
202.566	0.24
202.943	0.1
203.32	0.32
203.697	0.35
204.073	0.05
204.45	0.16
204.827	0.19
205.204	0.19
205.58	0.23
205.957	0.26
206.334	0.21
206.71	0.19
207.087	0.38
207.464	0.16
207.84	0.29
208.217	0.11
208.593	0.34
208.97	0.2
209.346	0.18
209.723	0.33
210.099	0.24
210.476	0.19
210.852	0.27
211.228	0.18
211.605	0.14
211.981	0.27
212.357	0.14
212.733	0.28
213.11	0.21
213.486	0.17
213.862	0.34
214.238	0.33
214.614	0.2
214.991	0.19
215.367	0.49
215.743	0.14
216.119	0.24
216.495	0.19
216.871	0.21
217.247	0.24
217.623	0.22
217.999	0.19
218.375	0.22
218.751	0.17
219.127	0.17
219.502	0.21
219.878	0.19
220.254	0.2
220.63	0.27
221.006	0.22
221.381	0.17
221.757	0.28
222.133	0.21
222.508	0.13
222.884	0.19
223.26	0.2
223.635	0.15
224.011	0.16
224.386	0.22
224.762	0.13
225.137	0.13
225.513	0.1
225.888	0.09
226.264	0.27
226.639	0.23
227.014	0.26
227.39	0.21
227.765	0.23
228.14	0.16
228.516	0.21
228.891	0.23
229.266	0.2
229.641	0.21
230.017	0.23
230.392	0.21
230.767	0.18
231.142	0.19
231.517	0.19
231.892	0.26
232.267	0.26
232.642	0.26
233.017	0.18
233.392	0.2
233.767	0.2
234.142	0.17
234.517	0.13
234.892	0.1
235.267	0.21
235.641	0.24
236.016	0.29
236.391	0.18
236.766	0.15
237.14	0.12
237.515	0.22
237.89	0.21
238.264	0.15
238.639	0.23
239.014	0.12
239.388	0.11
239.763	0.21
240.137	0.24
240.512	0.2
240.886	0.21
241.261	0.23
241.635	0.17
242.009	0.22
242.384	0.18
242.758	0.22
243.132	0.21
243.507	0.23
243.881	0.18
244.255	0.19
244.629	0.24
245.004	0.21
245.378	0.19
245.752	0.2
246.126	0.15
246.5	0.16
246.874	0.19
247.248	0.21
247.622	0.19
247.996	0.16
248.37	0.29
248.744	0.13
249.118	0.2
249.492	0.27
249.866	0.2
250.24	0.13
250.613	0.22
250.987	0.16
251.361	0.19
251.735	0.19
252.108	0.15
252.482	0.23
252.856	0.29
253.229	0.16
253.603	0.11
253.977	0.24
254.35	0.13
254.724	0.18
255.097	0.1
255.471	0.31
255.844	0.16
256.218	0.18
256.591	0.22
256.964	0.15
257.338	0.18
257.711	0.23
258.084	0.16
258.458	0.16
258.831	0.2
259.204	0.17
259.577	0.19
259.95	0.21
260.323	0.12
260.697	0.18
261.07	0.21
261.443	0.15
261.816	0.22
262.189	0.34
262.562	0.21
262.935	0.37
263.308	0.15
263.68	0.15
264.053	0.21
264.426	0.17
264.799	0.17
265.172	0.24
265.545	0.16
265.917	0.27
266.29	0.22
266.663	0.22
267.035	0.22
267.408	0.17
267.781	0.21
268.153	0.23
268.526	0.25
268.898	0.22
269.271	0.27
269.643	0.17
270.016	0.2
270.388	0.16
270.76	0.24
271.133	0.23
271.505	0.16
271.877	0.15
272.25	0.24
272.622	0.22
272.994	0.24
273.366	0.27
273.739	0.25
274.111	0.18
274.483	0.18
274.855	0.18
275.227	0.27
275.599	0.11
275.971	0.17
276.343	0.18
276.715	0.15
277.087	0.26
277.459	0.23
277.831	0.18
278.203	0.23
278.574	0.33
278.946	0.17
279.318	0.25
279.69	0.22
280.061	0.22
280.433	0.24
280.805	0.26
281.176	0.11
281.548	0.19
281.92	0.18
282.291	0.13
282.663	0.23
283.034	0.14
283.406	0.22
283.777	0.19
284.148	0.2
284.52	0.16
284.891	0.2
285.262	0.19
285.634	0.23
286.005	0.17
286.376	0.12
286.747	0.22
287.119	0.2
287.49	0.17
287.861	0.24
288.232	0.26
288.603	0.18
288.974	0.03
289.345	0.15
289.716	0.14
290.087	0.16
290.458	0.18
290.829	0.16
291.2	0.11
291.571	0.13
291.941	0.18
292.312	0.2
292.683	0.19
293.054	0.2
293.424	0.18
293.795	0.18
294.166	0.15
294.536	0.17
294.907	0.17
295.277	0.18
295.648	0.13
296.018	0.15
296.389	0.16
296.759	0.13
297.13	0.15
297.5	0.17
297.871	0.18
298.241	0.14
298.611	0.12
298.981	0.16
299.352	0.14
299.722	0.15
300.092	0.13
300.462	0.12
300.832	0.14
301.202	0.12
301.573	0.09
301.943	0.15
302.313	0.09
302.683	0.12
303.053	0.11
303.422	0.11
303.792	0.1
304.162	0.11
304.532	0.11
304.902	0.11
305.272	0.1
305.641	0.11
306.011	0.11
306.381	0.12
306.75	0.11
307.12	0.12
307.49	0.12
307.859	0.13
308.229	0.12
308.598	0.12
308.968	0.12
309.337	0.12
309.707	0.13
310.076	0.12
310.445	0.13
310.815	0.13
311.184	0.14
311.553	0.14
311.923	0.14
312.292	0.13
312.661	0.14
313.03	0.14
313.399	0.14
313.768	0.15
314.137	0.13
314.506	0.14
314.875	0.14
315.244	0.14
315.613	0.14
315.982	0.13
316.351	0.13
316.72	0.13
317.089	0.13
317.458	0.14
317.826	0.13
318.195	0.12
318.564	0.13
318.933	0.13
319.301	0.13
319.67	0.13
320.038	0.12
320.407	0.13
320.775	0.12
321.144	0.12
321.512	0.12
321.881	0.12
322.249	0.12
322.618	0.12
322.986	0.12
323.354	0.12
323.723	0.11
324.091	0.11
324.459	0.11
324.827	0.12
325.195	0.11
325.564	0.11
325.932	0.12
326.3	0.11
326.668	0.11
327.036	0.11
327.404	0.11
327.772	0.11
328.14	0.11
328.508	0.11
328.875	0.11
329.243	0.11
329.611	0.1
329.979	0.11
330.346	0.11
330.714	0.11
331.082	0.11
331.449	0.11
331.817	0.11
332.185	0.12
332.552	0.11
332.92	0.11
333.287	0.12
333.655	0.11
334.022	0.12
334.389	0.12
334.757	0.12
335.124	0.12
335.491	0.12
335.859	0.12
336.226	0.12
336.593	0.13
336.96	0.13
337.327	0.13
337.695	0.13
338.062	0.13
338.429	0.13
338.796	0.14
339.163	0.14
339.53	0.14
339.897	0.14
340.263	0.15
340.63	0.15
340.997	0.15
341.364	0.15
341.731	0.16
342.097	0.16
342.464	0.16
342.831	0.16
343.197	0.17
343.564	0.17
343.931	0.17
344.297	0.17
344.664	0.17
345.03	0.18
345.396	0.18
345.763	0.18
346.129	0.19
346.496	0.19
346.862	0.19
347.228	0.19
347.594	0.2
347.961	0.2
348.327	0.2
348.693	0.2
349.059	0.2
349.425	0.21
349.791	0.22
350.157	0.22
350.523	0.22
350.889	0.23
351.255	0.23
351.621	0.24
351.987	0.24
352.353	0.25
352.719	0.25
353.084	0.26
353.45	0.26
353.816	0.26
354.181	0.27
354.547	0.28
354.913	0.28
355.278	0.29
355.644	0.29
356.009	0.29
356.375	0.31
356.74	0.32
357.106	0.32
357.471	0.32
357.836	0.34
358.202	0.35
358.567	0.35
358.932	0.35
359.297	0.36
359.663	0.37
360.028	0.37
360.393	0.37
360.758	0.38
361.123	0.38
361.488	0.39
361.853	0.4
362.218	0.4
362.583	0.4
362.948	0.41
363.312	0.41
363.677	0.42
364.042	0.43
364.407	0.43
364.772	0.44
365.136	0.45
365.501	0.46
365.865	0.47
366.23	0.48
366.595	0.5
366.959	0.5
367.324	0.51
367.688	0.52
368.052	0.53
368.417	0.54
368.781	0.55
369.145	0.55
369.51	0.56
369.874	0.56
370.238	0.56
370.602	0.56
370.967	0.56
371.331	0.56
371.695	0.55
372.059	0.56
372.423	0.56
372.787	0.55
373.151	0.55
373.515	0.55
373.878	0.55
374.242	0.55
374.606	0.55
374.97	0.55
375.334	0.55
375.697	0.55
376.061	0.55
376.425	0.56
376.788	0.56
377.152	0.56
377.515	0.57
377.879	0.57
378.242	0.58
378.606	0.59
378.969	0.6
379.333	0.6
379.696	0.61
380.059	0.62
380.422	0.63
380.786	0.64
381.149	0.66
381.512	0.66
381.875	0.68
382.238	0.7
382.601	0.71
382.964	0.73
383.327	0.75
383.69	0.77
384.053	0.79
384.416	0.82
384.779	0.83
385.142	0.86
385.504	0.86
385.867	0.87
386.23	0.89
386.593	0.89
386.955	0.9
387.318	0.89
387.68	0.9
388.043	0.9
388.405	0.89
388.768	0.88
389.13	0.87
389.493	0.87
389.855	0.87
390.217	0.86
390.58	0.86
390.942	0.86
391.304	0.86
391.666	0.87
392.028	0.89
392.391	0.91
392.753	0.92
393.115	0.96
393.477	0.99
393.839	1.03
394.201	1.06
394.563	1.11
394.924	1.15
395.286	1.2
395.648	1.24
396.01	1.28
396.371	1.29
396.733	1.31
397.095	1.35
397.456	1.35
397.818	1.36
398.18	1.34
398.541	1.34
398.903	1.31
399.264	1.28
399.625	1.25
399.987	1.19
400.348	1.15
400.709	1.1
401.071	1.04
401.432	0.97
401.793	0.92
402.154	0.87
402.515	0.81
402.876	0.74
403.238	0.69
403.599	0.65
403.96	0.6
404.32	0.56
404.681	0.52
405.042	0.48
405.403	0.45
405.764	0.42
406.125	0.39
406.485	0.36
406.846	0.34
407.207	0.32
407.567	0.3
407.928	0.28
408.288	0.27
408.649	0.25
409.009	0.24
409.37	0.23
409.73	0.21
410.091	0.2
410.451	0.2
410.811	0.19
411.171	0.18
411.532	0.17
411.892	0.16
412.252	0.15
412.612	0.15
412.972	0.15
413.332	0.14
413.692	0.13
414.052	0.13
414.412	0.12
414.772	0.12
415.132	0.12
415.492	0.12
415.851	0.11
416.211	0.11
416.571	0.1
416.931	0.1
417.29	0.1
417.65	0.09
418.009	0.1
418.369	0.09
418.728	0.09
419.088	0.09
419.447	0.09
419.807	0.08
420.166	0.09
420.525	0.09
420.884	0.08
421.244	0.08
421.603	0.07
421.962	0.08
422.321	0.08
422.68	0.08
423.039	0.08
423.398	0.07
423.757	0.08
424.116	0.08
424.475	0.08
424.834	0.07
425.193	0.07
425.551	0.06
425.91	0.07
426.269	0.07
426.628	0.06
426.986	0.07
427.345	0.06
427.703	0.07
428.062	0.05
428.42	0.06
428.779	0.06
429.137	0.06
429.496	0.06
429.854	0.05
430.212	0.05
430.57	0.05
430.929	0.06
431.287	0.06
431.645	0.05
432.003	0.06
432.361	0.05
432.719	0.05
433.077	0.06
433.435	0.05
433.793	0.06
434.151	0.05
434.509	0.06
434.866	0.06
435.224	0.05
435.582	0.05
435.94	0.05
436.297	0.05
436.655	0.05
437.012	0.05
437.37	0.06
437.727	0.05
438.085	0.05
438.442	0.04
438.8	0.05
439.157	0.04
439.514	0.05
439.872	0.05
440.229	0.05
440.586	0.05
440.943	0.05
441.3	0.05
441.657	0.04
442.014	0.04
442.371	0.05
442.728	0.04
443.085	0.04
443.442	0.05
443.799	0.04
444.156	0.04
444.513	0.04
444.869	0.04
445.226	0.04
445.583	0.04
445.939	0.04
446.296	0.04
446.652	0.04
447.009	0.04
447.365	0.04
447.722	0.04
448.078	0.04
448.434	0.04
448.791	0.03
449.147	0.04
449.503	0.04
449.859	0.03
450.215	0.04
450.571	0.04
450.928	0.03
451.284	0.04
451.64	0.04
451.995	0.03
452.351	0.03
452.707	0.04
453.063	0.03
453.419	0.04
453.775	0.03
454.13	0.03
454.486	0.04
454.842	0.03
455.197	0.03
455.553	0.03
455.908	0.02
456.264	0.03
456.619	0.03
456.975	0.02
457.33	0.02
457.685	0.02
458.04	0.02
458.396	0.02
458.751	0.02
459.106	0.01
459.461	0.02
459.816	0.02
460.171	0.02
460.526	0.02
460.881	0.02
461.236	0.01
461.591	0.01
461.946	0.01
462.301	0.02
462.655	0.02
463.01	0.01
463.365	0.01
463.719	0.01
464.074	0.01
464.428	0
464.783	0.01
465.137	0
465.492	0.01
465.846	0
466.201	0.01
466.555	0.01
466.909	0
467.263	0.01
467.618	0.01
467.972	0.01
468.326	0.01
468.68	0.01
469.034	0
469.388	0.01
469.742	0
470.096	0.01
470.45	0.01
470.804	0
471.157	0
471.511	0
471.865	0
472.218	0.01
472.572	0.01
472.926	0.01
473.279	0.01
473.633	0.01
473.986	0.02
474.34	0.01
474.693	0.02
475.046	0.02
475.4	0.02
475.753	0.02
476.106	0.02
476.459	0.03
476.812	0.03
477.165	0.03
477.519	0.02
477.872	0.03
478.224	0.03
478.577	0.04
478.93	0.03
479.283	0.04
479.636	0.04
479.989	0.04
480.341	0.04
480.694	0.04
481.047	0.04
481.399	0.04
481.752	0.04
482.104	0.04
482.457	0.04
482.809	0.04
483.162	0.05
483.514	0.05
483.866	0.05
484.219	0.04
484.571	0.05
484.923	0.05
485.275	0.05
485.627	0.05
485.979	0.06
486.331	0.06
486.683	0.06
487.035	0.06
487.387	0.07
487.739	0.06
488.091	0.06
488.443	0.06
488.794	0.06
489.146	0.06
489.498	0.06
489.849	0.07
490.201	0.06
490.552	0.06
490.904	0.06
491.255	0.06
491.607	0.06
491.958	0.07
492.309	0.07
492.661	0.06
493.012	0.06
493.363	0.07
493.714	0.07
494.065	0.07
494.416	0.08
494.767	0.08
495.118	0.08
495.469	0.08
495.82	0.08
496.171	0.08
496.522	0.08
496.872	0.08
497.223	0.09
497.574	0.08
497.924	0.09
498.275	0.09
498.626	0.09
498.976	0.09
499.327	0.09
499.677	0.09
500.027	0.09
500.378	0.09
500.728	0.09
501.078	0.1
501.428	0.09
501.779	0.1
502.129	0.1
502.479	0.1
502.829	0.1
503.179	0.1
503.529	0.1
503.879	0.11
504.229	0.11
504.578	0.1
504.928	0.11
505.278	0.11
505.628	0.11
505.977	0.12
506.327	0.11
506.676	0.11
507.026	0.11
507.375	0.12
507.725	0.12
508.074	0.12
508.424	0.12
508.773	0.12
509.122	0.12
509.471	0.13
509.82	0.13
510.17	0.13
510.519	0.13
510.868	0.12
511.217	0.13
511.566	0.12
511.915	0.13
512.263	0.13
512.612	0.13
512.961	0.13
513.31	0.13
513.659	0.14
514.007	0.14
514.356	0.14
514.704	0.14
515.053	0.14
515.401	0.14
515.75	0.15
516.098	0.15
516.447	0.15
516.795	0.14
517.143	0.14
517.491	0.15
517.839	0.16
518.188	0.15
518.536	0.16
518.884	0.15
519.232	0.15
519.58	0.16
519.928	0.16
520.275	0.16
520.623	0.16
520.971	0.16
521.319	0.17
521.666	0.16
522.014	0.17
522.362	0.17
522.709	0.17
523.057	0.17
523.404	0.17
523.752	0.17
524.099	0.17
524.446	0.17
524.794	0.18
525.141	0.18
525.488	0.18
525.835	0.18
526.182	0.18
526.529	0.19
526.876	0.18
527.223	0.19
527.57	0.19
527.917	0.19
528.264	0.19
528.611	0.19
528.958	0.19
529.304	0.19
529.651	0.2
529.998	0.2
530.344	0.2
530.691	0.2
531.037	0.2
531.384	0.2
531.73	0.2
532.076	0.21
532.423	0.21
532.769	0.21
533.115	0.21
533.461	0.21
533.807	0.21
534.154	0.21
534.5	0.21
534.846	0.22
535.192	0.22
535.537	0.22
535.883	0.22
536.229	0.22
536.575	0.22
536.921	0.23
537.266	0.23
537.612	0.23
537.957	0.23
538.303	0.24
538.649	0.24
538.994	0.24
539.339	0.24
539.685	0.24
540.03	0.24
540.375	0.25
540.721	0.25
541.066	0.25
541.411	0.25
541.756	0.25
542.101	0.25
542.446	0.26
542.791	0.26
543.136	0.26
543.481	0.26
543.825	0.27
544.17	0.27
544.515	0.26
544.86	0.27
545.204	0.27
545.549	0.27
545.893	0.27
546.238	0.28
546.582	0.28
546.927	0.28
547.271	0.28
547.615	0.28
547.96	0.29
548.304	0.29
548.648	0.29
548.992	0.3
549.336	0.3
549.68	0.3
550.024	0.3
550.368	0.3
550.712	0.3
551.056	0.3
551.4	0.3
551.743	0.3
552.087	0.31
552.431	0.31
552.774	0.31
553.118	0.31
553.462	0.31
553.805	0.32
554.148	0.32
554.492	0.32
554.835	0.32
555.178	0.32
555.522	0.32
555.865	0.32
556.208	0.32
556.551	0.32
556.894	0.32
557.237	0.33
557.58	0.33
557.923	0.33
558.266	0.32
558.609	0.33
558.952	0.33
559.294	0.34
559.637	0.33
559.98	0.33
560.322	0.33
560.665	0.33
561.007	0.34
561.35	0.33
561.692	0.33
562.034	0.34
562.377	0.34
562.719	0.34
563.061	0.33
563.403	0.33
563.745	0.34
564.088	0.34
564.43	0.34
564.772	0.34
565.113	0.35
565.455	0.35
565.797	0.35
566.139	0.35
566.481	0.35
566.822	0.35
567.164	0.35
567.506	0.35
567.847	0.35
568.189	0.35
568.53	0.35
568.872	0.35
569.213	0.35
569.554	0.35
569.895	0.35
570.237	0.35
570.578	0.35
570.919	0.35
571.26	0.35
571.601	0.35
571.942	0.35
572.283	0.35
572.624	0.35
572.965	0.35
573.306	0.35
573.646	0.36
573.987	0.35
574.328	0.35
574.668	0.35
575.009	0.35
575.349	0.35
575.69	0.35
576.03	0.35
576.37	0.35
576.711	0.35
577.051	0.35
577.391	0.35
577.731	0.35
578.072	0.35
578.412	0.35
578.752	0.35
579.092	0.35
579.431	0.35
579.771	0.34
580.111	0.34
580.451	0.34
580.791	0.35
581.13	0.35
581.47	0.35
581.81	0.36
582.149	0.35
582.489	0.36
582.828	0.36
583.167	0.35
583.507	0.34
583.846	0.31
584.185	0.32
584.525	0.34
584.864	0.35
585.203	0.36
585.542	0.37
585.881	0.37
586.22	0.37
586.559	0.37
586.898	0.37
587.236	0.36
587.575	0.36
587.914	0.36
588.252	0.37
588.591	0.37
588.93	0.38
589.268	0.37
589.607	0.38
589.945	0.38
590.283	0.38
590.622	0.38
590.96	0.39
591.298	0.39
591.636	0.39
591.974	0.39
592.313	0.4
592.651	0.4
592.989	0.4
593.326	0.4
593.664	0.4
594.002	0.4
594.34	0.41
594.678	0.41
595.015	0.41
595.353	0.4
595.691	0.4
596.028	0.41
596.366	0.41
596.703	0.41
597.04	0.42
597.378	0.42
597.715	0.42
598.052	0.42
598.389	0.43
598.726	0.43
599.064	0.43
599.401	0.43
599.738	0.43
600.074	0.43
600.411	0.43
600.748	0.44
601.085	0.43
601.422	0.43
601.758	0.43
602.095	0.43
602.432	0.43
602.768	0.43
603.105	0.43
603.441	0.43
603.777	0.44
604.114	0.44
604.45	0.44
604.786	0.44
605.122	0.44
605.459	0.44
605.795	0.43
606.131	0.43
606.467	0.43
606.803	0.44
607.139	0.44
607.474	0.43
607.81	0.43
608.146	0.43
608.482	0.43
608.817	0.43
609.153	0.43
609.488	0.43
609.824	0.43
610.159	0.42
610.495	0.42
610.83	0.42
611.165	0.43
611.5	0.43
611.836	0.43
612.171	0.43
612.506	0.43
612.841	0.42
613.176	0.42
613.511	0.42
613.845	0.42
614.18	0.42
614.515	0.42
614.85	0.42
615.184	0.42
615.519	0.42
615.854	0.42
616.188	0.41
616.523	0.41
616.857	0.41
617.191	0.41
617.526	0.4
617.86	0.41
618.194	0.4
618.528	0.4
618.862	0.41
619.196	0.41
619.53	0.41
619.864	0.41
620.198	0.4
620.532	0.4
620.866	0.4
621.2	0.4
621.533	0.4
621.867	0.4
622.201	0.4
622.534	0.39
622.868	0.39
623.201	0.39
623.534	0.39
623.868	0.39
624.201	0.39
624.534	0.39
624.868	0.38
625.201	0.39
625.534	0.38
625.867	0.38
626.2	0.38
626.533	0.38
626.865	0.38
627.198	0.38
627.531	0.37
627.864	0.37
628.196	0.37
628.529	0.37
628.862	0.37
629.194	0.36
629.527	0.37
629.859	0.36
630.191	0.36
630.524	0.36
630.856	0.35
631.188	0.35
631.52	0.35
631.852	0.35
632.184	0.35
632.516	0.34
632.848	0.34
633.18	0.34
633.512	0.34
633.844	0.34
634.175	0.33
634.507	0.33
634.839	0.33
635.17	0.33
635.502	0.32
635.833	0.32
636.165	0.32
636.496	0.32
636.827	0.32
637.159	0.32
637.49	0.32
637.821	0.31
638.152	0.31
638.483	0.3
638.814	0.3
639.145	0.3
639.476	0.3
639.807	0.3
640.137	0.29
640.468	0.29
640.799	0.29
641.129	0.29
641.46	0.29
641.791	0.29
642.121	0.29
642.451	0.28
642.782	0.28
643.112	0.28
643.442	0.28
643.773	0.27
644.103	0.27
644.433	0.27
644.763	0.26
645.093	0.26
645.423	0.26
645.753	0.26
646.082	0.26
646.412	0.26
646.742	0.26
647.072	0.26
647.401	0.26
647.731	0.25
648.06	0.26
648.39	0.25
648.719	0.26
649.048	0.25
649.378	0.25
649.707	0.25
650.036	0.25
650.365	0.25
650.694	0.25
651.023	0.25
651.352	0.25
651.681	0.25
652.01	0.25
652.339	0.25
652.668	0.25
652.996	0.24
653.325	0.25
653.654	0.24
653.982	0.24
654.311	0.24
654.639	0.24
654.967	0.24
655.296	0.24
655.624	0.24
655.952	0.24
656.28	0.24
656.609	0.24
656.937	0.24
657.265	0.24
657.593	0.24
657.92	0.11
658.248	0.05
658.576	0.03
658.904	0.09
659.231	0.17
659.559	0.22
659.887	0.22
660.214	0.23
660.542	0.23
660.869	0.24
661.196	0.24
661.524	0.24
661.851	0.24
662.178	0.24
662.505	0.24
662.832	0.24
663.159	0.24
663.486	0.24
663.813	0.24
664.14	0.24
664.467	0.24
664.794	0.24
665.12	0.23
665.447	0.23
665.774	0.23
666.1	0.23
666.427	0.23
666.753	0.24
667.079	0.23
667.406	0.23
667.732	0.23
668.058	0.23
668.384	0.23
668.71	0.23
669.036	0.23
669.362	0.22
669.688	0.23
670.014	0.22
670.34	0.23
670.666	0.23
670.991	0.22
671.317	0.22
671.643	0.22
671.968	0.22
672.294	0.22
672.619	0.22
672.945	0.21
673.27	0.21
673.595	0.21
673.92	0.2
674.246	0.2
674.571	0.2
674.896	0.2
675.221	0.21
675.546	0.21
675.87	0.21
676.195	0.2
676.52	0.2
676.845	0.2
677.169	0.2
677.494	0.2
677.819	0.2
678.143	0.2
678.468	0.19
678.792	0.19
679.116	0.19
679.44	0.19
679.765	0.19
680.089	0.19
680.413	0.18
680.737	0.18
681.061	0.18
681.385	0.18
681.709	0.17
682.033	0.17
682.356	0.17
682.68	0.17
683.004	0.17
683.327	0.17
683.651	0.17
683.974	0.16
684.298	0.16
684.621	0.16
684.944	0.16
685.268	0.16
685.591	0.16
685.914	0.16
686.237	0.16
686.56	0.16
686.883	0.15
687.206	0.15
687.529	0.15
687.852	0.15
688.175	0.15
688.497	0.15
688.82	0.14
689.142	0.14
689.465	0.14
689.787	0.14
690.11	0.14
690.432	0.13
690.755	0.13
691.077	0.13
691.399	0.13
691.721	0.13
692.043	0.13
692.365	0.13
692.687	0.13
693.009	0.13
693.331	0.13
693.653	0.12
693.974	0.12
694.296	0.13
694.618	0.12
694.939	0.12
695.261	0.12
695.582	0.12
695.904	0.12
696.225	0.12
696.546	0.11
696.868	0.11
697.189	0.11
697.51	0.11
697.831	0.11
698.152	0.11
698.473	0.11
698.794	0.11
699.114	0.1
699.435	0.1
699.756	0.1
700.077	0.1
700.397	0.1
700.718	0.1
701.038	0.1
701.359	0.1
701.679	0.11
701.999	0.11
702.32	0.1
702.64	0.1
702.96	0.1
703.28	0.1
703.6	0.1
703.92	0.1
704.24	0.1
704.56	0.09
704.879	0.09
705.199	0.1
705.519	0.09
705.838	0.09
706.158	0.09
706.478	0.09
706.797	0.09
707.116	0.09
707.436	0.09
707.755	0.09
708.074	0.09
708.393	0.09
708.712	0.09
709.031	0.08
709.35	0.08
709.669	0.08
709.988	0.09
710.307	0.08
710.626	0.09
710.944	0.09
711.263	0.08
711.582	0.09
711.9	0.08
712.219	0.09
712.537	0.09
712.855	0.09
713.174	0.09
713.492	0.09
713.81	0.09
714.128	0.09
714.446	0.09
714.764	0.09
715.082	0.09
715.4	0.09
715.718	0.09
716.035	0.08
716.353	0.09
716.671	0.09
716.988	0.09
717.306	0.09
717.623	0.09
717.941	0.09
718.258	0.09
718.575	0.09
718.893	0.1
719.21	0.09
719.527	0.09
719.844	0.09
720.161	0.09
720.478	0.09
720.795	0.09
721.112	0.09
721.428	0.09
721.745	0.09
722.062	0.1
722.378	0.1
722.695	0.1
723.011	0.1
723.328	0.09
723.644	0.1
723.96	0.1
724.276	0.1
724.593	0.09
724.909	0.09
725.225	0.09
725.541	0.09
725.857	0.1
726.173	0.09
726.488	0.1
726.804	0.1
727.12	0.1
727.435	0.09
727.751	0.09
728.067	0.1
728.382	0.1
728.697	0.1
729.013	0.1
729.328	0.1
729.643	0.1
729.958	0.1
730.273	0.1
730.588	0.1
730.903	0.1
731.218	0.1
731.533	0.1
731.848	0.1
732.163	0.09
732.477	0.09
732.792	0.09
733.107	0.09
733.421	0.09
733.736	0.09
734.05	0.09
734.364	0.09
734.678	0.1
734.993	0.1
735.307	0.1
735.621	0.09
735.935	0.1
736.249	0.09
736.563	0.1
736.877	0.09
737.19	0.1
737.504	0.1
737.818	0.09
738.131	0.1
738.445	0.1
738.758	0.09
739.072	0.09
739.385	0.09
739.698	0.09
740.012	0.09
740.325	0.09
740.638	0.09
740.951	0.08
741.264	0.08
741.577	0.08
741.89	0.09
742.203	0.09
742.515	0.09
742.828	0.09
743.141	0.09
743.453	0.09
743.766	0.08
744.078	0.08
744.391	0.08
744.703	0.08
745.015	0.08
745.327	0.08
745.639	0.08
745.952	0.08
746.264	0.07
746.575	0.07
746.887	0.07
747.199	0.08
747.511	0.08
747.823	0.08
748.134	0.08
748.446	0.07
748.757	0.08
749.069	0.07
749.38	0.08
749.692	0.07
750.003	0.07
750.314	0.07
750.625	0.07
750.936	0.08
751.248	0.07
751.559	0.07
751.869	0.07
752.18	0.07
752.491	0.07
752.802	0.07
753.112	0.07
753.423	0.06
753.734	0.06
754.044	0.06
754.355	0.06
754.665	0.06
754.975	0.06
755.285	0.06
755.596	0.06
755.906	0.06
756.216	0.06
756.526	0.06
756.836	0.06
757.146	0.06
757.455	0.06
757.765	0.05
758.075	0.05
758.385	0.06
758.694	0.05
759.004	0.05
759.313	0.05
759.622	0.05
759.932	0.05
760.241	0.05
760.55	0.05
760.859	0.05
761.168	0.05
761.477	0.05
761.786	0.05
762.095	0.05
762.404	0.05
762.713	0.05
763.021	0.05
763.33	0.05
763.639	0.05
763.947	0.05
764.256	0.05
764.564	0.05
764.872	0.05
765.181	0.05
765.489	0.05
765.797	0.05
766.105	0.05
766.413	0.04
766.721	0.04
767.029	0.04
767.337	0.04
767.644	0.04
767.952	0.04
768.26	0.04
768.567	0.04
768.875	0.04
769.182	0.04
769.49	0.04
769.797	0.04
770.104	0.04
770.411	0.04
770.718	0.04
771.026	0.04
771.333	0.04
771.639	0.04
771.946	0.04
772.253	0.04
772.56	0.04
772.867	0.04
773.173	0.04
773.48	0.05
773.786	0.04
774.093	0.04
774.399	0.04
774.705	0.04
775.012	0.03
775.318	0.03
775.624	0.04
775.93	0.03
776.236	0.04
776.542	0.03
776.848	0.04
777.154	0.04
777.459	0.03
777.765	0.03
778.071	0.03
778.376	0.04
778.682	0.04
778.987	0.04
779.292	0.04
779.598	0.04
779.903	0.04
780.208	0.04
780.513	0.04
780.818	0.04
781.123	0.04
781.428	0.04
781.733	0.04
782.038	0.04
782.343	0.04
782.647	0.05
782.952	0.04
783.256	0.04
783.561	0.04
783.865	0.04
784.17	0.03
784.474	0.03
784.778	0.03
785.082	0.04
785.386	0.03
785.69	0.03
785.994	0.04
786.298	0.04
786.602	0.04
786.906	0.04
787.209	0.04
787.513	0.03
787.817	0.03
788.12	0.03
788.424	0.03
788.727	0.03
789.03	0.03
789.333	0.04
789.637	0.04
789.94	0.04
790.243	0.04
790.546	0.03
790.849	0.03
791.152	0.03
791.454	0.03
791.757	0.03
792.06	0.03
792.362	0.03
792.665	0.03
792.967	0.03
793.27	0.03
793.572	0.03
793.874	0.04
794.177	0.03
794.479	0.03
794.781	0.04
795.083	0.03
795.385	0.04
795.687	0.03
795.989	0.04
796.29	0.04
796.592	0.04
796.894	0.04
797.195	0.04
797.497	0.04
797.798	0.04
798.1	0.04
798.401	0.04
798.702	0.04
799.003	0.04
799.304	0.04
799.605	0.04
799.906	0.04
800.207	0.03
800.508	0.03
800.809	0.03
801.11	0.04
801.41	0.03
801.711	0.04
802.011	0.04
802.312	0.04
802.612	0.04
802.913	0.04
803.213	0.04
803.513	0.04
803.813	0.04
804.113	0.04
804.413	0.04
804.713	0.04
805.013	0.04
805.313	0.04
805.613	0.04
805.912	0.04
806.212	0.04
806.511	0.03
806.811	0.04
807.11	0.03
807.41	0.03
807.709	0.03
808.008	0.03
808.307	0.03
808.606	0.03
808.905	0.03
809.204	0.03
809.503	0.04
809.802	0.03
810.101	0.04
810.399	0.05
810.698	0.04
810.997	0.04
811.295	0.04
811.593	0.05
811.892	0.04
812.19	0.05
812.488	0.04
812.786	0.04
813.084	0.04
813.383	0.04
813.68	0.05
813.978	0.04
814.276	0.05
814.574	0.05
814.872	0.04
815.169	0.05
815.467	0.05
815.764	0.04
816.062	0.04
816.359	0.04
816.656	0.04
816.954	0.03
817.251	0.04
817.548	0.04
817.845	0.04
818.142	0.04
818.439	0.04
818.735	0.04
819.032	0.04
819.329	0.04
819.626	0.04
819.922	0.04
820.219	0.04
820.515	0.04
820.811	0.04
821.108	0.04
821.404	0.04
821.7	0.04
821.996	0.04
822.292	0.04
822.588	0.05
822.884	0.04
823.18	0.04
823.475	0.04
823.771	0.04
824.067	0.04
824.362	0.04
824.658	0.04
824.953	0.04
825.249	0.04
825.544	0.04
825.839	0.04
826.134	0.04
826.429	0.04
826.724	0.04
827.019	0.05
827.314	0.05
827.609	0.05
827.904	0.04
828.198	0.05
828.493	0.04
828.787	0.04
829.082	0.04
829.376	0.04
829.671	0.05
829.965	0.04
830.259	0.05
830.553	0.06
830.847	0.04
831.141	0.05
831.435	0.05
831.729	0.05
832.023	0.05
832.317	0.06
832.61	0.06
832.904	0.05
833.197	0.05
833.491	0.06
833.784	0.06
834.077	0.06
834.371	0.06
834.664	0.06
834.957	0.06
835.25	0.06
835.543	0.05
835.836	0.05
836.129	0.05
836.421	0.05
836.714	0.05
837.007	0.05
837.299	0.05
837.592	0.06
837.884	0.06
838.177	0.04
838.469	0.05
838.761	0.05
839.053	0.05
839.345	0.05
839.637	0.04
839.929	0.04
840.221	0.05
840.513	0.04
840.805	0.04
841.096	0.05
841.388	0.05
841.68	0.05
841.971	0.05
842.262	0.04
842.554	0.04
842.845	0.05
843.136	0.05
843.427	0.05
843.718	0.05
844.009	0.05
844.3	0.04
844.591	0.05
844.882	0.06
845.173	0.05
845.463	0.05
845.754	0.06
846.044	0.06
846.335	0.06
846.625	0.07
846.915	0.05
847.206	0.05
847.496	0.06
847.786	0.05
848.076	0.06
848.366	0.06
848.656	0.05
848.945	0.05
849.235	0.04
849.525	0.04
849.814	0.05
850.104	0.04
850.393	0.04
850.683	0.04
850.972	0.05
851.261	0.05
851.551	0.05
851.84	0.05
852.129	0.05
852.418	0.04
852.707	0.05
852.995	0.04
853.284	0.05
853.573	0.05
853.862	0.06
854.15	0.06
854.439	0.04
854.727	0.06
855.015	0.06
855.304	0.04
855.592	0.05
855.88	0.04
856.168	0.04
856.456	0.05
856.744	0.05
857.032	0.05
857.32	0.05
857.607	0.04
857.895	0.05
858.183	0.06
858.47	0.05
858.757	0.05
859.045	0.05
859.332	0.05
859.619	0.04
859.907	0.04
860.194	0.05
860.481	0.05
860.768	0.05
861.054	0.05
861.341	0.06
861.628	0.05
861.915	0.05
862.201	0.06
862.488	0.05
862.774	0.05
863.061	0.03
863.347	0.04
863.633	0.05
863.919	0.04
864.205	0.05
864.491	0.04
864.777	0.05
865.063	0.06
865.349	0.04
865.635	0.02
865.92	0.03
866.206	0.06
866.492	0.06
866.777	0.06
867.062	0.04
867.348	0.06
867.633	0.06
867.918	0.08
868.203	0.05
868.488	0.06
868.773	0.04
869.058	0.03
869.343	0.02
869.628	0.06
869.912	0.04
870.197	0.02
870.482	0
870.766	0.04
871.05	0.05
871.335	0.01
871.619	0.03
871.903	0.03
872.187	0.05
872.471	0.03
872.755	0.05
873.039	0.07
873.323	0.09
873.607	0.02
873.89	0.04
874.174	0.07
874.458	0.01
874.741	0.02
875.024	-0
875.308	-0.01
875.591	-0.03
875.874	-0
876.157	-0.01
876.44	0.09
876.723	0.05
877.006	0.09
877.289	-0.02
877.572	0.08
877.854	-0.01
878.137	0.04
878.42	0
878.702	-0.01
878.984	0
879.267	0.03
879.549	0.03
879.831	0.02
880.113	0.03
880.395	-0.03
880.677	0.07
880.959	0.06
