Data from Rubpy_EV_600_EDTA_Buffered_Absorbance_12-59-40-033.txt Node
Date: Tue Jun 30 12:59:40 BST 2026
User: fpm-admin
Spectrometer: OFX00224
Trigger mode: 0
Integration Time (sec): 7.000000E-2
Scans to average: 3
Nonlinearity correction enabled: false
Boxcar width: 0
Storing dark spectrum: false
XAxis mode: Wavelengths
Number of Pixels in Spectrum: 2136
>>>>>Begin Spectral Data<<<<<
154.91	-0
155.289	0.45
155.669	0.41
156.048	-0.15
156.428	-0.23
156.807	-0.45
157.186	0.22
157.566	-0
157.945	0.17
158.325	-0.3
158.704	-0.27
159.083	-0.3
159.462	-0.6
159.842	-0.19
160.221	0.73
160.6	-0.11
160.979	0.02
161.359	1.02
161.738	-0.1
162.117	-0
162.496	0.15
162.875	0.09
163.254	0.15
163.633	-0
164.012	-0.48
164.391	-0.24
164.77	-0.32
165.149	0.26
165.528	-0
165.907	0.7
166.286	-0.05
166.665	-0.4
167.044	0.51
167.423	-0
167.802	-0.06
168.181	-0
168.559	-0
168.938	0.29
169.317	0.19
169.696	-0.58
170.074	0.32
170.453	-0
170.832	0.25
171.21	-0
171.589	1.19
171.968	-0
172.346	0.02
172.725	-0
173.103	-0.77
173.482	-0
173.861	0.22
174.239	-0.07
174.617	-0
174.996	0.65
175.374	-0
175.753	-1
176.131	-0
176.51	-0.37
176.888	-0
177.266	-0
177.645	-0.02
178.023	-0
178.401	-0.2
178.779	-0.11
179.158	0.07
179.536	0.48
179.914	-0.14
180.292	0.29
180.67	-0
181.048	-0.37
181.427	-1.59
181.805	0.08
182.183	-0.85
182.561	-0
182.939	-0.13
183.317	0.01
183.695	0.48
184.073	-0.06
184.451	-0
184.829	-0
185.206	-0.15
185.584	-0.23
185.962	-0
186.34	0.32
186.718	-0
187.096	-0.14
187.473	-0
187.851	-0.41
188.229	-0
188.607	0.08
188.984	0.05
189.362	0.09
189.74	0.21
190.117	0.16
190.495	0.15
190.872	0.13
191.25	0.18
191.627	0.09
192.005	0.07
192.382	0.22
192.76	0.05
193.137	0.18
193.515	0.19
193.892	0.12
194.269	0.06
194.647	0.16
195.024	0.06
195.401	0.14
195.779	0.14
196.156	0.06
196.533	0.16
196.91	0.15
197.288	0.17
197.665	0.15
198.042	0.08
198.419	0.12
198.796	0.16
199.173	0.11
199.55	0.06
199.927	0.1
200.304	0.08
200.681	0.17
201.058	0.1
201.435	0.04
201.812	0.1
202.189	0.15
202.566	0.2
202.943	0.11
203.32	0.12
203.697	0.15
204.073	0.12
204.45	0.08
204.827	0.18
205.204	0.12
205.58	0.15
205.957	0.16
206.334	0.17
206.71	0.1
207.087	0.14
207.464	0.14
207.84	0.21
208.217	0.19
208.593	0.24
208.97	0.15
209.346	0.05
209.723	0.17
210.099	0.07
210.476	0.11
210.852	0.16
211.228	0.13
211.605	0.14
211.981	0.15
212.357	0.21
212.733	0.07
213.11	0.13
213.486	0.14
213.862	0.04
214.238	0.21
214.614	0.14
214.991	0.11
215.367	0.21
215.743	0.08
216.119	0.25
216.495	0.04
216.871	0.07
217.247	0.1
217.623	0.13
217.999	0.21
218.375	0.15
218.751	0.14
219.127	0.11
219.502	0.17
219.878	0.12
220.254	0.16
220.63	0.27
221.006	0.09
221.381	0.12
221.757	0.13
222.133	0.15
222.508	0.05
222.884	0.07
223.26	0.08
223.635	0.16
224.011	0.12
224.386	0.25
224.762	0.11
225.137	0.13
225.513	0.18
225.888	-0.1
226.264	0.12
226.639	0.16
227.014	0.2
227.39	0.05
227.765	0.13
228.14	0.14
228.516	0.18
228.891	0.14
229.266	0.16
229.641	0.14
230.017	0.13
230.392	0.22
230.767	0.13
231.142	0.09
231.517	0.13
231.892	0.16
232.267	0.13
232.642	0.14
233.017	0.16
233.392	0.13
233.767	0.26
234.142	0.17
234.517	0.1
234.892	0.09
235.267	0.14
235.641	0.09
236.016	0.14
236.391	0.16
236.766	0.07
237.14	0.09
237.515	0.1
237.89	0.2
238.264	0.12
238.639	0.18
239.014	0.02
239.388	0.12
239.763	0.1
240.137	0.14
240.512	0.13
240.886	0.06
241.261	0.11
241.635	0.08
242.009	0.13
242.384	0.09
242.758	0.03
243.132	0.06
243.507	0.19
243.881	0.14
244.255	0.07
244.629	0.26
245.004	0.17
245.378	0.18
245.752	0.2
246.126	0.21
246.5	0.16
246.874	0.18
247.248	0.14
247.622	0.1
247.996	0.15
248.37	0.2
248.744	0.04
249.118	0.17
249.492	0.17
249.866	0.14
250.24	0.07
250.613	0.1
250.987	0.17
251.361	0.14
251.735	0.07
252.108	0.1
252.482	0.18
252.856	0.01
253.229	0.14
253.603	0.05
253.977	0.08
254.35	0.11
254.724	0.14
255.097	0.2
255.471	0.08
255.844	0.15
256.218	0.17
256.591	0.12
256.964	0.11
257.338	0.14
257.711	0.13
258.084	0.1
258.458	0.13
258.831	0.12
259.204	0.11
259.577	0.12
259.95	0.14
260.323	0.06
260.697	0.12
261.07	0.2
261.443	0.16
261.816	0.13
262.189	0.11
262.562	0.15
262.935	0.23
263.308	0.08
263.68	0.07
264.053	0.14
264.426	0.2
264.799	0.1
265.172	0.17
265.545	0.13
265.917	0.17
266.29	0.15
266.663	0.11
267.035	0.14
267.408	0.14
267.781	0.15
268.153	0.11
268.526	0.1
268.898	0.17
269.271	0.15
269.643	0.2
270.016	0.16
270.388	0.15
270.76	0.16
271.133	0.11
271.505	0.1
271.877	0.2
272.25	0.12
272.622	0.17
272.994	0.1
273.366	0.26
273.739	0.2
274.111	0.12
274.483	0.09
274.855	0.2
275.227	0.22
275.599	0.12
275.971	0.19
276.343	0.12
276.715	0.2
277.087	0.15
277.459	0.14
277.831	0.13
278.203	0.19
278.574	0.26
278.946	0.17
279.318	0.23
279.69	0.22
280.061	0.16
280.433	0.12
280.805	0.21
281.176	0.12
281.548	0.11
281.92	0.08
282.291	0.2
282.663	0.16
283.034	0.11
283.406	0.15
283.777	0.13
284.148	0.22
284.52	0.1
284.891	0.11
285.262	0.11
285.634	0.2
286.005	0.11
286.376	0.15
286.747	0.16
287.119	0.11
287.49	0.15
287.861	0.11
288.232	0.15
288.603	0.11
288.974	0.06
289.345	0.15
289.716	0.13
290.087	0.08
290.458	0.17
290.829	0.11
291.2	0.07
291.571	0.1
291.941	0.16
292.312	0.17
292.683	0.12
293.054	0.1
293.424	0.14
293.795	0.17
294.166	0.11
294.536	0.13
294.907	0.12
295.277	0.16
295.648	0.09
296.018	0.15
296.389	0.13
296.759	0.16
297.13	0.12
297.5	0.12
297.871	0.13
298.241	0.11
298.611	0.05
298.981	0.12
299.352	0.1
299.722	0.15
300.092	0.14
300.462	0.09
300.832	0.09
301.202	0.09
301.573	0.09
301.943	0.1
302.313	0.09
302.683	0.06
303.053	0.08
303.422	0.09
303.792	0.09
304.162	0.09
304.532	0.09
304.902	0.09
305.272	0.08
305.641	0.09
306.011	0.1
306.381	0.09
306.75	0.09
307.12	0.09
307.49	0.1
307.859	0.1
308.229	0.1
308.598	0.1
308.968	0.1
309.337	0.1
309.707	0.1
310.076	0.11
310.445	0.11
310.815	0.11
311.184	0.11
311.553	0.11
311.923	0.11
312.292	0.11
312.661	0.11
313.03	0.11
313.399	0.12
313.768	0.12
314.137	0.11
314.506	0.11
314.875	0.12
315.244	0.11
315.613	0.11
315.982	0.12
316.351	0.11
316.72	0.11
317.089	0.11
317.458	0.11
317.826	0.11
318.195	0.1
318.564	0.11
318.933	0.11
319.301	0.11
319.67	0.1
320.038	0.1
320.407	0.1
320.775	0.1
321.144	0.11
321.512	0.1
321.881	0.1
322.249	0.1
322.618	0.1
322.986	0.1
323.354	0.09
323.723	0.1
324.091	0.09
324.459	0.09
324.827	0.1
325.195	0.09
325.564	0.1
325.932	0.1
326.3	0.09
326.668	0.09
327.036	0.09
327.404	0.09
327.772	0.09
328.14	0.09
328.508	0.1
328.875	0.09
329.243	0.09
329.611	0.09
329.979	0.09
330.346	0.1
330.714	0.09
331.082	0.09
331.449	0.09
331.817	0.09
332.185	0.09
332.552	0.09
332.92	0.09
333.287	0.1
333.655	0.09
334.022	0.1
334.389	0.1
334.757	0.1
335.124	0.1
335.491	0.1
335.859	0.1
336.226	0.11
336.593	0.11
336.96	0.11
337.327	0.1
337.695	0.11
338.062	0.11
338.429	0.11
338.796	0.11
339.163	0.12
339.53	0.11
339.897	0.12
340.263	0.12
340.63	0.12
340.997	0.12
341.364	0.13
341.731	0.13
342.097	0.13
342.464	0.13
342.831	0.13
343.197	0.14
343.564	0.14
343.931	0.14
344.297	0.14
344.664	0.14
345.03	0.15
345.396	0.15
345.763	0.15
346.129	0.15
346.496	0.16
346.862	0.16
347.228	0.16
347.594	0.16
347.961	0.17
348.327	0.17
348.693	0.17
349.059	0.17
349.425	0.18
349.791	0.18
350.157	0.18
350.523	0.18
350.889	0.19
351.255	0.2
351.621	0.2
351.987	0.2
352.353	0.2
352.719	0.21
353.084	0.22
353.45	0.22
353.816	0.22
354.181	0.23
354.547	0.23
354.913	0.24
355.278	0.24
355.644	0.25
356.009	0.25
356.375	0.25
356.74	0.26
357.106	0.26
357.471	0.27
357.836	0.28
358.202	0.28
358.567	0.29
358.932	0.29
359.297	0.3
359.663	0.3
360.028	0.31
360.393	0.31
360.758	0.31
361.123	0.32
361.488	0.33
361.853	0.33
362.218	0.33
362.583	0.34
362.948	0.34
363.312	0.34
363.677	0.35
364.042	0.36
364.407	0.37
364.772	0.37
365.136	0.37
365.501	0.38
365.865	0.39
366.23	0.4
366.595	0.41
366.959	0.42
367.324	0.43
367.688	0.44
368.052	0.44
368.417	0.45
368.781	0.46
369.145	0.47
369.51	0.47
369.874	0.47
370.238	0.47
370.602	0.47
370.967	0.47
371.331	0.47
371.695	0.47
372.059	0.46
372.423	0.47
372.787	0.46
373.151	0.46
373.515	0.46
373.878	0.45
374.242	0.46
374.606	0.46
374.97	0.46
375.334	0.47
375.697	0.46
376.061	0.47
376.425	0.47
376.788	0.47
377.152	0.47
377.515	0.48
377.879	0.49
378.242	0.49
378.606	0.49
378.969	0.5
379.333	0.5
379.696	0.52
380.059	0.52
380.422	0.53
380.786	0.54
381.149	0.55
381.512	0.56
381.875	0.57
382.238	0.58
382.601	0.6
382.964	0.62
383.327	0.63
383.69	0.65
384.053	0.66
384.416	0.69
384.779	0.7
385.142	0.72
385.504	0.72
385.867	0.74
386.23	0.74
386.593	0.75
386.955	0.74
387.318	0.75
387.68	0.75
388.043	0.75
388.405	0.75
388.768	0.74
389.13	0.73
389.493	0.73
389.855	0.73
390.217	0.72
390.58	0.71
390.942	0.72
391.304	0.72
391.666	0.73
392.028	0.74
392.391	0.77
392.753	0.78
393.115	0.81
393.477	0.84
393.839	0.87
394.201	0.9
394.563	0.93
394.924	0.97
395.286	1.01
395.648	1.05
396.01	1.08
396.371	1.1
396.733	1.13
397.095	1.15
397.456	1.15
397.818	1.16
398.18	1.16
398.541	1.14
398.903	1.12
399.264	1.09
399.625	1.05
399.987	1.01
400.348	0.97
400.709	0.92
401.071	0.88
401.432	0.82
401.793	0.77
402.154	0.73
402.515	0.68
402.876	0.63
403.238	0.58
403.599	0.54
403.96	0.5
404.32	0.47
404.681	0.43
405.042	0.4
405.403	0.37
405.764	0.35
406.125	0.32
406.485	0.3
406.846	0.28
407.207	0.26
407.567	0.25
407.928	0.23
408.288	0.22
408.649	0.21
409.009	0.2
409.37	0.19
409.73	0.17
410.091	0.17
410.451	0.17
410.811	0.16
411.171	0.15
411.532	0.14
411.892	0.14
412.252	0.13
412.612	0.13
412.972	0.13
413.332	0.12
413.692	0.12
414.052	0.11
414.412	0.11
414.772	0.1
415.132	0.1
415.492	0.1
415.851	0.09
416.211	0.09
416.571	0.09
416.931	0.09
417.29	0.09
417.65	0.08
418.009	0.08
418.369	0.08
418.728	0.08
419.088	0.08
419.447	0.07
419.807	0.08
420.166	0.07
420.525	0.07
420.884	0.07
421.244	0.07
421.603	0.07
421.962	0.07
422.321	0.07
422.68	0.07
423.039	0.06
423.398	0.06
423.757	0.06
424.116	0.06
424.475	0.06
424.834	0.06
425.193	0.06
425.551	0.06
425.91	0.06
426.269	0.06
426.628	0.05
426.986	0.06
427.345	0.05
427.703	0.06
428.062	0.05
428.42	0.05
428.779	0.05
429.137	0.06
429.496	0.05
429.854	0.05
430.212	0.05
430.57	0.04
430.929	0.05
431.287	0.05
431.645	0.04
432.003	0.05
432.361	0.05
432.719	0.04
433.077	0.05
433.435	0.05
433.793	0.04
434.151	0.04
434.509	0.05
434.866	0.05
435.224	0.05
435.582	0.04
435.94	0.05
436.297	0.04
436.655	0.03
437.012	0.04
437.37	0.05
437.727	0.05
438.085	0.04
438.442	0.04
438.8	0.03
439.157	0.04
439.514	0.04
439.872	0.04
440.229	0.04
440.586	0.04
440.943	0.04
441.3	0.04
441.657	0.04
442.014	0.04
442.371	0.04
442.728	0.03
443.085	0.04
443.442	0.04
443.799	0.04
444.156	0.04
444.513	0.03
444.869	0.04
445.226	0.04
445.583	0.03
445.939	0.04
446.296	0.04
446.652	0.04
447.009	0.03
447.365	0.04
447.722	0.04
448.078	0.03
448.434	0.04
448.791	0.03
449.147	0.03
449.503	0.03
449.859	0.03
450.215	0.03
450.571	0.03
450.928	0.04
451.284	0.03
451.64	0.03
451.995	0.02
452.351	0.02
452.707	0.02
453.063	0.02
453.419	0.03
453.775	0.02
454.13	0.03
454.486	0.03
454.842	0.02
455.197	0.03
455.553	0.02
455.908	0.02
456.264	0.02
456.619	0.02
456.975	0.03
457.33	0.01
457.685	0.02
458.04	0.01
458.396	0.01
458.751	0.02
459.106	0.01
459.461	0.02
459.816	0.02
460.171	0.01
460.526	0.02
460.881	0.02
461.236	0.01
461.591	0.01
461.946	0.01
462.301	0.01
462.655	0
463.01	0.01
463.365	0.01
463.719	0
464.074	0.01
464.428	-0
464.783	0
465.137	-0
465.492	0
465.846	0
466.201	0
466.555	0
466.909	-0.01
467.263	0
467.618	0
467.972	0
468.326	0
468.68	0
469.034	-0.01
469.388	-0
469.742	-0
470.096	0
470.45	0.01
470.804	-0.01
471.157	0
471.511	0
471.865	0.01
472.218	0
472.572	-0
472.926	0
473.279	-0
473.633	0
473.986	0.01
474.34	0
474.693	0.01
475.046	0.01
475.4	0.01
475.753	0.01
476.106	0.02
476.459	0.02
476.812	0.02
477.165	0.02
477.519	0.02
477.872	0.02
478.224	0.02
478.577	0.03
478.93	0.02
479.283	0.03
479.636	0.03
479.989	0.03
480.341	0.03
480.694	0.03
481.047	0.03
481.399	0.03
481.752	0.04
482.104	0.03
482.457	0.03
482.809	0.03
483.162	0.04
483.514	0.04
483.866	0.03
484.219	0.04
484.571	0.04
484.923	0.04
485.275	0.04
485.627	0.04
485.979	0.04
486.331	0.05
486.683	0.05
487.035	0.04
487.387	0.05
487.739	0.05
488.091	0.05
488.443	0.05
488.794	0.05
489.146	0.05
489.498	0.05
489.849	0.05
490.201	0.05
490.552	0.05
490.904	0.05
491.255	0.05
491.607	0.06
491.958	0.06
492.309	0.05
492.661	0.05
493.012	0.06
493.363	0.05
493.714	0.06
494.065	0.06
494.416	0.06
494.767	0.06
495.118	0.07
495.469	0.07
495.82	0.07
496.171	0.06
496.522	0.07
496.872	0.06
497.223	0.07
497.574	0.07
497.924	0.08
498.275	0.07
498.626	0.08
498.976	0.07
499.327	0.07
499.677	0.08
500.027	0.08
500.378	0.08
500.728	0.08
501.078	0.08
501.428	0.08
501.779	0.08
502.129	0.09
502.479	0.08
502.829	0.09
503.179	0.09
503.529	0.08
503.879	0.09
504.229	0.09
504.578	0.09
504.928	0.09
505.278	0.09
505.628	0.09
505.977	0.1
506.327	0.09
506.676	0.1
507.026	0.1
507.375	0.1
507.725	0.1
508.074	0.1
508.424	0.1
508.773	0.1
509.122	0.1
509.471	0.11
509.82	0.1
510.17	0.11
510.519	0.11
510.868	0.1
511.217	0.11
511.566	0.1
511.915	0.11
512.263	0.11
512.612	0.11
512.961	0.11
513.31	0.11
513.659	0.11
514.007	0.12
514.356	0.12
514.704	0.12
515.053	0.12
515.401	0.12
515.75	0.12
516.098	0.12
516.447	0.12
516.795	0.12
517.143	0.12
517.491	0.12
517.839	0.13
518.188	0.13
518.536	0.13
518.884	0.13
519.232	0.13
519.58	0.13
519.928	0.13
520.275	0.13
520.623	0.14
520.971	0.14
521.319	0.14
521.666	0.14
522.014	0.14
522.362	0.14
522.709	0.14
523.057	0.15
523.404	0.14
523.752	0.14
524.099	0.15
524.446	0.15
524.794	0.15
525.141	0.15
525.488	0.15
525.835	0.15
526.182	0.15
526.529	0.15
526.876	0.16
527.223	0.16
527.57	0.16
527.917	0.16
528.264	0.16
528.611	0.16
528.958	0.16
529.304	0.16
529.651	0.16
529.998	0.17
530.344	0.16
530.691	0.17
531.037	0.17
531.384	0.17
531.73	0.17
532.076	0.17
532.423	0.18
532.769	0.17
533.115	0.18
533.461	0.17
533.807	0.18
534.154	0.17
534.5	0.18
534.846	0.18
535.192	0.18
535.537	0.18
535.883	0.19
536.229	0.19
536.575	0.19
536.921	0.19
537.266	0.19
537.612	0.19
537.957	0.2
538.303	0.2
538.649	0.2
538.994	0.2
539.339	0.2
539.685	0.2
540.03	0.2
540.375	0.2
540.721	0.21
541.066	0.21
541.411	0.22
541.756	0.21
542.101	0.22
542.446	0.22
542.791	0.22
543.136	0.22
543.481	0.22
543.825	0.22
544.17	0.22
544.515	0.22
544.86	0.22
545.204	0.22
545.549	0.23
545.893	0.23
546.238	0.23
546.582	0.23
546.927	0.24
547.271	0.24
547.615	0.24
547.96	0.24
548.304	0.24
548.648	0.24
548.992	0.25
549.336	0.25
549.68	0.24
550.024	0.25
550.368	0.25
550.712	0.25
551.056	0.25
551.4	0.26
551.743	0.26
552.087	0.25
552.431	0.26
552.774	0.26
553.118	0.26
553.462	0.26
553.805	0.26
554.148	0.27
554.492	0.27
554.835	0.27
555.178	0.26
555.522	0.27
555.865	0.27
556.208	0.27
556.551	0.27
556.894	0.27
557.237	0.27
557.58	0.27
557.923	0.27
558.266	0.27
558.609	0.27
558.952	0.28
559.294	0.28
559.637	0.28
559.98	0.28
560.322	0.28
560.665	0.28
561.007	0.28
561.35	0.28
561.692	0.28
562.034	0.28
562.377	0.28
562.719	0.29
563.061	0.28
563.403	0.28
563.745	0.28
564.088	0.29
564.43	0.29
564.772	0.29
565.113	0.29
565.455	0.29
565.797	0.29
566.139	0.29
566.481	0.29
566.822	0.29
567.164	0.29
567.506	0.29
567.847	0.29
568.189	0.29
568.53	0.29
568.872	0.3
569.213	0.3
569.554	0.3
569.895	0.3
570.237	0.29
570.578	0.29
570.919	0.29
571.26	0.3
571.601	0.3
571.942	0.3
572.283	0.3
572.624	0.29
572.965	0.29
573.306	0.29
573.646	0.29
573.987	0.29
574.328	0.3
574.668	0.3
575.009	0.29
575.349	0.3
575.69	0.29
576.03	0.29
576.37	0.3
576.711	0.29
577.051	0.29
577.391	0.29
577.731	0.3
578.072	0.29
578.412	0.29
578.752	0.29
579.092	0.29
579.431	0.29
579.771	0.29
580.111	0.28
580.451	0.28
580.791	0.29
581.13	0.29
581.47	0.3
581.81	0.3
582.149	0.3
582.489	0.3
582.828	0.3
583.167	0.29
583.507	0.27
583.846	0.25
584.185	0.26
584.525	0.28
584.864	0.29
585.203	0.3
585.542	0.3
585.881	0.3
586.22	0.31
586.559	0.31
586.898	0.3
587.236	0.3
587.575	0.3
587.914	0.3
588.252	0.31
588.591	0.31
588.93	0.31
589.268	0.31
589.607	0.31
589.945	0.32
590.283	0.32
590.622	0.32
590.96	0.32
591.298	0.33
591.636	0.33
591.974	0.33
592.313	0.33
592.651	0.33
592.989	0.33
593.326	0.34
593.664	0.34
594.002	0.34
594.34	0.34
594.678	0.34
595.015	0.34
595.353	0.33
595.691	0.34
596.028	0.34
596.366	0.34
596.703	0.35
597.04	0.35
597.378	0.35
597.715	0.35
598.052	0.36
598.389	0.36
598.726	0.36
599.064	0.36
599.401	0.37
599.738	0.36
600.074	0.36
600.411	0.36
600.748	0.36
601.085	0.36
601.422	0.36
601.758	0.36
602.095	0.36
602.432	0.36
602.768	0.36
603.105	0.36
603.441	0.36
603.777	0.37
604.114	0.37
604.45	0.36
604.786	0.37
605.122	0.37
605.459	0.37
605.795	0.36
606.131	0.36
606.467	0.37
606.803	0.36
607.139	0.37
607.474	0.36
607.81	0.36
608.146	0.36
608.482	0.36
608.817	0.36
609.153	0.36
609.488	0.36
609.824	0.36
610.159	0.35
610.495	0.35
610.83	0.35
611.165	0.36
611.5	0.35
611.836	0.36
612.171	0.35
612.506	0.35
612.841	0.35
613.176	0.35
613.511	0.35
613.845	0.35
614.18	0.35
614.515	0.35
614.85	0.35
615.184	0.35
615.519	0.35
615.854	0.35
616.188	0.34
616.523	0.34
616.857	0.34
617.191	0.34
617.526	0.34
617.86	0.34
618.194	0.34
618.528	0.34
618.862	0.35
619.196	0.34
619.53	0.34
619.864	0.34
620.198	0.34
620.532	0.34
620.866	0.34
621.2	0.34
621.533	0.33
621.867	0.34
622.201	0.33
622.534	0.33
622.868	0.33
623.201	0.33
623.534	0.33
623.868	0.33
624.201	0.33
624.534	0.32
624.868	0.32
625.201	0.32
625.534	0.32
625.867	0.32
626.2	0.32
626.533	0.32
626.865	0.32
627.198	0.32
627.531	0.31
627.864	0.31
628.196	0.31
628.529	0.31
628.862	0.31
629.194	0.31
629.527	0.31
629.859	0.3
630.191	0.3
630.524	0.3
630.856	0.3
631.188	0.29
631.52	0.3
631.852	0.29
632.184	0.29
632.516	0.29
632.848	0.29
633.18	0.29
633.512	0.28
633.844	0.28
634.175	0.28
634.507	0.27
634.839	0.27
635.17	0.27
635.502	0.27
635.833	0.27
636.165	0.27
636.496	0.27
636.827	0.27
637.159	0.27
637.49	0.26
637.821	0.26
638.152	0.26
638.483	0.26
638.814	0.25
639.145	0.25
639.476	0.25
639.807	0.25
640.137	0.25
640.468	0.25
640.799	0.24
641.129	0.24
641.46	0.25
641.791	0.24
642.121	0.24
642.451	0.23
642.782	0.23
643.112	0.23
643.442	0.23
643.773	0.23
644.103	0.23
644.433	0.22
644.763	0.22
645.093	0.22
645.423	0.22
645.753	0.22
646.082	0.22
646.412	0.22
646.742	0.22
647.072	0.21
647.401	0.21
647.731	0.22
648.06	0.21
648.39	0.22
648.719	0.21
649.048	0.22
649.378	0.21
649.707	0.21
650.036	0.21
650.365	0.21
650.694	0.21
651.023	0.21
651.352	0.21
651.681	0.21
652.01	0.2
652.339	0.21
652.668	0.21
652.996	0.2
653.325	0.21
653.654	0.2
653.982	0.2
654.311	0.2
654.639	0.2
654.967	0.21
655.296	0.2
655.624	0.2
655.952	0.2
656.28	0.2
656.609	0.2
656.937	0.2
657.265	0.2
657.593	0.19
657.92	0.07
658.248	0.01
658.576	0.01
658.904	0.06
659.231	0.14
659.559	0.19
659.887	0.19
660.214	0.2
660.542	0.2
660.869	0.2
661.196	0.2
661.524	0.2
661.851	0.2
662.178	0.2
662.505	0.2
662.832	0.2
663.159	0.2
663.486	0.2
663.813	0.2
664.14	0.2
664.467	0.2
664.794	0.2
665.12	0.2
665.447	0.2
665.774	0.2
666.1	0.2
666.427	0.2
666.753	0.19
667.079	0.2
667.406	0.19
667.732	0.19
668.058	0.19
668.384	0.19
668.71	0.19
669.036	0.19
669.362	0.19
669.688	0.19
670.014	0.19
670.34	0.19
670.666	0.19
670.991	0.19
671.317	0.18
671.643	0.18
671.968	0.18
672.294	0.18
672.619	0.18
672.945	0.18
673.27	0.17
673.595	0.17
673.92	0.17
674.246	0.17
674.571	0.17
674.896	0.17
675.221	0.17
675.546	0.17
675.87	0.17
676.195	0.17
676.52	0.17
676.845	0.17
677.169	0.17
677.494	0.17
677.819	0.17
678.143	0.17
678.468	0.16
678.792	0.17
679.116	0.17
679.44	0.16
679.765	0.16
680.089	0.16
680.413	0.16
680.737	0.15
681.061	0.15
681.385	0.15
681.709	0.15
682.033	0.15
682.356	0.14
682.68	0.14
683.004	0.14
683.327	0.14
683.651	0.14
683.974	0.14
684.298	0.14
684.621	0.14
684.944	0.13
685.268	0.14
685.591	0.13
685.914	0.13
686.237	0.13
686.56	0.13
686.883	0.13
687.206	0.13
687.529	0.12
687.852	0.12
688.175	0.12
688.497	0.12
688.82	0.12
689.142	0.12
689.465	0.12
689.787	0.12
690.11	0.11
690.432	0.11
690.755	0.11
691.077	0.11
691.399	0.11
691.721	0.11
692.043	0.11
692.365	0.11
692.687	0.11
693.009	0.11
693.331	0.11
693.653	0.1
693.974	0.11
694.296	0.11
694.618	0.1
694.939	0.1
695.261	0.1
695.582	0.1
695.904	0.1
696.225	0.1
696.546	0.1
696.868	0.1
697.189	0.1
697.51	0.1
697.831	0.09
698.152	0.09
698.473	0.09
698.794	0.09
699.114	0.09
699.435	0.09
699.756	0.08
700.077	0.09
700.397	0.09
700.718	0.09
701.038	0.09
701.359	0.09
701.679	0.09
701.999	0.09
702.32	0.09
702.64	0.09
702.96	0.09
703.28	0.09
703.6	0.08
703.92	0.08
704.24	0.08
704.56	0.08
704.879	0.08
705.199	0.08
705.519	0.08
705.838	0.08
706.158	0.08
706.478	0.08
706.797	0.08
707.116	0.08
707.436	0.08
707.755	0.07
708.074	0.07
708.393	0.07
708.712	0.08
709.031	0.07
709.35	0.07
709.669	0.07
709.988	0.07
710.307	0.07
710.626	0.07
710.944	0.07
711.263	0.07
711.582	0.07
711.9	0.07
712.219	0.07
712.537	0.07
712.855	0.07
713.174	0.07
713.492	0.07
713.81	0.07
714.128	0.07
714.446	0.07
714.764	0.07
715.082	0.07
715.4	0.07
715.718	0.07
716.035	0.07
716.353	0.07
716.671	0.07
716.988	0.07
717.306	0.07
717.623	0.07
717.941	0.08
718.258	0.08
718.575	0.08
718.893	0.08
719.21	0.08
719.527	0.08
719.844	0.08
720.161	0.08
720.478	0.08
720.795	0.08
721.112	0.08
721.428	0.08
721.745	0.08
722.062	0.08
722.378	0.08
722.695	0.08
723.011	0.08
723.328	0.08
723.644	0.08
723.96	0.08
724.276	0.08
724.593	0.08
724.909	0.08
725.225	0.08
725.541	0.08
725.857	0.08
726.173	0.08
726.488	0.08
726.804	0.08
727.12	0.08
727.435	0.08
727.751	0.08
728.067	0.08
728.382	0.09
728.697	0.09
729.013	0.09
729.328	0.09
729.643	0.09
729.958	0.08
730.273	0.09
730.588	0.08
730.903	0.09
731.218	0.09
731.533	0.08
731.848	0.09
732.163	0.08
732.477	0.08
732.792	0.08
733.107	0.08
733.421	0.08
733.736	0.08
734.05	0.08
734.364	0.08
734.678	0.08
734.993	0.08
735.307	0.08
735.621	0.08
735.935	0.08
736.249	0.08
736.563	0.08
736.877	0.08
737.19	0.08
737.504	0.08
737.818	0.08
738.131	0.08
738.445	0.08
738.758	0.08
739.072	0.08
739.385	0.08
739.698	0.07
740.012	0.07
740.325	0.07
740.638	0.07
740.951	0.07
741.264	0.07
741.577	0.07
741.89	0.07
742.203	0.08
742.515	0.08
742.828	0.08
743.141	0.08
743.453	0.07
743.766	0.07
744.078	0.07
744.391	0.07
744.703	0.07
745.015	0.07
745.327	0.07
745.639	0.06
745.952	0.06
746.264	0.06
746.575	0.06
746.887	0.06
747.199	0.07
747.511	0.06
747.823	0.06
748.134	0.06
748.446	0.06
748.757	0.06
749.069	0.06
749.38	0.07
749.692	0.06
750.003	0.06
750.314	0.06
750.625	0.06
750.936	0.07
751.248	0.06
751.559	0.06
751.869	0.06
752.18	0.06
752.491	0.06
752.802	0.06
753.112	0.06
753.423	0.05
753.734	0.05
754.044	0.05
754.355	0.05
754.665	0.05
754.975	0.05
755.285	0.05
755.596	0.05
755.906	0.05
756.216	0.05
756.526	0.05
756.836	0.05
757.146	0.05
757.455	0.05
757.765	0.04
758.075	0.05
758.385	0.04
758.694	0.04
759.004	0.04
759.313	0.04
759.622	0.04
759.932	0.04
760.241	0.05
760.55	0.05
760.859	0.05
761.168	0.05
761.477	0.05
761.786	0.05
762.095	0.05
762.404	0.05
762.713	0.05
763.021	0.05
763.33	0.04
763.639	0.04
763.947	0.05
764.256	0.05
764.564	0.05
764.872	0.05
765.181	0.05
765.489	0.04
765.797	0.04
766.105	0.04
766.413	0.04
766.721	0.04
767.029	0.04
767.337	0.04
767.644	0.04
767.952	0.04
768.26	0.04
768.567	0.04
768.875	0.04
769.182	0.04
769.49	0.04
769.797	0.04
770.104	0.03
770.411	0.03
770.718	0.03
771.026	0.03
771.333	0.03
771.639	0.03
771.946	0.03
772.253	0.03
772.56	0.03
772.867	0.03
773.173	0.04
773.48	0.04
773.786	0.03
774.093	0.03
774.399	0.03
774.705	0.03
775.012	0.03
775.318	0.03
775.624	0.03
775.93	0.03
776.236	0.03
776.542	0.03
776.848	0.03
777.154	0.03
777.459	0.03
777.765	0.03
778.071	0.03
778.376	0.03
778.682	0.04
778.987	0.04
779.292	0.04
779.598	0.04
779.903	0.04
780.208	0.04
780.513	0.04
780.818	0.04
781.123	0.03
781.428	0.03
781.733	0.03
782.038	0.04
782.343	0.04
782.647	0.04
782.952	0.04
783.256	0.04
783.561	0.04
783.865	0.03
784.17	0.03
784.474	0.03
784.778	0.03
785.082	0.03
785.386	0.03
785.69	0.03
785.994	0.03
786.298	0.04
786.602	0.04
786.906	0.04
787.209	0.03
787.513	0.03
787.817	0.03
788.12	0.03
788.424	0.03
788.727	0.03
789.03	0.03
789.333	0.03
789.637	0.03
789.94	0.03
790.243	0.03
790.546	0.03
790.849	0.03
791.152	0.02
791.454	0.02
791.757	0.02
792.06	0.02
792.362	0.03
792.665	0.02
792.967	0.03
793.27	0.03
793.572	0.03
793.874	0.03
794.177	0.03
794.479	0.03
794.781	0.03
795.083	0.03
795.385	0.04
795.687	0.03
795.989	0.03
796.29	0.03
796.592	0.04
796.894	0.04
797.195	0.04
797.497	0.03
797.798	0.03
798.1	0.03
798.401	0.04
798.702	0.04
799.003	0.04
799.304	0.04
799.605	0.03
799.906	0.03
800.207	0.03
800.508	0.02
800.809	0.03
801.11	0.03
801.41	0.03
801.711	0.04
802.011	0.03
802.312	0.03
802.612	0.03
802.913	0.03
803.213	0.04
803.513	0.04
803.813	0.04
804.113	0.03
804.413	0.03
804.713	0.03
805.013	0.04
805.313	0.03
805.613	0.03
805.912	0.03
806.212	0.03
806.511	0.03
806.811	0.03
807.11	0.03
807.41	0.03
807.709	0.03
808.008	0.02
808.307	0.03
808.606	0.03
808.905	0.03
809.204	0.03
809.503	0.03
809.802	0.03
810.101	0.03
810.399	0.04
810.698	0.03
810.997	0.04
811.295	0.04
811.593	0.04
811.892	0.04
812.19	0.04
812.488	0.03
812.786	0.04
813.084	0.04
813.383	0.04
813.68	0.04
813.978	0.04
814.276	0.04
814.574	0.05
814.872	0.05
815.169	0.05
815.467	0.04
815.764	0.04
816.062	0.05
816.359	0.04
816.656	0.04
816.954	0.04
817.251	0.04
817.548	0.05
817.845	0.05
818.142	0.04
818.439	0.04
818.735	0.04
819.032	0.03
819.329	0.03
819.626	0.04
819.922	0.04
820.219	0.04
820.515	0.04
820.811	0.05
821.108	0.04
821.404	0.04
821.7	0.04
821.996	0.04
822.292	0.04
822.588	0.04
822.884	0.04
823.18	0.04
823.475	0.04
823.771	0.04
824.067	0.03
824.362	0.03
824.658	0.04
824.953	0.03
825.249	0.03
825.544	0.04
825.839	0.04
826.134	0.04
826.429	0.04
826.724	0.04
827.019	0.04
827.314	0.04
827.609	0.04
827.904	0.04
828.198	0.04
828.493	0.04
828.787	0.04
829.082	0.04
829.376	0.04
829.671	0.04
829.965	0.04
830.259	0.04
830.553	0.04
830.847	0.04
831.141	0.04
831.435	0.04
831.729	0.04
832.023	0.04
832.317	0.05
832.61	0.05
832.904	0.05
833.197	0.05
833.491	0.05
833.784	0.05
834.077	0.05
834.371	0.05
834.664	0.05
834.957	0.05
835.25	0.05
835.543	0.05
835.836	0.05
836.129	0.04
836.421	0.04
836.714	0.04
837.007	0.05
837.299	0.04
837.592	0.05
837.884	0.04
838.177	0.03
838.469	0.04
838.761	0.04
839.053	0.04
839.345	0.04
839.637	0.04
839.929	0.04
840.221	0.03
840.513	0.04
840.805	0.03
841.096	0.05
841.388	0.05
841.68	0.04
841.971	0.04
842.262	0.04
842.554	0.04
842.845	0.04
843.136	0.04
843.427	0.04
843.718	0.05
844.009	0.04
844.3	0.04
844.591	0.05
844.882	0.05
845.173	0.05
845.463	0.04
845.754	0.05
846.044	0.06
846.335	0.06
846.625	0.05
846.915	0.05
847.206	0.04
847.496	0.04
847.786	0.05
848.076	0.05
848.366	0.05
848.656	0.05
848.945	0.05
849.235	0.05
849.525	0.04
849.814	0.05
850.104	0.05
850.393	0.03
850.683	0.04
850.972	0.05
851.261	0.04
851.551	0.04
851.84	0.05
852.129	0.05
852.418	0.04
852.707	0.04
852.995	0.04
853.284	0.04
853.573	0.05
853.862	0.06
854.15	0.04
854.439	0.04
854.727	0.05
855.015	0.06
855.304	0.05
855.592	0.04
855.88	0.03
856.168	0.04
856.456	0.04
856.744	0.04
857.032	0.05
857.32	0.05
857.607	0.04
857.895	0.04
858.183	0.05
858.47	0.04
858.757	0.05
859.045	0.05
859.332	0.04
859.619	0.03
859.907	0.04
860.194	0.05
860.481	0.04
860.768	0.04
861.054	0.04
861.341	0.04
861.628	0.06
861.915	0.04
862.201	0.03
862.488	0.03
862.774	0.04
863.061	0.04
863.347	0.03
863.633	0.05
863.919	0.03
864.205	0.05
864.491	0.04
864.777	0.04
865.063	0.04
865.349	0.05
865.635	0.03
865.92	0.02
866.206	0.04
866.492	0.05
866.777	0.04
867.062	0.03
867.348	0.02
867.633	0.06
867.918	0.05
868.203	0.04
868.488	0.03
868.773	0.03
869.058	0.03
869.343	0.03
869.628	0.04
869.912	0.02
870.197	-0
870.482	0
870.766	0.04
871.05	0.05
871.335	-0.01
871.619	0.01
871.903	0
872.187	0.03
872.471	-0.01
872.755	0.03
873.039	0.01
873.323	0.07
873.607	-0.01
873.89	0.03
874.174	0.02
874.458	-0
874.741	0.01
875.024	0
875.308	-0.03
875.591	-0.01
875.874	-0.01
876.157	0.01
876.44	0
876.723	0.11
877.006	0.07
877.289	-0.01
877.572	0.1
877.854	0
878.137	0.03
878.42	-0.04
878.702	-0.04
878.984	-0
879.267	0.05
879.549	0.03
879.831	-0
880.113	0.06
880.395	-0.06
880.677	0.02
880.959	0.04
