Data from Rubpy_EV_600_EDTA_Buffered_Absorbance_12-52-42-014.txt Node
Date: Tue Jun 30 12:52:42 BST 2026
User: fpm-admin
Spectrometer: OFX00224
Trigger mode: 0
Integration Time (sec): 7.000000E-2
Scans to average: 3
Nonlinearity correction enabled: false
Boxcar width: 0
Storing dark spectrum: false
XAxis mode: Wavelengths
Number of Pixels in Spectrum: 2136
>>>>>Begin Spectral Data<<<<<
154.91	-0.56
155.289	0.98
155.669	0.48
156.048	-0
156.428	-0
156.807	-0
157.186	1.4
157.566	-0
157.945	-0
158.325	1.3
158.704	-0
159.083	-0.46
159.462	-0
159.842	-0.05
160.221	-0
160.6	0.21
160.979	-0.13
161.359	-0
161.738	0.03
162.117	-0
162.496	0.45
162.875	0.08
163.254	0.1
163.633	-0
164.012	-0
164.391	-0
164.77	0.56
165.149	0.29
165.528	-0
165.907	-0.34
166.286	-0.3
166.665	-0.36
167.044	-0
167.423	0.3
167.802	0.58
168.181	0.15
168.559	-0
168.938	0.65
169.317	-0.25
169.696	-0.04
170.074	0.43
170.453	0.04
170.832	0.48
171.21	0.24
171.589	0.67
171.968	-0
172.346	0.27
172.725	-0
173.103	-0.32
173.482	-0
173.861	-0.24
174.239	0.05
174.617	-0
174.996	0.48
175.374	-0
175.753	-0.95
176.131	-0
176.51	-0.54
176.888	0.25
177.266	0.03
177.645	0
178.023	0.55
178.401	-0.17
178.779	0.02
179.158	0.21
179.536	-0
179.914	0.08
180.292	0.39
180.67	-0
181.048	-0
181.427	-1.45
181.805	-0
182.183	-0.8
182.561	-0
182.939	-0.1
183.317	1.22
183.695	0.37
184.073	0.49
184.451	-0
184.829	-0.74
185.206	0.94
185.584	-0
185.962	-0.82
186.34	-0
186.718	-0.36
187.096	-0.25
187.473	-0.21
187.851	-0.3
188.229	0.18
188.607	-0.01
188.984	0.18
189.362	0.08
189.74	0.04
190.117	0.05
190.495	0.01
190.872	-0.03
191.25	0.09
191.627	0.01
192.005	0.08
192.382	0.12
192.76	0.08
193.137	0.1
193.515	0.1
193.892	0.09
194.269	-0.02
194.647	0.03
195.024	-0.01
195.401	0.05
195.779	0.03
196.156	-0.01
196.533	0.02
196.91	0.07
197.288	-0.03
197.665	-0.04
198.042	-0.01
198.419	-0.02
198.796	-0.01
199.173	0.04
199.55	-0.01
199.927	0.03
200.304	0.04
200.681	0.05
201.058	-0.04
201.435	0.11
201.812	0.06
202.189	0.06
202.566	0.1
202.943	-0.03
203.32	-0.01
203.697	0.09
204.073	-0.08
204.45	0.05
204.827	0.05
205.204	0.09
205.58	0.11
205.957	0.04
206.334	0.06
206.71	0.07
207.087	0.16
207.464	-0.01
207.84	0.08
208.217	0.03
208.593	0.08
208.97	0.1
209.346	0.01
209.723	0.04
210.099	-0
210.476	0.01
210.852	0.08
211.228	-0.02
211.605	-0.01
211.981	0.12
212.357	-0.06
212.733	0.04
213.11	0.06
213.486	0.05
213.862	0
214.238	0.12
214.614	0.03
214.991	0.08
215.367	0.14
215.743	0.03
216.119	0.09
216.495	-0.15
216.871	0.12
217.247	0.07
217.623	0.02
217.999	0.18
218.375	0.06
218.751	-0.08
219.127	0.1
219.502	0.08
219.878	0.04
220.254	0.04
220.63	0.01
221.006	0.06
221.381	0.04
221.757	0.07
222.133	0.03
222.508	0.05
222.884	0.03
223.26	0.04
223.635	0.02
224.011	0.03
224.386	0.01
224.762	0.07
225.137	0.05
225.513	0.03
225.888	0.14
226.264	0.07
226.639	0.05
227.014	0.1
227.39	0.09
227.765	0.13
228.14	0.07
228.516	0.04
228.891	0.06
229.266	0.1
229.641	0.09
230.017	0.07
230.392	0.1
230.767	0.04
231.142	0.04
231.517	0.02
231.892	0.07
232.267	0.07
232.642	0.09
233.017	-0.01
233.392	0.09
233.767	0.04
234.142	0.05
234.517	0.04
234.892	0.04
235.267	0.01
235.641	0.01
236.016	-0.02
236.391	0.06
236.766	-0.01
237.14	0.05
237.515	0.09
237.89	0.05
238.264	-0.01
238.639	0.07
239.014	-0
239.388	-0.03
239.763	0.05
240.137	0.04
240.512	0.07
240.886	-0
241.261	-0.01
241.635	0.05
242.009	0.05
242.384	0.02
242.758	0.04
243.132	0.04
243.507	0.02
243.881	0.03
244.255	0.08
244.629	0.1
245.004	0.05
245.378	0.04
245.752	0.05
246.126	0.05
246.5	0.06
246.874	0.03
247.248	0.06
247.622	0
247.996	0.05
248.37	0.04
248.744	0.01
249.118	0.03
249.492	0.07
249.866	0.03
250.24	0.01
250.613	-0
250.987	0.09
251.361	0.08
251.735	0.07
252.108	-0
252.482	0.06
252.856	0.06
253.229	0.03
253.603	0.02
253.977	0.04
254.35	0.1
254.724	0.02
255.097	0.08
255.471	0.01
255.844	0.08
256.218	0.09
256.591	0.04
256.964	0.03
257.338	0.04
257.711	0.12
258.084	0.01
258.458	0.07
258.831	0.16
259.204	0.05
259.577	0.07
259.95	0.09
260.323	-0.04
260.697	0.06
261.07	0.12
261.443	0.03
261.816	0.05
262.189	0.04
262.562	0.04
262.935	0.1
263.308	0.02
263.68	-0.01
264.053	0.09
264.426	0.07
264.799	0
265.172	0.08
265.545	0.02
265.917	0.07
266.29	0.1
266.663	0.05
267.035	0.06
267.408	0.02
267.781	0.04
268.153	0.02
268.526	0.04
268.898	0.06
269.271	0.05
269.643	0.03
270.016	0.08
270.388	0.06
270.76	0.05
271.133	0.07
271.505	-0
271.877	0.02
272.25	0
272.622	0.04
272.994	0.09
273.366	0.08
273.739	0.07
274.111	0
274.483	-0.02
274.855	0.02
275.227	0.05
275.599	-0.01
275.971	0.09
276.343	0.04
276.715	0.04
277.087	0.06
277.459	0.06
277.831	0.05
278.203	0.07
278.574	0.11
278.946	0.04
279.318	0.06
279.69	0.06
280.061	0.06
280.433	0.03
280.805	0.06
281.176	-0
281.548	-0.01
281.92	-0.01
282.291	0.02
282.663	0.07
283.034	0.01
283.406	0.06
283.777	0.07
284.148	0.02
284.52	0.05
284.891	0.05
285.262	0.02
285.634	0.1
286.005	0.02
286.376	0.03
286.747	0.08
287.119	0.09
287.49	-0
287.861	0.05
288.232	0.08
288.603	0.04
288.974	-0.01
289.345	0.03
289.716	-0
290.087	-0.01
290.458	0.02
290.829	-0.05
291.2	-0.01
291.571	0.02
291.941	0.1
292.312	0.06
292.683	0.04
293.054	0.03
293.424	0.03
293.795	0.07
294.166	0.04
294.536	0.03
294.907	0.02
295.277	0.1
295.648	-0.02
296.018	0.04
296.389	0.01
296.759	0.06
297.13	-0.01
297.5	0.04
297.871	0.02
298.241	0.01
298.611	0.03
298.981	0.05
299.352	0.03
299.722	0.02
300.092	0
300.462	0.04
300.832	0.02
301.202	0.01
301.573	0.01
301.943	0.03
302.313	0.02
302.683	0.01
303.053	0.02
303.422	0.01
303.792	-0
304.162	0.01
304.532	0.01
304.902	0.01
305.272	0.01
305.641	0.02
306.011	0.02
306.381	0.02
306.75	0.01
307.12	0.01
307.49	0.01
307.859	0.02
308.229	0.01
308.598	0.02
308.968	0.01
309.337	0.01
309.707	0.01
310.076	0.01
310.445	0.01
310.815	0.02
311.184	0.03
311.553	0.01
311.923	0.02
312.292	0
312.661	0.02
313.03	0.01
313.399	0.01
313.768	0.02
314.137	0.01
314.506	0.02
314.875	0.02
315.244	0.02
315.613	0.01
315.982	0.02
316.351	0.01
316.72	0.02
317.089	0.01
317.458	0.02
317.826	0.02
318.195	0.01
318.564	0.01
318.933	0.02
319.301	0.02
319.67	0.01
320.038	0.01
320.407	0.02
320.775	0.01
321.144	0.02
321.512	0.02
321.881	0.02
322.249	0.02
322.618	0.02
322.986	0.01
323.354	0.02
323.723	0.01
324.091	0.01
324.459	0.01
324.827	0.01
325.195	0.01
325.564	0.02
325.932	0.02
326.3	0.01
326.668	0.01
327.036	0.01
327.404	0.01
327.772	0.01
328.14	0.02
328.508	0.02
328.875	0.01
329.243	0.01
329.611	0.01
329.979	0.01
330.346	0.01
330.714	0.01
331.082	0.01
331.449	0.01
331.817	0.01
332.185	0.01
332.552	0.02
332.92	0.01
333.287	0.02
333.655	0.01
334.022	0.01
334.389	0.02
334.757	0.01
335.124	0.01
335.491	0.01
335.859	0.01
336.226	0.02
336.593	0.02
336.96	0.02
337.327	0.01
337.695	0.02
338.062	0.02
338.429	0.01
338.796	0.02
339.163	0.02
339.53	0.01
339.897	0.02
340.263	0.02
340.63	0.02
340.997	0.02
341.364	0.02
341.731	0.02
342.097	0.02
342.464	0.02
342.831	0.02
343.197	0.02
343.564	0.02
343.931	0.02
344.297	0.02
344.664	0.02
345.03	0.02
345.396	0.02
345.763	0.02
346.129	0.03
346.496	0.02
346.862	0.02
347.228	0.02
347.594	0.02
347.961	0.03
348.327	0.03
348.693	0.02
349.059	0.02
349.425	0.03
349.791	0.03
350.157	0.03
350.523	0.03
350.889	0.03
351.255	0.03
351.621	0.03
351.987	0.03
352.353	0.03
352.719	0.03
353.084	0.03
353.45	0.03
353.816	0.03
354.181	0.03
354.547	0.03
354.913	0.03
355.278	0.03
355.644	0.03
356.009	0.04
356.375	0.04
356.74	0.04
357.106	0.04
357.471	0.04
357.836	0.04
358.202	0.04
358.567	0.04
358.932	0.05
359.297	0.04
359.663	0.05
360.028	0.05
360.393	0.05
360.758	0.04
361.123	0.05
361.488	0.04
361.853	0.05
362.218	0.05
362.583	0.05
362.948	0.05
363.312	0.05
363.677	0.05
364.042	0.06
364.407	0.06
364.772	0.06
365.136	0.06
365.501	0.06
365.865	0.06
366.23	0.06
366.595	0.06
366.959	0.06
367.324	0.07
367.688	0.07
368.052	0.07
368.417	0.07
368.781	0.07
369.145	0.07
369.51	0.07
369.874	0.07
370.238	0.07
370.602	0.07
370.967	0.07
371.331	0.07
371.695	0.07
372.059	0.07
372.423	0.07
372.787	0.07
373.151	0.07
373.515	0.07
373.878	0.07
374.242	0.07
374.606	0.07
374.97	0.07
375.334	0.07
375.697	0.07
376.061	0.07
376.425	0.08
376.788	0.08
377.152	0.07
377.515	0.08
377.879	0.08
378.242	0.08
378.606	0.08
378.969	0.08
379.333	0.08
379.696	0.08
380.059	0.08
380.422	0.09
380.786	0.08
381.149	0.09
381.512	0.09
381.875	0.09
382.238	0.09
382.601	0.1
382.964	0.1
383.327	0.1
383.69	0.1
384.053	0.11
384.416	0.11
384.779	0.11
385.142	0.12
385.504	0.11
385.867	0.12
386.23	0.12
386.593	0.12
386.955	0.12
387.318	0.12
387.68	0.12
388.043	0.12
388.405	0.13
388.768	0.12
389.13	0.12
389.493	0.12
389.855	0.12
390.217	0.11
390.58	0.12
390.942	0.12
391.304	0.12
391.666	0.12
392.028	0.12
392.391	0.13
392.753	0.12
393.115	0.13
393.477	0.14
393.839	0.14
394.201	0.14
394.563	0.16
394.924	0.16
395.286	0.17
395.648	0.17
396.01	0.18
396.371	0.18
396.733	0.19
397.095	0.19
397.456	0.19
397.818	0.2
398.18	0.19
398.541	0.19
398.903	0.18
399.264	0.18
399.625	0.18
399.987	0.17
400.348	0.16
400.709	0.15
401.071	0.14
401.432	0.13
401.793	0.13
402.154	0.12
402.515	0.12
402.876	0.1
403.238	0.1
403.599	0.09
403.96	0.08
404.32	0.08
404.681	0.07
405.042	0.07
405.403	0.06
405.764	0.06
406.125	0.05
406.485	0.05
406.846	0.05
407.207	0.04
407.567	0.04
407.928	0.04
408.288	0.04
408.649	0.03
409.009	0.03
409.37	0.04
409.73	0.03
410.091	0.03
410.451	0.03
410.811	0.03
411.171	0.03
411.532	0.02
411.892	0.02
412.252	0.02
412.612	0.02
412.972	0.02
413.332	0.02
413.692	0.02
414.052	0.02
414.412	0.02
414.772	0.02
415.132	0.02
415.492	0.02
415.851	0.02
416.211	0.02
416.571	0.01
416.931	0.01
417.29	0.02
417.65	0.01
418.009	0.02
418.369	0.01
418.728	0.02
419.088	0.01
419.447	0.01
419.807	0.01
420.166	0.01
420.525	0.01
420.884	0.02
421.244	0.02
421.603	0.02
421.962	0.02
422.321	0.01
422.68	0.01
423.039	0.01
423.398	0.02
423.757	0.02
424.116	0.01
424.475	0.02
424.834	0.01
425.193	0.02
425.551	0.01
425.91	0.01
426.269	0.02
426.628	0.01
426.986	0.01
427.345	0.01
427.703	0.01
428.062	0
428.42	0.02
428.779	0.01
429.137	0.01
429.496	0.01
429.854	0.01
430.212	0.01
430.57	0.01
430.929	0.02
431.287	0.01
431.645	0.01
432.003	0.01
432.361	0.01
432.719	0.01
433.077	0.01
433.435	0.01
433.793	0.01
434.151	0.01
434.509	0.01
434.866	0.01
435.224	0.01
435.582	0
435.94	0.01
436.297	0.01
436.655	0.01
437.012	0.01
437.37	0.02
437.727	0.01
438.085	0.01
438.442	0.01
438.8	0.01
439.157	0.01
439.514	0.01
439.872	0.01
440.229	0.01
440.586	0.01
440.943	0.01
441.3	0.02
441.657	0.01
442.014	0
442.371	0.01
442.728	0
443.085	0.01
443.442	0.01
443.799	0
444.156	0.01
444.513	0.01
444.869	0.01
445.226	0.02
445.583	0.01
445.939	0.01
446.296	0.01
446.652	0.02
447.009	0
447.365	0.02
447.722	0.01
448.078	0.01
448.434	0.01
448.791	0.01
449.147	0
449.503	0.01
449.859	0.01
450.215	-0
450.571	0.01
450.928	0.01
451.284	0.01
451.64	0.01
451.995	-0
452.351	-0
452.707	0.01
453.063	0
453.419	0
453.775	-0
454.13	0.01
454.486	0.01
454.842	0
455.197	0
455.553	0
455.908	0
456.264	-0.01
456.619	-0.01
456.975	-0
457.33	-0
457.685	-0.01
458.04	-0
458.396	-0.01
458.751	-0
459.106	-0.01
459.461	-0.01
459.816	-0.01
460.171	-0.01
460.526	-0
460.881	-0.01
461.236	-0.01
461.591	-0.01
461.946	-0.02
462.301	-0.01
462.655	-0.01
463.01	-0.02
463.365	-0.01
463.719	-0.02
464.074	-0.02
464.428	-0.02
464.783	-0.02
465.137	-0.03
465.492	-0.02
465.846	-0.02
466.201	-0.02
466.555	-0.02
466.909	-0.03
467.263	-0.02
467.618	-0.02
467.972	-0.02
468.326	-0.03
468.68	-0.03
469.034	-0.03
469.388	-0.03
469.742	-0.03
470.096	-0.03
470.45	-0.03
470.804	-0.03
471.157	-0.02
471.511	-0.03
471.865	-0.02
472.218	-0.02
472.572	-0.03
472.926	-0.02
473.279	-0.02
473.633	-0.03
473.986	-0.02
474.34	-0.02
474.693	-0.01
475.046	-0.02
475.4	-0.01
475.753	-0.02
476.106	-0.01
476.459	-0.01
476.812	-0.01
477.165	-0.01
477.519	-0.01
477.872	-0.01
478.224	-0
478.577	-0
478.93	-0.01
479.283	-0
479.636	-0.01
479.989	-0
480.341	-0
480.694	-0.01
481.047	-0
481.399	-0
481.752	-0
482.104	-0
482.457	-0
482.809	-0
483.162	0
483.514	0
483.866	-0
484.219	0
484.571	-0
484.923	0
485.275	-0
485.627	0
485.979	0
486.331	0.01
486.683	0.01
487.035	0
487.387	0.01
487.739	0.01
488.091	0.01
488.443	0.01
488.794	0.01
489.146	0.01
489.498	0
489.849	0.01
490.201	0
490.552	0.01
490.904	0
491.255	0.01
491.607	0
491.958	0.01
492.309	0.01
492.661	0.01
493.012	0.01
493.363	0.01
493.714	0
494.065	0.01
494.416	0.01
494.767	0.01
495.118	0.01
495.469	0.01
495.82	0.01
496.171	0.01
496.522	0.01
496.872	0.01
497.223	0.02
497.574	0.01
497.924	0.02
498.275	0.01
498.626	0.02
498.976	0.01
499.327	0.01
499.677	0.01
500.027	0.01
500.378	0.01
500.728	0.01
501.078	0.01
501.428	0.01
501.779	0.02
502.129	0.02
502.479	0.02
502.829	0.01
503.179	0.02
503.529	0.01
503.879	0.01
504.229	0.02
504.578	0.01
504.928	0.02
505.278	0.01
505.628	0.02
505.977	0.02
506.327	0.02
506.676	0.02
507.026	0.02
507.375	0.02
507.725	0.02
508.074	0.02
508.424	0.02
508.773	0.02
509.122	0.02
509.471	0.02
509.82	0.02
510.17	0.02
510.519	0.02
510.868	0.02
511.217	0.02
511.566	0.02
511.915	0.02
512.263	0.02
512.612	0.02
512.961	0.02
513.31	0.02
513.659	0.02
514.007	0.02
514.356	0.02
514.704	0.02
515.053	0.03
515.401	0.02
515.75	0.03
516.098	0.03
516.447	0.03
516.795	0.02
517.143	0.02
517.491	0.02
517.839	0.03
518.188	0.02
518.536	0.02
518.884	0.02
519.232	0.03
519.58	0.03
519.928	0.03
520.275	0.02
520.623	0.03
520.971	0.03
521.319	0.03
521.666	0.03
522.014	0.03
522.362	0.03
522.709	0.03
523.057	0.03
523.404	0.03
523.752	0.03
524.099	0.03
524.446	0.03
524.794	0.03
525.141	0.03
525.488	0.03
525.835	0.03
526.182	0.03
526.529	0.03
526.876	0.04
527.223	0.03
527.57	0.03
527.917	0.03
528.264	0.03
528.611	0.03
528.958	0.03
529.304	0.03
529.651	0.04
529.998	0.04
530.344	0.03
530.691	0.04
531.037	0.03
531.384	0.04
531.73	0.03
532.076	0.04
532.423	0.04
532.769	0.03
533.115	0.04
533.461	0.04
533.807	0.04
534.154	0.03
534.5	0.04
534.846	0.04
535.192	0.04
535.537	0.04
535.883	0.04
536.229	0.03
536.575	0.04
536.921	0.03
537.266	0.04
537.612	0.04
537.957	0.04
538.303	0.04
538.649	0.04
538.994	0.04
539.339	0.04
539.685	0.04
540.03	0.04
540.375	0.04
540.721	0.04
541.066	0.04
541.411	0.05
541.756	0.04
542.101	0.04
542.446	0.05
542.791	0.05
543.136	0.04
543.481	0.04
543.825	0.05
544.17	0.05
544.515	0.04
544.86	0.05
545.204	0.04
545.549	0.04
545.893	0.05
546.238	0.05
546.582	0.05
546.927	0.05
547.271	0.05
547.615	0.04
547.96	0.05
548.304	0.05
548.648	0.05
548.992	0.04
549.336	0.05
549.68	0.05
550.024	0.05
550.368	0.05
550.712	0.05
551.056	0.05
551.4	0.05
551.743	0.05
552.087	0.05
552.431	0.05
552.774	0.05
553.118	0.05
553.462	0.05
553.805	0.05
554.148	0.05
554.492	0.05
554.835	0.05
555.178	0.05
555.522	0.06
555.865	0.05
556.208	0.06
556.551	0.05
556.894	0.05
557.237	0.05
557.58	0.06
557.923	0.05
558.266	0.05
558.609	0.05
558.952	0.05
559.294	0.06
559.637	0.05
559.98	0.05
560.322	0.05
560.665	0.05
561.007	0.05
561.35	0.05
561.692	0.05
562.034	0.05
562.377	0.05
562.719	0.05
563.061	0.05
563.403	0.05
563.745	0.05
564.088	0.05
564.43	0.05
564.772	0.05
565.113	0.05
565.455	0.05
565.797	0.05
566.139	0.05
566.481	0.05
566.822	0.06
567.164	0.05
567.506	0.05
567.847	0.05
568.189	0.05
568.53	0.05
568.872	0.05
569.213	0.06
569.554	0.06
569.895	0.06
570.237	0.06
570.578	0.05
570.919	0.05
571.26	0.05
571.601	0.05
571.942	0.06
572.283	0.05
572.624	0.05
572.965	0.05
573.306	0.05
573.646	0.05
573.987	0.05
574.328	0.05
574.668	0.05
575.009	0.05
575.349	0.05
575.69	0.05
576.03	0.05
576.37	0.05
576.711	0.05
577.051	0.05
577.391	0.05
577.731	0.05
578.072	0.05
578.412	0.05
578.752	0.05
579.092	0.05
579.431	0.05
579.771	0.05
580.111	0.05
580.451	0.05
580.791	0.05
581.13	0.05
581.47	0.05
581.81	0.05
582.149	0.05
582.489	0.05
582.828	0.05
583.167	0.05
583.507	0.04
583.846	0.02
584.185	0.03
584.525	0.04
584.864	0.05
585.203	0.05
585.542	0.05
585.881	0.06
586.22	0.05
586.559	0.05
586.898	0.05
587.236	0.05
587.575	0.05
587.914	0.05
588.252	0.05
588.591	0.05
588.93	0.05
589.268	0.05
589.607	0.05
589.945	0.05
590.283	0.05
590.622	0.06
590.96	0.06
591.298	0.06
591.636	0.06
591.974	0.06
592.313	0.06
592.651	0.06
592.989	0.06
593.326	0.06
593.664	0.06
594.002	0.05
594.34	0.06
594.678	0.06
595.015	0.06
595.353	0.06
595.691	0.06
596.028	0.06
596.366	0.06
596.703	0.06
597.04	0.06
597.378	0.06
597.715	0.06
598.052	0.06
598.389	0.06
598.726	0.07
599.064	0.07
599.401	0.07
599.738	0.06
600.074	0.07
600.411	0.06
600.748	0.06
601.085	0.06
601.422	0.06
601.758	0.06
602.095	0.06
602.432	0.06
602.768	0.06
603.105	0.06
603.441	0.06
603.777	0.06
604.114	0.06
604.45	0.06
604.786	0.06
605.122	0.06
605.459	0.06
605.795	0.06
606.131	0.06
606.467	0.06
606.803	0.06
607.139	0.06
607.474	0.06
607.81	0.06
608.146	0.06
608.482	0.06
608.817	0.06
609.153	0.06
609.488	0.06
609.824	0.06
610.159	0.06
610.495	0.06
610.83	0.06
611.165	0.06
611.5	0.06
611.836	0.06
612.171	0.06
612.506	0.06
612.841	0.07
613.176	0.06
613.511	0.06
613.845	0.06
614.18	0.06
614.515	0.06
614.85	0.06
615.184	0.06
615.519	0.06
615.854	0.06
616.188	0.06
616.523	0.06
616.857	0.06
617.191	0.06
617.526	0.06
617.86	0.06
618.194	0.06
618.528	0.06
618.862	0.06
619.196	0.06
619.53	0.06
619.864	0.06
620.198	0.06
620.532	0.06
620.866	0.06
621.2	0.06
621.533	0.06
621.867	0.06
622.201	0.06
622.534	0.06
622.868	0.06
623.201	0.06
623.534	0.06
623.868	0.06
624.201	0.06
624.534	0.06
624.868	0.06
625.201	0.06
625.534	0.06
625.867	0.06
626.2	0.06
626.533	0.06
626.865	0.06
627.198	0.06
627.531	0.06
627.864	0.06
628.196	0.06
628.529	0.06
628.862	0.06
629.194	0.06
629.527	0.06
629.859	0.06
630.191	0.05
630.524	0.06
630.856	0.06
631.188	0.06
631.52	0.06
631.852	0.05
632.184	0.06
632.516	0.05
632.848	0.05
633.18	0.05
633.512	0.05
633.844	0.05
634.175	0.05
634.507	0.05
634.839	0.05
635.17	0.05
635.502	0.05
635.833	0.05
636.165	0.05
636.496	0.05
636.827	0.06
637.159	0.06
637.49	0.06
637.821	0.05
638.152	0.05
638.483	0.05
638.814	0.05
639.145	0.05
639.476	0.05
639.807	0.05
640.137	0.05
640.468	0.05
640.799	0.05
641.129	0.05
641.46	0.05
641.791	0.06
642.121	0.05
642.451	0.05
642.782	0.05
643.112	0.05
643.442	0.05
643.773	0.05
644.103	0.05
644.433	0.05
644.763	0.05
645.093	0.05
645.423	0.05
645.753	0.05
646.082	0.05
646.412	0.05
646.742	0.05
647.072	0.05
647.401	0.05
647.731	0.05
648.06	0.05
648.39	0.05
648.719	0.05
649.048	0.05
649.378	0.05
649.707	0.04
650.036	0.04
650.365	0.04
650.694	0.04
651.023	0.04
651.352	0.05
651.681	0.05
652.01	0.05
652.339	0.05
652.668	0.05
652.996	0.05
653.325	0.05
653.654	0.05
653.982	0.05
654.311	0.05
654.639	0.05
654.967	0.05
655.296	0.04
655.624	0.05
655.952	0.04
656.28	0.04
656.609	0.04
656.937	0.04
657.265	0.04
657.593	0.03
657.92	0
658.248	-0
658.576	0
658.904	0
659.231	0.01
659.559	0.04
659.887	0.04
660.214	0.04
660.542	0.04
660.869	0.04
661.196	0.04
661.524	0.04
661.851	0.04
662.178	0.04
662.505	0.04
662.832	0.04
663.159	0.04
663.486	0.04
663.813	0.05
664.14	0.05
664.467	0.05
664.794	0.05
665.12	0.05
665.447	0.05
665.774	0.05
666.1	0.05
666.427	0.05
666.753	0.05
667.079	0.05
667.406	0.05
667.732	0.04
668.058	0.04
668.384	0.05
668.71	0.05
669.036	0.04
669.362	0.04
669.688	0.05
670.014	0.05
670.34	0.05
670.666	0.04
670.991	0.04
671.317	0.04
671.643	0.04
671.968	0.04
672.294	0.04
672.619	0.04
672.945	0.04
673.27	0.04
673.595	0.04
673.92	0.04
674.246	0.04
674.571	0.04
674.896	0.04
675.221	0.04
675.546	0.04
675.87	0.04
676.195	0.04
676.52	0.04
676.845	0.04
677.169	0.04
677.494	0.04
677.819	0.04
678.143	0.04
678.468	0.04
678.792	0.04
679.116	0.04
679.44	0.04
679.765	0.04
680.089	0.04
680.413	0.04
680.737	0.03
681.061	0.04
681.385	0.03
681.709	0.03
682.033	0.03
682.356	0.03
682.68	0.04
683.004	0.03
683.327	0.03
683.651	0.03
683.974	0.03
684.298	0.03
684.621	0.04
684.944	0.03
685.268	0.04
685.591	0.03
685.914	0.03
686.237	0.03
686.56	0.03
686.883	0.03
687.206	0.03
687.529	0.03
687.852	0.03
688.175	0.03
688.497	0.03
688.82	0.04
689.142	0.04
689.465	0.03
689.787	0.03
690.11	0.03
690.432	0.03
690.755	0.03
691.077	0.03
691.399	0.03
691.721	0.03
692.043	0.03
692.365	0.03
692.687	0.03
693.009	0.03
693.331	0.03
693.653	0.02
693.974	0.03
694.296	0.03
694.618	0.03
694.939	0.03
695.261	0.03
695.582	0.03
695.904	0.03
696.225	0.03
696.546	0.03
696.868	0.03
697.189	0.03
697.51	0.03
697.831	0.03
698.152	0.03
698.473	0.03
698.794	0.02
699.114	0.02
699.435	0.02
699.756	0.03
700.077	0.03
700.397	0.03
700.718	0.03
701.038	0.03
701.359	0.03
701.679	0.03
701.999	0.03
702.32	0.03
702.64	0.03
702.96	0.03
703.28	0.02
703.6	0.02
703.92	0.02
704.24	0.02
704.56	0.02
704.879	0.02
705.199	0.03
705.519	0.02
705.838	0.02
706.158	0.02
706.478	0.02
706.797	0.03
707.116	0.03
707.436	0.02
707.755	0.03
708.074	0.02
708.393	0.02
708.712	0.02
709.031	0.02
709.35	0.02
709.669	0.02
709.988	0.02
710.307	0.02
710.626	0.02
710.944	0.02
711.263	0.02
711.582	0.03
711.9	0.02
712.219	0.02
712.537	0.02
712.855	0.02
713.174	0.02
713.492	0.02
713.81	0.02
714.128	0.03
714.446	0.02
714.764	0.03
715.082	0.03
715.4	0.03
715.718	0.03
716.035	0.02
716.353	0.02
716.671	0.02
716.988	0.02
717.306	0.02
717.623	0.02
717.941	0.02
718.258	0.02
718.575	0.03
718.893	0.03
719.21	0.02
719.527	0.03
719.844	0.03
720.161	0.03
720.478	0.03
720.795	0.03
721.112	0.02
721.428	0.03
721.745	0.03
722.062	0.03
722.378	0.03
722.695	0.03
723.011	0.03
723.328	0.03
723.644	0.03
723.96	0.03
724.276	0.03
724.593	0.03
724.909	0.03
725.225	0.03
725.541	0.03
725.857	0.03
726.173	0.03
726.488	0.03
726.804	0.03
727.12	0.02
727.435	0.02
727.751	0.02
728.067	0.03
728.382	0.03
728.697	0.03
729.013	0.03
729.328	0.03
729.643	0.03
729.958	0.02
730.273	0.03
730.588	0.02
730.903	0.03
731.218	0.02
731.533	0.02
731.848	0.03
732.163	0.02
732.477	0.02
732.792	0.02
733.107	0.02
733.421	0.02
733.736	0.02
734.05	0.02
734.364	0.02
734.678	0.02
734.993	0.03
735.307	0.03
735.621	0.02
735.935	0.03
736.249	0.03
736.563	0.03
736.877	0.02
737.19	0.03
737.504	0.03
737.818	0.03
738.131	0.02
738.445	0.02
738.758	0.02
739.072	0.02
739.385	0.02
739.698	0.02
740.012	0.02
740.325	0.02
740.638	0.03
740.951	0.02
741.264	0.02
741.577	0.03
741.89	0.03
742.203	0.03
742.515	0.03
742.828	0.03
743.141	0.03
743.453	0.03
743.766	0.02
744.078	0.03
744.391	0.02
744.703	0.02
745.015	0.02
745.327	0.02
745.639	0.02
745.952	0.02
746.264	0.02
746.575	0.02
746.887	0.02
747.199	0.03
747.511	0.02
747.823	0.03
748.134	0.03
748.446	0.03
748.757	0.03
749.069	0.03
749.38	0.03
749.692	0.03
750.003	0.03
750.314	0.03
750.625	0.03
750.936	0.03
751.248	0.03
751.559	0.03
751.869	0.03
752.18	0.03
752.491	0.03
752.802	0.03
753.112	0.02
753.423	0.02
753.734	0.02
754.044	0.02
754.355	0.02
754.665	0.02
754.975	0.02
755.285	0.02
755.596	0.02
755.906	0.02
756.216	0.02
756.526	0.02
756.836	0.02
757.146	0.02
757.455	0.02
757.765	0.02
758.075	0.02
758.385	0.02
758.694	0.02
759.004	0.02
759.313	0.02
759.622	0.02
759.932	0.02
760.241	0.02
760.55	0.02
760.859	0.03
761.168	0.03
761.477	0.03
761.786	0.02
762.095	0.02
762.404	0.02
762.713	0.02
763.021	0.02
763.33	0.02
763.639	0.02
763.947	0.02
764.256	0.02
764.564	0.02
764.872	0.02
765.181	0.02
765.489	0.02
765.797	0.02
766.105	0.02
766.413	0.02
766.721	0.02
767.029	0.02
767.337	0.02
767.644	0.02
767.952	0.03
768.26	0.03
768.567	0.03
768.875	0.02
769.182	0.02
769.49	0.02
769.797	0.02
770.104	0.02
770.411	0.02
770.718	0.03
771.026	0.03
771.333	0.02
771.639	0.02
771.946	0.02
772.253	0.02
772.56	0.02
772.867	0.02
773.173	0.02
773.48	0.02
773.786	0.02
774.093	0.02
774.399	0.02
774.705	0.02
775.012	0.02
775.318	0.02
775.624	0.02
775.93	0.02
776.236	0.02
776.542	0.02
776.848	0.02
777.154	0.02
777.459	0.02
777.765	0.02
778.071	0.02
778.376	0.03
778.682	0.03
778.987	0.03
779.292	0.02
779.598	0.02
779.903	0.03
780.208	0.02
780.513	0.03
780.818	0.02
781.123	0.02
781.428	0.02
781.733	0.02
782.038	0.02
782.343	0.03
782.647	0.03
782.952	0.03
783.256	0.03
783.561	0.03
783.865	0.03
784.17	0.03
784.474	0.02
784.778	0.02
785.082	0.02
785.386	0.03
785.69	0.02
785.994	0.03
786.298	0.03
786.602	0.03
786.906	0.03
787.209	0.03
787.513	0.02
787.817	0.02
788.12	0.02
788.424	0.02
788.727	0.02
789.03	0.03
789.333	0.03
789.637	0.03
789.94	0.03
790.243	0.03
790.546	0.03
790.849	0.03
791.152	0.02
791.454	0.02
791.757	0.02
792.06	0.02
792.362	0.02
792.665	0.03
792.967	0.03
793.27	0.03
793.572	0.03
793.874	0.03
794.177	0.03
794.479	0.03
794.781	0.03
795.083	0.03
795.385	0.03
795.687	0.02
795.989	0.02
796.29	0.02
796.592	0.03
796.894	0.02
797.195	0.03
797.497	0.03
797.798	0.03
798.1	0.03
798.401	0.03
798.702	0.03
799.003	0.03
799.304	0.03
799.605	0.03
799.906	0.02
800.207	0.02
800.508	0.02
800.809	0.02
801.11	0.02
801.41	0.03
801.711	0.03
802.011	0.03
802.312	0.02
802.612	0.03
802.913	0.03
803.213	0.03
803.513	0.03
803.813	0.03
804.113	0.03
804.413	0.03
804.713	0.03
805.013	0.03
805.313	0.03
805.613	0.03
805.912	0.03
806.212	0.03
806.511	0.03
806.811	0.03
807.11	0.02
807.41	0.03
807.709	0.02
808.008	0.02
808.307	0.03
808.606	0.02
808.905	0.03
809.204	0.03
809.503	0.03
809.802	0.03
810.101	0.03
810.399	0.04
810.698	0.04
810.997	0.04
811.295	0.04
811.593	0.04
811.892	0.04
812.19	0.04
812.488	0.03
812.786	0.04
813.084	0.04
813.383	0.04
813.68	0.03
813.978	0.03
814.276	0.04
814.574	0.04
814.872	0.04
815.169	0.04
815.467	0.03
815.764	0.03
816.062	0.04
816.359	0.03
816.656	0.03
816.954	0.03
817.251	0.03
817.548	0.03
817.845	0.04
818.142	0.04
818.439	0.03
818.735	0.03
819.032	0.03
819.329	0.03
819.626	0.03
819.922	0.03
820.219	0.04
820.515	0.04
820.811	0.04
821.108	0.04
821.404	0.03
821.7	0.03
821.996	0.03
822.292	0.03
822.588	0.04
822.884	0.04
823.18	0.03
823.475	0.03
823.771	0.03
824.067	0.03
824.362	0.03
824.658	0.03
824.953	0.03
825.249	0.03
825.544	0.04
825.839	0.04
826.134	0.04
826.429	0.03
826.724	0.04
827.019	0.04
827.314	0.04
827.609	0.04
827.904	0.03
828.198	0.04
828.493	0.04
828.787	0.03
829.082	0.03
829.376	0.03
829.671	0.03
829.965	0.04
830.259	0.04
830.553	0.05
830.847	0.04
831.141	0.04
831.435	0.04
831.729	0.04
832.023	0.04
832.317	0.04
832.61	0.04
832.904	0.04
833.197	0.04
833.491	0.04
833.784	0.04
834.077	0.05
834.371	0.05
834.664	0.04
834.957	0.04
835.25	0.04
835.543	0.04
835.836	0.04
836.129	0.04
836.421	0.03
836.714	0.04
837.007	0.04
837.299	0.03
837.592	0.04
837.884	0.04
838.177	0.03
838.469	0.04
838.761	0.03
839.053	0.02
839.345	0.03
839.637	0.02
839.929	0.02
840.221	0.03
840.513	0.04
840.805	0.03
841.096	0.04
841.388	0.04
841.68	0.03
841.971	0.04
842.262	0.03
842.554	0.03
842.845	0.03
843.136	0.03
843.427	0.03
843.718	0.03
844.009	0.04
844.3	0.03
844.591	0.04
844.882	0.04
845.173	0.04
845.463	0.04
845.754	0.04
846.044	0.05
846.335	0.05
846.625	0.04
846.915	0.03
847.206	0.04
847.496	0.03
847.786	0.03
848.076	0.04
848.366	0.04
848.656	0.04
848.945	0.05
849.235	0.04
849.525	0.04
849.814	0.05
850.104	0.04
850.393	0.04
850.683	0.04
850.972	0.04
851.261	0.04
851.551	0.05
851.84	0.05
852.129	0.04
852.418	0.04
852.707	0.05
852.995	0.05
853.284	0.05
853.573	0.04
853.862	0.05
854.15	0.04
854.439	0.04
854.727	0.04
855.015	0.05
855.304	0.02
855.592	0.03
855.88	0.03
856.168	0.03
856.456	0.03
856.744	0.03
857.032	0.04
857.32	0.03
857.607	0.05
857.895	0.02
858.183	0.06
858.47	0.04
858.757	0.04
859.045	0.04
859.332	0.04
859.619	0.04
859.907	0.04
860.194	0.04
860.481	0.05
860.768	0.04
861.054	0.04
861.341	0.04
861.628	0.05
861.915	0.03
862.201	0.03
862.488	0.03
862.774	0.02
863.061	0.01
863.347	0.02
863.633	0.05
863.919	0.04
864.205	0.02
864.491	0.04
864.777	0.03
865.063	0.03
865.349	0.05
865.635	0.03
865.92	0.02
866.206	0.03
866.492	0.03
866.777	0.01
867.062	0.03
867.348	0.05
867.633	0.04
867.918	0.03
868.203	0.05
868.488	0.04
868.773	0
869.058	0.01
869.343	0
869.628	0.04
869.912	-0.01
870.197	0.01
870.482	0.01
870.766	0.03
871.05	0.04
871.335	-0.01
871.619	0.03
871.903	-0.02
872.187	0.02
872.471	0.02
872.755	0.02
873.039	0.04
873.323	0.03
873.607	0.05
873.89	0.04
874.174	0.03
874.458	0.05
874.741	0.03
875.024	-0
875.308	0.02
875.591	-0.02
875.874	-0.01
876.157	0.02
876.44	0.06
876.723	0.06
877.006	0.03
877.289	0
877.572	0.08
877.854	-0.02
878.137	-0.01
878.42	-0.07
878.702	-0.01
878.984	0.05
879.267	0.01
879.549	-0.03
879.831	0.01
880.113	0.03
880.395	-0.03
880.677	0.04
880.959	-0.04
