Data from Rubpy_EV_600_EDTA_Buffered_Absorbance_12-54-30-183.txt Node
Date: Tue Jun 30 12:54:30 BST 2026
User: fpm-admin
Spectrometer: OFX00224
Trigger mode: 0
Integration Time (sec): 7.000000E-2
Scans to average: 3
Nonlinearity correction enabled: false
Boxcar width: 0
Storing dark spectrum: false
XAxis mode: Wavelengths
Number of Pixels in Spectrum: 2136
>>>>>Begin Spectral Data<<<<<
154.91	-1.12
155.289	0.08
155.669	0.5
156.048	-0.67
156.428	-0
156.807	-0.72
157.186	-0
157.566	-0
157.945	-0
158.325	-0
158.704	-0
159.083	-0.85
159.462	-0.7
159.842	-0.34
160.221	0.9
160.6	0.4
160.979	-0.25
161.359	-0
161.738	0.45
162.117	-0.51
162.496	-0.2
162.875	-0
163.254	-0.12
163.633	-1.34
164.012	-0
164.391	-0
164.77	-0
165.149	1.13
165.528	-0
165.907	-0
166.286	-0.51
166.665	0.74
167.044	-0
167.423	0.01
167.802	-0.41
168.181	0.84
168.559	-1
168.938	0.03
169.317	-0.22
169.696	-0.66
170.074	-0
170.453	-0.55
170.832	0.05
171.21	-0
171.589	0.18
171.968	-0
172.346	0.53
172.725	0.43
173.103	-0
173.482	-0
173.861	-0.2
174.239	-0.03
174.617	-0
174.996	-0
175.374	-0
175.753	-0
176.131	-0
176.51	-0
176.888	0.19
177.266	-0
177.645	0
178.023	0.45
178.401	-0.21
178.779	-0.05
179.158	-0.01
179.536	1.08
179.914	0.53
180.292	0.53
180.67	-0
181.048	-0
181.427	-0.85
181.805	-0
182.183	-0
182.561	-0
182.939	0.94
183.317	0.74
183.695	-0
184.073	-0.18
184.451	-0
184.829	-1.3
185.206	0.51
185.584	-0.38
185.962	-0
186.34	0.21
186.718	-0
187.096	0.2
187.473	0.31
187.851	-0
188.229	-0.26
188.607	0.1
188.984	0.14
189.362	0.12
189.74	0.07
190.117	0.02
190.495	0.05
190.872	0.08
191.25	0.1
191.627	0.13
192.005	0.11
192.382	0.13
192.76	0.11
193.137	0.12
193.515	0.1
193.892	0.06
194.269	-0.06
194.647	0.13
195.024	0.14
195.401	0.14
195.779	0.14
196.156	0.04
196.533	0.11
196.91	0.12
197.288	0.1
197.665	0.01
198.042	0.12
198.419	-0.02
198.796	0.04
199.173	0.22
199.55	0.03
199.927	0.05
200.304	0.08
200.681	0.12
201.058	-0
201.435	0.06
201.812	0.04
202.189	0.11
202.566	0.12
202.943	0.06
203.32	0.06
203.697	0.14
204.073	0.01
204.45	0.14
204.827	0.05
205.204	0.08
205.58	0.11
205.957	0.15
206.334	0.15
206.71	0.07
207.087	0.04
207.464	0.05
207.84	0.14
208.217	0.08
208.593	0.23
208.97	0.14
209.346	0.09
209.723	0.16
210.099	0.11
210.476	0.03
210.852	0.12
211.228	0.03
211.605	0.07
211.981	0.08
212.357	0.06
212.733	0.02
213.11	0.12
213.486	0.05
213.862	0
214.238	0.19
214.614	0.09
214.991	0.07
215.367	0.23
215.743	0
216.119	0.16
216.495	-0.03
216.871	0.07
217.247	0.11
217.623	0.08
217.999	0.05
218.375	0.06
218.751	0.09
219.127	0.03
219.502	0.08
219.878	0.15
220.254	0.1
220.63	0.07
221.006	0.06
221.381	0.08
221.757	0.04
222.133	0.05
222.508	0.07
222.884	0.08
223.26	0.11
223.635	0.06
224.011	0
224.386	0.13
224.762	0.03
225.137	0.08
225.513	0.18
225.888	0.03
226.264	0.14
226.639	0.09
227.014	0.1
227.39	0.04
227.765	0.07
228.14	0.05
228.516	0.09
228.891	0.1
229.266	0.17
229.641	0.17
230.017	0.16
230.392	0.15
230.767	0.06
231.142	0.01
231.517	0.09
231.892	0.12
232.267	0.16
232.642	0.03
233.017	0.06
233.392	0.11
233.767	0.16
234.142	0.13
234.517	0.09
234.892	0.15
235.267	0.09
235.641	0.09
236.016	0.06
236.391	0.11
236.766	0.19
237.14	0.04
237.515	0.08
237.89	0.12
238.264	0.03
238.639	-0
239.014	0.11
239.388	0.05
239.763	0.1
240.137	0.09
240.512	0.05
240.886	0.06
241.261	0.13
241.635	0.04
242.009	0.15
242.384	0.03
242.758	0.18
243.132	0.18
243.507	0.12
243.881	0.02
244.255	0.05
244.629	0.17
245.004	0.14
245.378	0.05
245.752	0.13
246.126	0.06
246.5	0.05
246.874	0.07
247.248	0.22
247.622	0.07
247.996	0.1
248.37	0.08
248.744	0.03
249.118	0.03
249.492	0.09
249.866	0.09
250.24	0.05
250.613	0.09
250.987	0.08
251.361	0.04
251.735	0.11
252.108	0.11
252.482	0.09
252.856	-0.03
253.229	0.07
253.603	0.06
253.977	0.01
254.35	0.09
254.724	0.08
255.097	0.07
255.471	0.06
255.844	0.08
256.218	0.12
256.591	0.07
256.964	0.1
257.338	0.09
257.711	0.11
258.084	0.03
258.458	0.09
258.831	0.09
259.204	0.09
259.577	0.16
259.95	0.13
260.323	0.05
260.697	0.05
261.07	0.1
261.443	0.06
261.816	0.08
262.189	0.08
262.562	0.09
262.935	0.09
263.308	0.07
263.68	0.03
264.053	0.02
264.426	0.08
264.799	0.05
265.172	0.05
265.545	0.13
265.917	0.08
266.29	0.07
266.663	0.06
267.035	0.12
267.408	0.05
267.781	0.04
268.153	0.1
268.526	0.08
268.898	0.14
269.271	0.07
269.643	0.08
270.016	0.09
270.388	0.05
270.76	0.06
271.133	0.08
271.505	0.02
271.877	0.07
272.25	0.03
272.622	0.1
272.994	0.1
273.366	0.14
273.739	0.09
274.111	0.06
274.483	0.06
274.855	-0.01
275.227	0.17
275.599	0.05
275.971	0.04
276.343	0.1
276.715	0.07
277.087	0.1
277.459	0.04
277.831	0.03
278.203	0.11
278.574	0.08
278.946	0.1
279.318	0.11
279.69	0.13
280.061	0.11
280.433	0.14
280.805	0.11
281.176	0.05
281.548	0.09
281.92	0.07
282.291	0.07
282.663	0.08
283.034	0.08
283.406	0.08
283.777	0.09
284.148	0.04
284.52	0.03
284.891	0.08
285.262	0.01
285.634	0.11
286.005	0.04
286.376	0.08
286.747	0.1
287.119	0.06
287.49	0.02
287.861	0.07
288.232	0.13
288.603	0.04
288.974	-0
289.345	0.05
289.716	0.03
290.087	0.04
290.458	0.08
290.829	0.04
291.2	0.02
291.571	0.06
291.941	0.15
292.312	0.09
292.683	0.07
293.054	0.07
293.424	0.04
293.795	0.07
294.166	0.05
294.536	0.09
294.907	0.06
295.277	0.09
295.648	0.06
296.018	0.07
296.389	0.09
296.759	0.07
297.13	0.05
297.5	0.07
297.871	0.06
298.241	0.04
298.611	0.04
298.981	0.06
299.352	0.02
299.722	0.08
300.092	0.02
300.462	0.07
300.832	0.04
301.202	0.04
301.573	0.02
301.943	0.06
302.313	0.03
302.683	0.02
303.053	0.04
303.422	0.03
303.792	0.02
304.162	0.04
304.532	0.04
304.902	0.04
305.272	0.03
305.641	0.04
306.011	0.04
306.381	0.04
306.75	0.03
307.12	0.04
307.49	0.04
307.859	0.04
308.229	0.04
308.598	0.04
308.968	0.04
309.337	0.04
309.707	0.05
310.076	0.04
310.445	0.04
310.815	0.05
311.184	0.05
311.553	0.04
311.923	0.05
312.292	0.04
312.661	0.04
313.03	0.05
313.399	0.05
313.768	0.05
314.137	0.04
314.506	0.04
314.875	0.05
315.244	0.05
315.613	0.04
315.982	0.05
316.351	0.04
316.72	0.05
317.089	0.04
317.458	0.05
317.826	0.04
318.195	0.04
318.564	0.05
318.933	0.05
319.301	0.05
319.67	0.05
320.038	0.05
320.407	0.05
320.775	0.03
321.144	0.04
321.512	0.04
321.881	0.04
322.249	0.04
322.618	0.04
322.986	0.04
323.354	0.04
323.723	0.04
324.091	0.03
324.459	0.03
324.827	0.04
325.195	0.04
325.564	0.04
325.932	0.04
326.3	0.04
326.668	0.04
327.036	0.04
327.404	0.04
327.772	0.04
328.14	0.04
328.508	0.04
328.875	0.04
329.243	0.04
329.611	0.03
329.979	0.04
330.346	0.04
330.714	0.04
331.082	0.03
331.449	0.04
331.817	0.04
332.185	0.03
332.552	0.04
332.92	0.03
333.287	0.04
333.655	0.04
334.022	0.04
334.389	0.04
334.757	0.04
335.124	0.04
335.491	0.04
335.859	0.04
336.226	0.04
336.593	0.04
336.96	0.05
337.327	0.04
337.695	0.04
338.062	0.04
338.429	0.04
338.796	0.05
339.163	0.05
339.53	0.04
339.897	0.05
340.263	0.05
340.63	0.05
340.997	0.05
341.364	0.05
341.731	0.05
342.097	0.05
342.464	0.05
342.831	0.05
343.197	0.05
343.564	0.06
343.931	0.05
344.297	0.06
344.664	0.06
345.03	0.06
345.396	0.06
345.763	0.06
346.129	0.06
346.496	0.06
346.862	0.07
347.228	0.07
347.594	0.07
347.961	0.07
348.327	0.07
348.693	0.07
349.059	0.07
349.425	0.07
349.791	0.07
350.157	0.07
350.523	0.07
350.889	0.07
351.255	0.08
351.621	0.08
351.987	0.08
352.353	0.08
352.719	0.08
353.084	0.09
353.45	0.09
353.816	0.09
354.181	0.09
354.547	0.1
354.913	0.09
355.278	0.1
355.644	0.1
356.009	0.1
356.375	0.1
356.74	0.11
357.106	0.11
357.471	0.12
357.836	0.12
358.202	0.11
358.567	0.12
358.932	0.12
359.297	0.12
359.663	0.13
360.028	0.13
360.393	0.13
360.758	0.13
361.123	0.13
361.488	0.14
361.853	0.14
362.218	0.13
362.583	0.14
362.948	0.14
363.312	0.14
363.677	0.14
364.042	0.15
364.407	0.15
364.772	0.15
365.136	0.15
365.501	0.16
365.865	0.16
366.23	0.17
366.595	0.17
366.959	0.17
367.324	0.18
367.688	0.18
368.052	0.19
368.417	0.19
368.781	0.19
369.145	0.19
369.51	0.2
369.874	0.2
370.238	0.2
370.602	0.2
370.967	0.2
371.331	0.2
371.695	0.19
372.059	0.2
372.423	0.2
372.787	0.19
373.151	0.19
373.515	0.19
373.878	0.19
374.242	0.19
374.606	0.2
374.97	0.19
375.334	0.2
375.697	0.19
376.061	0.2
376.425	0.2
376.788	0.2
377.152	0.2
377.515	0.2
377.879	0.21
378.242	0.21
378.606	0.21
378.969	0.21
379.333	0.22
379.696	0.22
380.059	0.22
380.422	0.23
380.786	0.23
381.149	0.24
381.512	0.24
381.875	0.25
382.238	0.25
382.601	0.26
382.964	0.27
383.327	0.28
383.69	0.28
384.053	0.29
384.416	0.3
384.779	0.3
385.142	0.31
385.504	0.31
385.867	0.32
386.23	0.32
386.593	0.33
386.955	0.33
387.318	0.33
387.68	0.33
388.043	0.32
388.405	0.33
388.768	0.32
389.13	0.32
389.493	0.32
389.855	0.31
390.217	0.31
390.58	0.31
390.942	0.31
391.304	0.32
391.666	0.32
392.028	0.32
392.391	0.34
392.753	0.34
393.115	0.36
393.477	0.37
393.839	0.38
394.201	0.39
394.563	0.41
394.924	0.43
395.286	0.45
395.648	0.47
396.01	0.48
396.371	0.49
396.733	0.5
397.095	0.52
397.456	0.52
397.818	0.52
398.18	0.51
398.541	0.51
398.903	0.5
399.264	0.48
399.625	0.47
399.987	0.45
400.348	0.42
400.709	0.41
401.071	0.39
401.432	0.36
401.793	0.34
402.154	0.32
402.515	0.3
402.876	0.27
403.238	0.25
403.599	0.23
403.96	0.22
404.32	0.2
404.681	0.19
405.042	0.18
405.403	0.17
405.764	0.16
406.125	0.14
406.485	0.13
406.846	0.12
407.207	0.11
407.567	0.11
407.928	0.1
408.288	0.1
408.649	0.09
409.009	0.09
409.37	0.09
409.73	0.08
410.091	0.07
410.451	0.08
410.811	0.07
411.171	0.07
411.532	0.06
411.892	0.06
412.252	0.06
412.612	0.06
412.972	0.05
413.332	0.05
413.692	0.05
414.052	0.05
414.412	0.04
414.772	0.05
415.132	0.04
415.492	0.05
415.851	0.04
416.211	0.05
416.571	0.04
416.931	0.04
417.29	0.04
417.65	0.03
418.009	0.03
418.369	0.04
418.728	0.04
419.088	0.04
419.447	0.03
419.807	0.04
420.166	0.04
420.525	0.04
420.884	0.04
421.244	0.03
421.603	0.03
421.962	0.04
422.321	0.03
422.68	0.03
423.039	0.02
423.398	0.03
423.757	0.03
424.116	0.03
424.475	0.03
424.834	0.03
425.193	0.03
425.551	0.03
425.91	0.03
426.269	0.03
426.628	0.02
426.986	0.03
427.345	0.02
427.703	0.03
428.062	0.02
428.42	0.03
428.779	0.03
429.137	0.03
429.496	0.02
429.854	0.03
430.212	0.03
430.57	0.02
430.929	0.03
431.287	0.03
431.645	0.02
432.003	0.03
432.361	0.02
432.719	0.02
433.077	0.03
433.435	0.02
433.793	0.02
434.151	0.02
434.509	0.03
434.866	0.03
435.224	0.02
435.582	0.02
435.94	0.02
436.297	0.02
436.655	0.02
437.012	0.02
437.37	0.03
437.727	0.02
438.085	0.02
438.442	0.02
438.8	0.02
439.157	0.02
439.514	0.02
439.872	0.02
440.229	0.02
440.586	0.02
440.943	0.02
441.3	0.02
441.657	0.02
442.014	0.02
442.371	0.02
442.728	0.01
443.085	0.02
443.442	0.02
443.799	0.02
444.156	0.02
444.513	0.01
444.869	0.02
445.226	0.02
445.583	0.01
445.939	0.02
446.296	0.01
446.652	0.03
447.009	0.01
447.365	0.02
447.722	0.02
448.078	0.01
448.434	0.01
448.791	0.02
449.147	0.02
449.503	0.01
449.859	0.02
450.215	0.01
450.571	0.02
450.928	0.01
451.284	0.02
451.64	0.01
451.995	0.01
452.351	0
452.707	0.01
453.063	0.01
453.419	0.01
453.775	0.01
454.13	0.01
454.486	0.02
454.842	0.01
455.197	0.01
455.553	0.01
455.908	0.01
456.264	0.01
456.619	0.01
456.975	0
457.33	0
457.685	-0
458.04	0
458.396	-0
458.751	0.01
459.106	-0
459.461	0
459.816	-0
460.171	0
460.526	0
460.881	0
461.236	-0.01
461.591	-0
461.946	-0
462.301	-0.01
462.655	-0.01
463.01	-0.01
463.365	-0.01
463.719	-0.01
464.074	-0.01
464.428	-0.02
464.783	-0.01
465.137	-0.02
465.492	-0.02
465.846	-0.02
466.201	-0.01
466.555	-0.01
466.909	-0.02
467.263	-0.01
467.618	-0.01
467.972	-0.01
468.326	-0.02
468.68	-0.01
469.034	-0.02
469.388	-0.02
469.742	-0.02
470.096	-0.02
470.45	-0.02
470.804	-0.02
471.157	-0.02
471.511	-0.02
471.865	-0.01
472.218	-0.01
472.572	-0.02
472.926	-0.02
473.279	-0.02
473.633	-0.01
473.986	-0.01
474.34	-0.01
474.693	-0.01
475.046	-0.01
475.4	-0.01
475.753	-0.01
476.106	-0.01
476.459	-0
476.812	-0
477.165	-0
477.519	-0
477.872	0
478.224	0
478.577	0.01
478.93	0.01
479.283	0.01
479.636	0.01
479.989	0.01
480.341	0.01
480.694	0.01
481.047	0
481.399	0.01
481.752	0.01
482.104	0.01
482.457	0.01
482.809	0.01
483.162	0.01
483.514	0.01
483.866	0.01
484.219	0.01
484.571	0.01
484.923	0.02
485.275	0.02
485.627	0.02
485.979	0.02
486.331	0.01
486.683	0.02
487.035	0.02
487.387	0.02
487.739	0.02
488.091	0.02
488.443	0.02
488.794	0.02
489.146	0.02
489.498	0.02
489.849	0.02
490.201	0.02
490.552	0.02
490.904	0.02
491.255	0.02
491.607	0.02
491.958	0.02
492.309	0.02
492.661	0.02
493.012	0.02
493.363	0.02
493.714	0.02
494.065	0.02
494.416	0.03
494.767	0.03
495.118	0.03
495.469	0.03
495.82	0.03
496.171	0.03
496.522	0.03
496.872	0.03
497.223	0.03
497.574	0.03
497.924	0.03
498.275	0.03
498.626	0.04
498.976	0.03
499.327	0.03
499.677	0.03
500.027	0.03
500.378	0.04
500.728	0.04
501.078	0.04
501.428	0.03
501.779	0.03
502.129	0.04
502.479	0.03
502.829	0.03
503.179	0.04
503.529	0.03
503.879	0.04
504.229	0.04
504.578	0.04
504.928	0.04
505.278	0.04
505.628	0.04
505.977	0.04
506.327	0.04
506.676	0.04
507.026	0.04
507.375	0.04
507.725	0.04
508.074	0.04
508.424	0.04
508.773	0.05
509.122	0.05
509.471	0.05
509.82	0.05
510.17	0.05
510.519	0.05
510.868	0.04
511.217	0.05
511.566	0.04
511.915	0.05
512.263	0.05
512.612	0.05
512.961	0.05
513.31	0.05
513.659	0.05
514.007	0.05
514.356	0.06
514.704	0.05
515.053	0.05
515.401	0.06
515.75	0.06
516.098	0.06
516.447	0.06
516.795	0.05
517.143	0.06
517.491	0.06
517.839	0.06
518.188	0.06
518.536	0.06
518.884	0.05
519.232	0.06
519.58	0.06
519.928	0.06
520.275	0.06
520.623	0.06
520.971	0.06
521.319	0.07
521.666	0.06
522.014	0.06
522.362	0.06
522.709	0.06
523.057	0.07
523.404	0.06
523.752	0.06
524.099	0.06
524.446	0.07
524.794	0.07
525.141	0.07
525.488	0.07
525.835	0.07
526.182	0.07
526.529	0.07
526.876	0.07
527.223	0.07
527.57	0.08
527.917	0.07
528.264	0.07
528.611	0.07
528.958	0.07
529.304	0.07
529.651	0.08
529.998	0.08
530.344	0.07
530.691	0.08
531.037	0.07
531.384	0.08
531.73	0.08
532.076	0.08
532.423	0.08
532.769	0.08
533.115	0.08
533.461	0.08
533.807	0.08
534.154	0.08
534.5	0.08
534.846	0.08
535.192	0.08
535.537	0.08
535.883	0.08
536.229	0.09
536.575	0.08
536.921	0.08
537.266	0.08
537.612	0.09
537.957	0.09
538.303	0.09
538.649	0.09
538.994	0.09
539.339	0.09
539.685	0.09
540.03	0.09
540.375	0.09
540.721	0.09
541.066	0.1
541.411	0.1
541.756	0.1
542.101	0.1
542.446	0.1
542.791	0.1
543.136	0.1
543.481	0.1
543.825	0.1
544.17	0.1
544.515	0.1
544.86	0.1
545.204	0.1
545.549	0.1
545.893	0.1
546.238	0.1
546.582	0.11
546.927	0.11
547.271	0.11
547.615	0.1
547.96	0.11
548.304	0.11
548.648	0.11
548.992	0.11
549.336	0.11
549.68	0.11
550.024	0.11
550.368	0.11
550.712	0.11
551.056	0.11
551.4	0.12
551.743	0.11
552.087	0.11
552.431	0.12
552.774	0.12
553.118	0.12
553.462	0.12
553.805	0.12
554.148	0.12
554.492	0.12
554.835	0.12
555.178	0.12
555.522	0.12
555.865	0.12
556.208	0.12
556.551	0.12
556.894	0.12
557.237	0.12
557.58	0.12
557.923	0.12
558.266	0.12
558.609	0.12
558.952	0.13
559.294	0.13
559.637	0.13
559.98	0.13
560.322	0.13
560.665	0.13
561.007	0.12
561.35	0.13
561.692	0.13
562.034	0.13
562.377	0.13
562.719	0.12
563.061	0.13
563.403	0.13
563.745	0.12
564.088	0.13
564.43	0.13
564.772	0.13
565.113	0.13
565.455	0.13
565.797	0.13
566.139	0.13
566.481	0.13
566.822	0.13
567.164	0.13
567.506	0.13
567.847	0.13
568.189	0.13
568.53	0.13
568.872	0.13
569.213	0.13
569.554	0.13
569.895	0.13
570.237	0.13
570.578	0.13
570.919	0.13
571.26	0.13
571.601	0.13
571.942	0.13
572.283	0.13
572.624	0.13
572.965	0.13
573.306	0.13
573.646	0.13
573.987	0.13
574.328	0.13
574.668	0.13
575.009	0.13
575.349	0.13
575.69	0.13
576.03	0.13
576.37	0.13
576.711	0.12
577.051	0.13
577.391	0.13
577.731	0.13
578.072	0.13
578.412	0.13
578.752	0.13
579.092	0.13
579.431	0.13
579.771	0.12
580.111	0.12
580.451	0.12
580.791	0.13
581.13	0.13
581.47	0.13
581.81	0.13
582.149	0.13
582.489	0.13
582.828	0.13
583.167	0.12
583.507	0.11
583.846	0.09
584.185	0.1
584.525	0.12
584.864	0.13
585.203	0.13
585.542	0.13
585.881	0.13
586.22	0.14
586.559	0.13
586.898	0.13
587.236	0.13
587.575	0.13
587.914	0.13
588.252	0.13
588.591	0.14
588.93	0.14
589.268	0.13
589.607	0.13
589.945	0.14
590.283	0.14
590.622	0.14
590.96	0.14
591.298	0.14
591.636	0.14
591.974	0.14
592.313	0.15
592.651	0.15
592.989	0.15
593.326	0.15
593.664	0.15
594.002	0.15
594.34	0.15
594.678	0.15
595.015	0.15
595.353	0.14
595.691	0.15
596.028	0.15
596.366	0.15
596.703	0.15
597.04	0.15
597.378	0.16
597.715	0.16
598.052	0.16
598.389	0.16
598.726	0.16
599.064	0.16
599.401	0.16
599.738	0.16
600.074	0.16
600.411	0.16
600.748	0.16
601.085	0.16
601.422	0.16
601.758	0.15
602.095	0.16
602.432	0.15
602.768	0.15
603.105	0.16
603.441	0.16
603.777	0.16
604.114	0.16
604.45	0.16
604.786	0.16
605.122	0.16
605.459	0.16
605.795	0.16
606.131	0.16
606.467	0.16
606.803	0.16
607.139	0.16
607.474	0.16
607.81	0.15
608.146	0.16
608.482	0.16
608.817	0.16
609.153	0.16
609.488	0.15
609.824	0.16
610.159	0.16
610.495	0.15
610.83	0.16
611.165	0.16
611.5	0.16
611.836	0.16
612.171	0.16
612.506	0.16
612.841	0.16
613.176	0.15
613.511	0.16
613.845	0.15
614.18	0.15
614.515	0.16
614.85	0.15
615.184	0.15
615.519	0.15
615.854	0.15
616.188	0.15
616.523	0.15
616.857	0.15
617.191	0.15
617.526	0.15
617.86	0.15
618.194	0.15
618.528	0.15
618.862	0.15
619.196	0.15
619.53	0.15
619.864	0.15
620.198	0.15
620.532	0.15
620.866	0.15
621.2	0.15
621.533	0.15
621.867	0.15
622.201	0.15
622.534	0.15
622.868	0.15
623.201	0.15
623.534	0.15
623.868	0.15
624.201	0.15
624.534	0.14
624.868	0.14
625.201	0.15
625.534	0.15
625.867	0.15
626.2	0.14
626.533	0.15
626.865	0.14
627.198	0.14
627.531	0.14
627.864	0.14
628.196	0.14
628.529	0.14
628.862	0.14
629.194	0.14
629.527	0.14
629.859	0.14
630.191	0.14
630.524	0.13
630.856	0.13
631.188	0.13
631.52	0.13
631.852	0.13
632.184	0.13
632.516	0.13
632.848	0.13
633.18	0.13
633.512	0.13
633.844	0.13
634.175	0.12
634.507	0.12
634.839	0.12
635.17	0.12
635.502	0.12
635.833	0.12
636.165	0.12
636.496	0.12
636.827	0.13
637.159	0.13
637.49	0.12
637.821	0.12
638.152	0.12
638.483	0.12
638.814	0.12
639.145	0.11
639.476	0.12
639.807	0.12
640.137	0.11
640.468	0.11
640.799	0.11
641.129	0.11
641.46	0.12
641.791	0.12
642.121	0.11
642.451	0.11
642.782	0.11
643.112	0.11
643.442	0.11
643.773	0.11
644.103	0.1
644.433	0.11
644.763	0.1
645.093	0.11
645.423	0.1
645.753	0.1
646.082	0.1
646.412	0.1
646.742	0.1
647.072	0.1
647.401	0.1
647.731	0.1
648.06	0.1
648.39	0.1
648.719	0.1
649.048	0.1
649.378	0.1
649.707	0.1
650.036	0.1
650.365	0.1
650.694	0.09
651.023	0.1
651.352	0.1
651.681	0.1
652.01	0.1
652.339	0.1
652.668	0.1
652.996	0.1
653.325	0.1
653.654	0.1
653.982	0.1
654.311	0.1
654.639	0.1
654.967	0.1
655.296	0.1
655.624	0.1
655.952	0.1
656.28	0.09
656.609	0.09
656.937	0.1
657.265	0.09
657.593	0.08
657.92	0
658.248	0
658.576	0
658.904	0
659.231	0.05
659.559	0.08
659.887	0.09
660.214	0.09
660.542	0.1
660.869	0.09
661.196	0.09
661.524	0.1
661.851	0.09
662.178	0.09
662.505	0.09
662.832	0.09
663.159	0.09
663.486	0.09
663.813	0.09
664.14	0.1
664.467	0.1
664.794	0.1
665.12	0.09
665.447	0.1
665.774	0.1
666.1	0.09
666.427	0.09
666.753	0.09
667.079	0.09
667.406	0.09
667.732	0.09
668.058	0.09
668.384	0.09
668.71	0.09
669.036	0.09
669.362	0.09
669.688	0.09
670.014	0.09
670.34	0.09
670.666	0.09
670.991	0.09
671.317	0.09
671.643	0.09
671.968	0.09
672.294	0.09
672.619	0.09
672.945	0.08
673.27	0.09
673.595	0.08
673.92	0.08
674.246	0.08
674.571	0.08
674.896	0.09
675.221	0.09
675.546	0.09
675.87	0.09
676.195	0.09
676.52	0.09
676.845	0.08
677.169	0.08
677.494	0.09
677.819	0.09
678.143	0.08
678.468	0.08
678.792	0.08
679.116	0.08
679.44	0.08
679.765	0.08
680.089	0.08
680.413	0.08
680.737	0.07
681.061	0.07
681.385	0.07
681.709	0.07
682.033	0.07
682.356	0.07
682.68	0.07
683.004	0.07
683.327	0.07
683.651	0.07
683.974	0.07
684.298	0.07
684.621	0.07
684.944	0.07
685.268	0.07
685.591	0.06
685.914	0.07
686.237	0.07
686.56	0.07
686.883	0.06
687.206	0.06
687.529	0.06
687.852	0.06
688.175	0.06
688.497	0.06
688.82	0.06
689.142	0.06
689.465	0.06
689.787	0.06
690.11	0.06
690.432	0.06
690.755	0.06
691.077	0.06
691.399	0.06
691.721	0.06
692.043	0.06
692.365	0.06
692.687	0.06
693.009	0.05
693.331	0.05
693.653	0.05
693.974	0.05
694.296	0.05
694.618	0.05
694.939	0.05
695.261	0.05
695.582	0.05
695.904	0.05
696.225	0.05
696.546	0.05
696.868	0.05
697.189	0.05
697.51	0.05
697.831	0.05
698.152	0.05
698.473	0.05
698.794	0.04
699.114	0.04
699.435	0.04
699.756	0.04
700.077	0.04
700.397	0.05
700.718	0.05
701.038	0.05
701.359	0.05
701.679	0.05
701.999	0.05
702.32	0.05
702.64	0.05
702.96	0.05
703.28	0.04
703.6	0.04
703.92	0.04
704.24	0.04
704.56	0.04
704.879	0.04
705.199	0.04
705.519	0.04
705.838	0.04
706.158	0.04
706.478	0.04
706.797	0.04
707.116	0.04
707.436	0.04
707.755	0.04
708.074	0.04
708.393	0.04
708.712	0.04
709.031	0.04
709.35	0.04
709.669	0.04
709.988	0.04
710.307	0.04
710.626	0.04
710.944	0.04
711.263	0.04
711.582	0.04
711.9	0.04
712.219	0.04
712.537	0.04
712.855	0.04
713.174	0.04
713.492	0.04
713.81	0.04
714.128	0.04
714.446	0.04
714.764	0.04
715.082	0.04
715.4	0.04
715.718	0.04
716.035	0.03
716.353	0.04
716.671	0.04
716.988	0.04
717.306	0.04
717.623	0.04
717.941	0.04
718.258	0.04
718.575	0.04
718.893	0.05
719.21	0.04
719.527	0.04
719.844	0.04
720.161	0.04
720.478	0.05
720.795	0.04
721.112	0.04
721.428	0.05
721.745	0.04
722.062	0.04
722.378	0.04
722.695	0.05
723.011	0.05
723.328	0.05
723.644	0.05
723.96	0.05
724.276	0.05
724.593	0.05
724.909	0.05
725.225	0.05
725.541	0.05
725.857	0.05
726.173	0.05
726.488	0.05
726.804	0.05
727.12	0.04
727.435	0.04
727.751	0.04
728.067	0.05
728.382	0.04
728.697	0.04
729.013	0.05
729.328	0.05
729.643	0.05
729.958	0.04
730.273	0.05
730.588	0.05
730.903	0.05
731.218	0.04
731.533	0.04
731.848	0.05
732.163	0.04
732.477	0.04
732.792	0.04
733.107	0.04
733.421	0.04
733.736	0.04
734.05	0.04
734.364	0.04
734.678	0.04
734.993	0.05
735.307	0.05
735.621	0.04
735.935	0.04
736.249	0.04
736.563	0.05
736.877	0.04
737.19	0.04
737.504	0.05
737.818	0.05
738.131	0.05
738.445	0.04
738.758	0.04
739.072	0.04
739.385	0.04
739.698	0.04
740.012	0.04
740.325	0.04
740.638	0.04
740.951	0.04
741.264	0.03
741.577	0.04
741.89	0.04
742.203	0.04
742.515	0.04
742.828	0.04
743.141	0.04
743.453	0.04
743.766	0.04
744.078	0.04
744.391	0.04
744.703	0.04
745.015	0.04
745.327	0.03
745.639	0.03
745.952	0.03
746.264	0.04
746.575	0.03
746.887	0.03
747.199	0.04
747.511	0.04
747.823	0.04
748.134	0.04
748.446	0.04
748.757	0.04
749.069	0.04
749.38	0.04
749.692	0.04
750.003	0.04
750.314	0.04
750.625	0.04
750.936	0.04
751.248	0.04
751.559	0.04
751.869	0.04
752.18	0.04
752.491	0.04
752.802	0.04
753.112	0.04
753.423	0.04
753.734	0.03
754.044	0.03
754.355	0.03
754.665	0.03
754.975	0.03
755.285	0.03
755.596	0.03
755.906	0.03
756.216	0.03
756.526	0.03
756.836	0.03
757.146	0.03
757.455	0.03
757.765	0.03
758.075	0.02
758.385	0.03
758.694	0.02
759.004	0.02
759.313	0.03
759.622	0.03
759.932	0.03
760.241	0.03
760.55	0.03
760.859	0.03
761.168	0.03
761.477	0.03
761.786	0.03
762.095	0.03
762.404	0.03
762.713	0.03
763.021	0.03
763.33	0.02
763.639	0.02
763.947	0.03
764.256	0.03
764.564	0.03
764.872	0.03
765.181	0.03
765.489	0.03
765.797	0.03
766.105	0.03
766.413	0.03
766.721	0.03
767.029	0.03
767.337	0.03
767.644	0.03
767.952	0.03
768.26	0.03
768.567	0.03
768.875	0.03
769.182	0.03
769.49	0.03
769.797	0.03
770.104	0.03
770.411	0.03
770.718	0.03
771.026	0.03
771.333	0.02
771.639	0.02
771.946	0.02
772.253	0.02
772.56	0.02
772.867	0.02
773.173	0.02
773.48	0.03
773.786	0.02
774.093	0.02
774.399	0.02
774.705	0.02
775.012	0.02
775.318	0.03
775.624	0.02
775.93	0.02
776.236	0.03
776.542	0.03
776.848	0.03
777.154	0.03
777.459	0.03
777.765	0.02
778.071	0.02
778.376	0.03
778.682	0.03
778.987	0.03
779.292	0.03
779.598	0.03
779.903	0.03
780.208	0.03
780.513	0.02
780.818	0.02
781.123	0.02
781.428	0.02
781.733	0.02
782.038	0.03
782.343	0.03
782.647	0.03
782.952	0.04
783.256	0.03
783.561	0.03
783.865	0.03
784.17	0.03
784.474	0.03
784.778	0.02
785.082	0.02
785.386	0.03
785.69	0.03
785.994	0.03
786.298	0.03
786.602	0.03
786.906	0.03
787.209	0.03
787.513	0.02
787.817	0.02
788.12	0.02
788.424	0.02
788.727	0.02
789.03	0.03
789.333	0.03
789.637	0.03
789.94	0.03
790.243	0.03
790.546	0.03
790.849	0.02
791.152	0.02
791.454	0.02
791.757	0.02
792.06	0.02
792.362	0.03
792.665	0.02
792.967	0.03
793.27	0.02
793.572	0.03
793.874	0.03
794.177	0.03
794.479	0.03
794.781	0.03
795.083	0.03
795.385	0.03
795.687	0.02
795.989	0.03
796.29	0.02
796.592	0.03
796.894	0.03
797.195	0.03
797.497	0.03
797.798	0.03
798.1	0.03
798.401	0.03
798.702	0.03
799.003	0.03
799.304	0.03
799.605	0.03
799.906	0.03
800.207	0.03
800.508	0.02
800.809	0.03
801.11	0.03
801.41	0.03
801.711	0.03
802.011	0.03
802.312	0.03
802.612	0.03
802.913	0.03
803.213	0.04
803.513	0.03
803.813	0.03
804.113	0.04
804.413	0.03
804.713	0.03
805.013	0.03
805.313	0.03
805.613	0.03
805.912	0.03
806.212	0.03
806.511	0.03
806.811	0.03
807.11	0.03
807.41	0.03
807.709	0.02
808.008	0.02
808.307	0.03
808.606	0.03
808.905	0.02
809.204	0.03
809.503	0.03
809.802	0.03
810.101	0.03
810.399	0.04
810.698	0.04
810.997	0.04
811.295	0.04
811.593	0.04
811.892	0.04
812.19	0.04
812.488	0.03
812.786	0.04
813.084	0.04
813.383	0.03
813.68	0.04
813.978	0.04
814.276	0.04
814.574	0.04
814.872	0.03
815.169	0.04
815.467	0.03
815.764	0.04
816.062	0.04
816.359	0.03
816.656	0.03
816.954	0.04
817.251	0.03
817.548	0.04
817.845	0.04
818.142	0.04
818.439	0.04
818.735	0.03
819.032	0.03
819.329	0.04
819.626	0.04
819.922	0.04
820.219	0.04
820.515	0.04
820.811	0.04
821.108	0.04
821.404	0.03
821.7	0.04
821.996	0.04
822.292	0.04
822.588	0.04
822.884	0.04
823.18	0.04
823.475	0.03
823.771	0.03
824.067	0.03
824.362	0.03
824.658	0.04
824.953	0.03
825.249	0.03
825.544	0.04
825.839	0.04
826.134	0.04
826.429	0.04
826.724	0.04
827.019	0.04
827.314	0.04
827.609	0.04
827.904	0.03
828.198	0.03
828.493	0.04
828.787	0.04
829.082	0.03
829.376	0.03
829.671	0.03
829.965	0.03
830.259	0.04
830.553	0.04
830.847	0.04
831.141	0.04
831.435	0.04
831.729	0.04
832.023	0.04
832.317	0.05
832.61	0.04
832.904	0.05
833.197	0.04
833.491	0.04
833.784	0.05
834.077	0.04
834.371	0.05
834.664	0.05
834.957	0.04
835.25	0.04
835.543	0.04
835.836	0.04
836.129	0.04
836.421	0.03
836.714	0.04
837.007	0.04
837.299	0.04
837.592	0.04
837.884	0.04
838.177	0.03
838.469	0.03
838.761	0.04
839.053	0.03
839.345	0.04
839.637	0.03
839.929	0.03
840.221	0.04
840.513	0.04
840.805	0.03
841.096	0.04
841.388	0.04
841.68	0.03
841.971	0.04
842.262	0.03
842.554	0.04
842.845	0.04
843.136	0.03
843.427	0.02
843.718	0.03
844.009	0.04
844.3	0.03
844.591	0.04
844.882	0.04
845.173	0.03
845.463	0.04
845.754	0.04
846.044	0.05
846.335	0.05
846.625	0.04
846.915	0.04
847.206	0.05
847.496	0.04
847.786	0.04
848.076	0.04
848.366	0.04
848.656	0.05
848.945	0.04
849.235	0.05
849.525	0.04
849.814	0.05
850.104	0.04
850.393	0.04
850.683	0.04
850.972	0.05
851.261	0.04
851.551	0.05
851.84	0.04
852.129	0.04
852.418	0.04
852.707	0.05
852.995	0.04
853.284	0.04
853.573	0.06
853.862	0.06
854.15	0.05
854.439	0.04
854.727	0.06
855.015	0.05
855.304	0.03
855.592	0.04
855.88	0.03
856.168	0.03
856.456	0.04
856.744	0.04
857.032	0.05
857.32	0.05
857.607	0.05
857.895	0.04
858.183	0.05
858.47	0.04
858.757	0.05
859.045	0.05
859.332	0.05
859.619	0.03
859.907	0.04
860.194	0.03
860.481	0.04
860.768	0.03
861.054	0.03
861.341	0.04
861.628	0.06
861.915	0.03
862.201	0.04
862.488	0.03
862.774	0.05
863.061	0.04
863.347	0.03
863.633	0.05
863.919	0.04
864.205	0.03
864.491	0.03
864.777	0.05
865.063	0.05
865.349	0.04
865.635	0.01
865.92	-0
866.206	0.05
866.492	0.04
866.777	0.03
867.062	0.02
867.348	0.03
867.633	0.05
867.918	0.02
868.203	0.07
868.488	0.03
868.773	0.01
869.058	0.02
869.343	0.01
869.628	0.03
869.912	-0.01
870.197	0.01
870.482	0.01
870.766	0.05
871.05	0.03
871.335	-0.02
871.619	0.03
871.903	0.03
872.187	0.06
872.471	-0.02
872.755	0.04
873.039	0.02
873.323	0.02
873.607	0.01
873.89	0.05
874.174	0.07
874.458	0.01
874.741	0.04
875.024	-0.01
875.308	0.03
875.591	0.03
875.874	0.01
876.157	-0.01
876.44	0.07
876.723	0.08
877.006	0.01
877.289	-0.01
877.572	0.09
877.854	-0.02
878.137	0.01
878.42	-0
878.702	-0.07
878.984	0.07
879.267	-0.04
879.549	-0
879.831	-0.04
880.113	0.04
880.395	-0.06
880.677	0.01
880.959	-0.02
