Data from Rubpy_EV_600_EDTA_Buffered_Absorbance_13-21-11-129.txt Node
Date: Tue Jun 30 13:21:11 BST 2026
User: fpm-admin
Spectrometer: OFX00224
Trigger mode: 0
Integration Time (sec): 7.000000E-2
Scans to average: 3
Nonlinearity correction enabled: false
Boxcar width: 0
Storing dark spectrum: false
XAxis mode: Wavelengths
Number of Pixels in Spectrum: 2136
>>>>>Begin Spectral Data<<<<<
154.91	-1.08
155.289	0.18
155.669	1.2
156.048	-0.52
156.428	-0
156.807	-0
157.186	1.4
157.566	-0
157.945	0.53
158.325	0.1
158.704	-0
159.083	-0
159.462	-0
159.842	-0
160.221	-0
160.6	-0.06
160.979	0.12
161.359	-0
161.738	1.32
162.117	-0.55
162.496	0.63
162.875	1.19
163.254	-0.23
163.633	-0
164.012	-0
164.391	-0.05
164.77	-0
165.149	1.43
165.528	-0.21
165.907	-0
166.286	-0.25
166.665	-0.28
167.044	-0
167.423	1.7
167.802	-0.53
168.181	0.84
168.559	-1.15
168.938	-0
169.317	-0.29
169.696	-0.92
170.074	0.8
170.453	-0.4
170.832	-0
171.21	-0
171.589	-0
171.968	-0
172.346	-0
172.725	-0
173.103	-0
173.482	-0
173.861	0.13
174.239	0.03
174.617	-0
174.996	-0
175.374	-0
175.753	-1.3
176.131	-0
176.51	-0
176.888	0.26
177.266	-0
177.645	-0.01
178.023	0.98
178.401	-0.23
178.779	-0
179.158	-0.23
179.536	-0.4
179.914	0.11
180.292	0.73
180.67	-0
181.048	-0
181.427	-1.59
181.805	0.25
182.183	-0
182.561	-0
182.939	0.14
183.317	0.4
183.695	-0
184.073	0.32
184.451	-0
184.829	-0
185.206	0.81
185.584	-0.13
185.962	-0
186.34	-0
186.718	-0.19
187.096	0.34
187.473	-0
187.851	-0
188.229	-0.3
188.607	0.14
188.984	0.35
189.362	0.25
189.74	0.28
190.117	0.12
190.495	0.32
190.872	0.19
191.25	0.19
191.627	0.25
192.005	0.35
192.382	0.36
192.76	0.28
193.137	0.3
193.515	0.31
193.892	0.23
194.269	0.16
194.647	0.24
195.024	0.22
195.401	0.46
195.779	0.28
196.156	0.17
196.533	0.12
196.91	0.24
197.288	0.3
197.665	0.26
198.042	0.17
198.419	0.36
198.796	0.29
199.173	0.23
199.55	0.24
199.927	0.25
200.304	0.27
200.681	0.18
201.058	0.14
201.435	0.13
201.812	0.28
202.189	0.27
202.566	0.48
202.943	0.24
203.32	0.28
203.697	0.28
204.073	0.12
204.45	0.17
204.827	0.32
205.204	0.24
205.58	0.13
205.957	0.24
206.334	0.24
206.71	0.13
207.087	0.22
207.464	0.21
207.84	0.25
208.217	0.25
208.593	0.45
208.97	0.27
209.346	0.18
209.723	0.18
210.099	0.28
210.476	0.29
210.852	0.27
211.228	0.19
211.605	0.16
211.981	0.31
212.357	0.18
212.733	0.24
213.11	0.27
213.486	0.25
213.862	0.19
214.238	0.19
214.614	0.21
214.991	0.13
215.367	0.52
215.743	0.13
216.119	0.23
216.495	0.16
216.871	0.25
217.247	0.3
217.623	0.21
217.999	0.29
218.375	0.29
218.751	0.13
219.127	0.29
219.502	0.21
219.878	0.24
220.254	0.24
220.63	0.24
221.006	0.23
221.381	0.2
221.757	0.34
222.133	0.3
222.508	0.18
222.884	0.25
223.26	0.2
223.635	0.17
224.011	0.15
224.386	0.32
224.762	0.24
225.137	0.38
225.513	0.21
225.888	0.2
226.264	0.25
226.639	0.21
227.014	0.23
227.39	0.18
227.765	0.28
228.14	0.14
228.516	0.21
228.891	0.25
229.266	0.25
229.641	0.25
230.017	0.29
230.392	0.22
230.767	0.33
231.142	0.19
231.517	0.21
231.892	0.24
232.267	0.22
232.642	0.27
233.017	0.21
233.392	0.34
233.767	0.24
234.142	0.2
234.517	0.33
234.892	0.23
235.267	0.18
235.641	0.31
236.016	0.2
236.391	0.28
236.766	0.26
237.14	0.12
237.515	0.29
237.89	0.31
238.264	0.17
238.639	0.36
239.014	0.25
239.388	0.22
239.763	0.26
240.137	0.2
240.512	0.23
240.886	0.24
241.261	0.3
241.635	0.31
242.009	0.35
242.384	0.21
242.758	0.12
243.132	0.25
243.507	0.27
243.881	0.22
244.255	0.31
244.629	0.33
245.004	0.33
245.378	0.24
245.752	0.19
246.126	0.16
246.5	0.25
246.874	0.26
247.248	0.2
247.622	0.24
247.996	0.26
248.37	0.33
248.744	0.11
249.118	0.17
249.492	0.32
249.866	0.25
250.24	0.2
250.613	0.23
250.987	0.16
251.361	0.24
251.735	0.17
252.108	0.16
252.482	0.29
252.856	0.22
253.229	0.22
253.603	0.24
253.977	0.25
254.35	0.25
254.724	0.17
255.097	0.35
255.471	0.24
255.844	0.22
256.218	0.19
256.591	0.21
256.964	0.21
257.338	0.21
257.711	0.22
258.084	0.11
258.458	0.2
258.831	0.39
259.204	0.28
259.577	0.21
259.95	0.19
260.323	0.24
260.697	0.27
261.07	0.29
261.443	0.25
261.816	0.2
262.189	0.28
262.562	0.25
262.935	0.25
263.308	0.22
263.68	0.14
264.053	0.2
264.426	0.25
264.799	0.17
265.172	0.24
265.545	0.32
265.917	0.2
266.29	0.23
266.663	0.23
267.035	0.27
267.408	0.22
267.781	0.23
268.153	0.21
268.526	0.21
268.898	0.29
269.271	0.28
269.643	0.33
270.016	0.23
270.388	0.28
270.76	0.26
271.133	0.22
271.505	0.25
271.877	0.26
272.25	0.19
272.622	0.24
272.994	0.19
273.366	0.34
273.739	0.23
274.111	0.2
274.483	0.21
274.855	0.23
275.227	0.31
275.599	0.22
275.971	0.28
276.343	0.26
276.715	0.28
277.087	0.36
277.459	0.3
277.831	0.19
278.203	0.26
278.574	0.27
278.946	0.21
279.318	0.22
279.69	0.28
280.061	0.27
280.433	0.24
280.805	0.27
281.176	0.22
281.548	0.21
281.92	0.26
282.291	0.22
282.663	0.29
283.034	0.23
283.406	0.26
283.777	0.2
284.148	0.25
284.52	0.23
284.891	0.19
285.262	0.19
285.634	0.32
286.005	0.21
286.376	0.17
286.747	0.21
287.119	0.18
287.49	0.19
287.861	0.21
288.232	0.32
288.603	0.17
288.974	0.14
289.345	0.26
289.716	0.18
290.087	0.24
290.458	0.24
290.829	0.19
291.2	0.2
291.571	0.2
291.941	0.32
292.312	0.24
292.683	0.2
293.054	0.18
293.424	0.28
293.795	0.21
294.166	0.16
294.536	0.25
294.907	0.26
295.277	0.21
295.648	0.26
296.018	0.2
296.389	0.21
296.759	0.16
297.13	0.24
297.5	0.19
297.871	0.16
298.241	0.15
298.611	0.17
298.981	0.2
299.352	0.18
299.722	0.17
300.092	0.17
300.462	0.17
300.832	0.15
301.202	0.17
301.573	0.14
301.943	0.17
302.313	0.15
302.683	0.15
303.053	0.15
303.422	0.14
303.792	0.14
304.162	0.15
304.532	0.16
304.902	0.16
305.272	0.16
305.641	0.16
306.011	0.16
306.381	0.17
306.75	0.15
307.12	0.17
307.49	0.16
307.859	0.17
308.229	0.17
308.598	0.17
308.968	0.17
309.337	0.17
309.707	0.18
310.076	0.18
310.445	0.19
310.815	0.19
311.184	0.19
311.553	0.19
311.923	0.19
312.292	0.19
312.661	0.2
313.03	0.19
313.399	0.2
313.768	0.2
314.137	0.2
314.506	0.19
314.875	0.19
315.244	0.19
315.613	0.2
315.982	0.2
316.351	0.19
316.72	0.2
317.089	0.19
317.458	0.19
317.826	0.19
318.195	0.18
318.564	0.19
318.933	0.19
319.301	0.18
319.67	0.18
320.038	0.18
320.407	0.18
320.775	0.17
321.144	0.18
321.512	0.17
321.881	0.18
322.249	0.17
322.618	0.17
322.986	0.16
323.354	0.17
323.723	0.17
324.091	0.16
324.459	0.16
324.827	0.16
325.195	0.16
325.564	0.16
325.932	0.16
326.3	0.16
326.668	0.16
327.036	0.16
327.404	0.15
327.772	0.15
328.14	0.16
328.508	0.16
328.875	0.16
329.243	0.15
329.611	0.15
329.979	0.16
330.346	0.15
330.714	0.16
331.082	0.16
331.449	0.16
331.817	0.16
332.185	0.16
332.552	0.17
332.92	0.17
333.287	0.17
333.655	0.17
334.022	0.17
334.389	0.17
334.757	0.17
335.124	0.18
335.491	0.18
335.859	0.18
336.226	0.18
336.593	0.19
336.96	0.19
337.327	0.19
337.695	0.19
338.062	0.19
338.429	0.2
338.796	0.2
339.163	0.2
339.53	0.2
339.897	0.21
340.263	0.21
340.63	0.22
340.997	0.21
341.364	0.22
341.731	0.22
342.097	0.23
342.464	0.23
342.831	0.23
343.197	0.24
343.564	0.25
343.931	0.25
344.297	0.25
344.664	0.25
345.03	0.26
345.396	0.26
345.763	0.27
346.129	0.27
346.496	0.27
346.862	0.28
347.228	0.28
347.594	0.29
347.961	0.29
348.327	0.3
348.693	0.3
349.059	0.3
349.425	0.31
349.791	0.31
350.157	0.32
350.523	0.33
350.889	0.33
351.255	0.34
351.621	0.35
351.987	0.35
352.353	0.36
352.719	0.36
353.084	0.37
353.45	0.38
353.816	0.38
354.181	0.39
354.547	0.4
354.913	0.41
355.278	0.42
355.644	0.42
356.009	0.43
356.375	0.44
356.74	0.45
357.106	0.46
357.471	0.47
357.836	0.48
358.202	0.49
358.567	0.5
358.932	0.51
359.297	0.52
359.663	0.53
360.028	0.54
360.393	0.54
360.758	0.55
361.123	0.55
361.488	0.56
361.853	0.57
362.218	0.58
362.583	0.58
362.948	0.59
363.312	0.6
363.677	0.6
364.042	0.61
364.407	0.63
364.772	0.64
365.136	0.65
365.501	0.66
365.865	0.67
366.23	0.69
366.595	0.7
366.959	0.71
367.324	0.73
367.688	0.74
368.052	0.76
368.417	0.77
368.781	0.77
369.145	0.78
369.51	0.79
369.874	0.79
370.238	0.8
370.602	0.8
370.967	0.8
371.331	0.79
371.695	0.8
372.059	0.79
372.423	0.8
372.787	0.78
373.151	0.79
373.515	0.78
373.878	0.78
374.242	0.78
374.606	0.77
374.97	0.78
375.334	0.76
375.697	0.78
376.061	0.78
376.425	0.8
376.788	0.8
377.152	0.81
377.515	0.8
377.879	0.82
378.242	0.81
378.606	0.83
378.969	0.83
379.333	0.85
379.696	0.86
380.059	0.87
380.422	0.89
380.786	0.9
381.149	0.92
381.512	0.94
381.875	0.95
382.238	0.97
382.601	1
382.964	1.03
383.327	1.06
383.69	1.08
384.053	1.1
384.416	1.13
384.779	1.15
385.142	1.17
385.504	1.19
385.867	1.21
386.23	1.23
386.593	1.24
386.955	1.25
387.318	1.24
387.68	1.24
388.043	1.22
388.405	1.23
388.768	1.22
389.13	1.21
389.493	1.19
389.855	1.2
390.217	1.18
390.58	1.18
390.942	1.19
391.304	1.19
391.666	1.21
392.028	1.24
392.391	1.25
392.753	1.26
393.115	1.31
393.477	1.36
393.839	1.41
394.201	1.45
394.563	1.5
394.924	1.54
395.286	1.61
395.648	1.65
396.01	1.67
396.371	1.71
396.733	1.72
397.095	1.78
397.456	1.77
397.818	1.78
398.18	1.75
398.541	1.74
398.903	1.74
399.264	1.68
399.625	1.65
399.987	1.61
400.348	1.53
400.709	1.48
401.071	1.41
401.432	1.33
401.793	1.25
402.154	1.17
402.515	1.12
402.876	1.04
403.238	0.96
403.599	0.9
403.96	0.83
404.32	0.77
404.681	0.72
405.042	0.67
405.403	0.62
405.764	0.59
406.125	0.54
406.485	0.51
406.846	0.47
407.207	0.44
407.567	0.42
407.928	0.39
408.288	0.37
408.649	0.35
409.009	0.33
409.37	0.32
409.73	0.29
410.091	0.28
410.451	0.27
410.811	0.26
411.171	0.24
411.532	0.23
411.892	0.23
412.252	0.22
412.612	0.2
412.972	0.2
413.332	0.19
413.692	0.18
414.052	0.18
414.412	0.17
414.772	0.17
415.132	0.17
415.492	0.16
415.851	0.15
416.211	0.16
416.571	0.14
416.931	0.14
417.29	0.15
417.65	0.14
418.009	0.13
418.369	0.13
418.728	0.13
419.088	0.13
419.447	0.11
419.807	0.12
420.166	0.12
420.525	0.11
420.884	0.12
421.244	0.11
421.603	0.11
421.962	0.11
422.321	0.11
422.68	0.11
423.039	0.11
423.398	0.1
423.757	0.1
424.116	0.1
424.475	0.1
424.834	0.1
425.193	0.1
425.551	0.09
425.91	0.09
426.269	0.1
426.628	0.09
426.986	0.09
427.345	0.09
427.703	0.09
428.062	0.07
428.42	0.08
428.779	0.08
429.137	0.08
429.496	0.08
429.854	0.08
430.212	0.08
430.57	0.08
430.929	0.08
431.287	0.09
431.645	0.08
432.003	0.08
432.361	0.07
432.719	0.07
433.077	0.07
433.435	0.07
433.793	0.08
434.151	0.07
434.509	0.07
434.866	0.08
435.224	0.07
435.582	0.07
435.94	0.07
436.297	0.07
436.655	0.07
437.012	0.07
437.37	0.07
437.727	0.06
438.085	0.07
438.442	0.07
438.8	0.07
439.157	0.06
439.514	0.07
439.872	0.07
440.229	0.07
440.586	0.06
440.943	0.07
441.3	0.07
441.657	0.06
442.014	0.06
442.371	0.06
442.728	0.05
443.085	0.05
443.442	0.06
443.799	0.05
444.156	0.06
444.513	0.05
444.869	0.07
445.226	0.06
445.583	0.06
445.939	0.06
446.296	0.05
446.652	0.06
447.009	0.05
447.365	0.07
447.722	0.05
448.078	0.05
448.434	0.05
448.791	0.05
449.147	0.05
449.503	0.05
449.859	0.05
450.215	0.05
450.571	0.06
450.928	0.05
451.284	0.04
451.64	0.05
451.995	0.04
452.351	0.04
452.707	0.05
453.063	0.04
453.419	0.04
453.775	0.04
454.13	0.05
454.486	0.05
454.842	0.04
455.197	0.05
455.553	0.04
455.908	0.04
456.264	0.04
456.619	0.04
456.975	0.04
457.33	0.04
457.685	0.03
458.04	0.04
458.396	0.04
458.751	0.04
459.106	0.03
459.461	0.03
459.816	0.04
460.171	0.04
460.526	0.04
460.881	0.04
461.236	0.03
461.591	0.03
461.946	0.03
462.301	0.03
462.655	0.04
463.01	0.03
463.365	0.02
463.719	0.02
464.074	0.02
464.428	0.02
464.783	0.02
465.137	0.01
465.492	0.02
465.846	0.02
466.201	0.02
466.555	0.02
466.909	0.02
467.263	0.03
467.618	0.02
467.972	0.02
468.326	0.02
468.68	0.02
469.034	0.02
469.388	0.02
469.742	0.01
470.096	0.03
470.45	0.02
470.804	0.02
471.157	0.02
471.511	0.02
471.865	0.03
472.218	0.03
472.572	0.02
472.926	0.02
473.279	0.02
473.633	0.03
473.986	0.03
474.34	0.03
474.693	0.04
475.046	0.04
475.4	0.03
475.753	0.03
476.106	0.04
476.459	0.05
476.812	0.05
477.165	0.05
477.519	0.05
477.872	0.05
478.224	0.06
478.577	0.06
478.93	0.05
479.283	0.06
479.636	0.06
479.989	0.06
480.341	0.06
480.694	0.06
481.047	0.06
481.399	0.07
481.752	0.07
482.104	0.06
482.457	0.06
482.809	0.07
483.162	0.07
483.514	0.07
483.866	0.07
484.219	0.07
484.571	0.07
484.923	0.08
485.275	0.08
485.627	0.08
485.979	0.08
486.331	0.08
486.683	0.09
487.035	0.08
487.387	0.09
487.739	0.09
488.091	0.09
488.443	0.09
488.794	0.09
489.146	0.09
489.498	0.09
489.849	0.09
490.201	0.09
490.552	0.09
490.904	0.09
491.255	0.09
491.607	0.1
491.958	0.1
492.309	0.1
492.661	0.1
493.012	0.1
493.363	0.1
493.714	0.1
494.065	0.11
494.416	0.11
494.767	0.11
495.118	0.11
495.469	0.11
495.82	0.12
496.171	0.12
496.522	0.12
496.872	0.12
497.223	0.12
497.574	0.13
497.924	0.13
498.275	0.12
498.626	0.13
498.976	0.13
499.327	0.12
499.677	0.13
500.027	0.13
500.378	0.13
500.728	0.14
501.078	0.14
501.428	0.14
501.779	0.14
502.129	0.14
502.479	0.14
502.829	0.14
503.179	0.15
503.529	0.14
503.879	0.15
504.229	0.15
504.578	0.15
504.928	0.15
505.278	0.15
505.628	0.16
505.977	0.16
506.327	0.16
506.676	0.16
507.026	0.16
507.375	0.17
507.725	0.17
508.074	0.17
508.424	0.17
508.773	0.17
509.122	0.17
509.471	0.18
509.82	0.18
510.17	0.18
510.519	0.18
510.868	0.18
511.217	0.18
511.566	0.18
511.915	0.19
512.263	0.19
512.612	0.19
512.961	0.19
513.31	0.19
513.659	0.19
514.007	0.19
514.356	0.2
514.704	0.2
515.053	0.2
515.401	0.2
515.75	0.21
516.098	0.2
516.447	0.21
516.795	0.21
517.143	0.21
517.491	0.21
517.839	0.22
518.188	0.22
518.536	0.22
518.884	0.22
519.232	0.22
519.58	0.22
519.928	0.23
520.275	0.22
520.623	0.23
520.971	0.23
521.319	0.23
521.666	0.23
522.014	0.23
522.362	0.23
522.709	0.24
523.057	0.24
523.404	0.24
523.752	0.24
524.099	0.24
524.446	0.25
524.794	0.25
525.141	0.25
525.488	0.25
525.835	0.26
526.182	0.26
526.529	0.26
526.876	0.26
527.223	0.27
527.57	0.27
527.917	0.27
528.264	0.27
528.611	0.27
528.958	0.28
529.304	0.27
529.651	0.28
529.998	0.28
530.344	0.28
530.691	0.28
531.037	0.29
531.384	0.29
531.73	0.29
532.076	0.29
532.423	0.29
532.769	0.29
533.115	0.3
533.461	0.3
533.807	0.3
534.154	0.3
534.5	0.3
534.846	0.31
535.192	0.31
535.537	0.31
535.883	0.31
536.229	0.32
536.575	0.32
536.921	0.32
537.266	0.32
537.612	0.32
537.957	0.33
538.303	0.33
538.649	0.33
538.994	0.34
539.339	0.34
539.685	0.34
540.03	0.34
540.375	0.35
540.721	0.35
541.066	0.35
541.411	0.35
541.756	0.35
542.101	0.36
542.446	0.36
542.791	0.36
543.136	0.37
543.481	0.37
543.825	0.37
544.17	0.37
544.515	0.37
544.86	0.38
545.204	0.38
545.549	0.38
545.893	0.38
546.238	0.39
546.582	0.39
546.927	0.39
547.271	0.4
547.615	0.4
547.96	0.4
548.304	0.4
548.648	0.4
548.992	0.41
549.336	0.41
549.68	0.41
550.024	0.42
550.368	0.42
550.712	0.42
551.056	0.42
551.4	0.42
551.743	0.43
552.087	0.43
552.431	0.43
552.774	0.43
553.118	0.43
553.462	0.44
553.805	0.44
554.148	0.44
554.492	0.44
554.835	0.44
555.178	0.44
555.522	0.45
555.865	0.45
556.208	0.45
556.551	0.45
556.894	0.45
557.237	0.45
557.58	0.46
557.923	0.45
558.266	0.45
558.609	0.45
558.952	0.46
559.294	0.47
559.637	0.46
559.98	0.46
560.322	0.47
560.665	0.47
561.007	0.47
561.35	0.46
561.692	0.47
562.034	0.47
562.377	0.47
562.719	0.47
563.061	0.47
563.403	0.47
563.745	0.47
564.088	0.48
564.43	0.48
564.772	0.48
565.113	0.48
565.455	0.48
565.797	0.48
566.139	0.48
566.481	0.49
566.822	0.48
567.164	0.48
567.506	0.48
567.847	0.48
568.189	0.49
568.53	0.49
568.872	0.49
569.213	0.49
569.554	0.49
569.895	0.49
570.237	0.49
570.578	0.49
570.919	0.49
571.26	0.49
571.601	0.49
571.942	0.49
572.283	0.49
572.624	0.49
572.965	0.49
573.306	0.49
573.646	0.49
573.987	0.49
574.328	0.49
574.668	0.49
575.009	0.49
575.349	0.5
575.69	0.49
576.03	0.49
576.37	0.49
576.711	0.49
577.051	0.49
577.391	0.49
577.731	0.49
578.072	0.5
578.412	0.5
578.752	0.5
579.092	0.5
579.431	0.5
579.771	0.49
580.111	0.49
580.451	0.48
580.791	0.49
581.13	0.5
581.47	0.5
581.81	0.5
582.149	0.5
582.489	0.5
582.828	0.51
583.167	0.5
583.507	0.48
583.846	0.46
584.185	0.46
584.525	0.49
584.864	0.5
585.203	0.51
585.542	0.51
585.881	0.51
586.22	0.52
586.559	0.52
586.898	0.52
587.236	0.51
587.575	0.51
587.914	0.52
588.252	0.52
588.591	0.53
588.93	0.53
589.268	0.53
589.607	0.53
589.945	0.53
590.283	0.54
590.622	0.54
590.96	0.54
591.298	0.54
591.636	0.55
591.974	0.55
592.313	0.55
592.651	0.56
592.989	0.56
593.326	0.56
593.664	0.56
594.002	0.57
594.34	0.57
594.678	0.57
595.015	0.57
595.353	0.57
595.691	0.56
596.028	0.57
596.366	0.58
596.703	0.58
597.04	0.59
597.378	0.59
597.715	0.59
598.052	0.59
598.389	0.59
598.726	0.6
599.064	0.6
599.401	0.6
599.738	0.6
600.074	0.61
600.411	0.61
600.748	0.6
601.085	0.6
601.422	0.61
601.758	0.6
602.095	0.6
602.432	0.6
602.768	0.6
603.105	0.6
603.441	0.61
603.777	0.61
604.114	0.61
604.45	0.61
604.786	0.61
605.122	0.61
605.459	0.61
605.795	0.61
606.131	0.61
606.467	0.61
606.803	0.61
607.139	0.61
607.474	0.61
607.81	0.6
608.146	0.6
608.482	0.6
608.817	0.6
609.153	0.6
609.488	0.6
609.824	0.59
610.159	0.6
610.495	0.59
610.83	0.59
611.165	0.6
611.5	0.59
611.836	0.6
612.171	0.59
612.506	0.59
612.841	0.59
613.176	0.59
613.511	0.59
613.845	0.58
614.18	0.58
614.515	0.58
614.85	0.58
615.184	0.58
615.519	0.58
615.854	0.58
616.188	0.57
616.523	0.57
616.857	0.57
617.191	0.57
617.526	0.56
617.86	0.56
618.194	0.56
618.528	0.56
618.862	0.56
619.196	0.56
619.53	0.56
619.864	0.56
620.198	0.56
620.532	0.55
620.866	0.55
621.2	0.55
621.533	0.55
621.867	0.56
622.201	0.55
622.534	0.54
622.868	0.54
623.201	0.55
623.534	0.54
623.868	0.54
624.201	0.54
624.534	0.53
624.868	0.53
625.201	0.53
625.534	0.53
625.867	0.53
626.2	0.53
626.533	0.52
626.865	0.52
627.198	0.52
627.531	0.51
627.864	0.52
628.196	0.51
628.529	0.51
628.862	0.5
629.194	0.51
629.527	0.5
629.859	0.5
630.191	0.49
630.524	0.49
630.856	0.49
631.188	0.49
631.52	0.48
631.852	0.48
632.184	0.48
632.516	0.47
632.848	0.47
633.18	0.47
633.512	0.47
633.844	0.47
634.175	0.46
634.507	0.45
634.839	0.45
635.17	0.45
635.502	0.45
635.833	0.44
636.165	0.44
636.496	0.44
636.827	0.44
637.159	0.43
637.49	0.43
637.821	0.43
638.152	0.42
638.483	0.42
638.814	0.41
639.145	0.42
639.476	0.41
639.807	0.41
640.137	0.41
640.468	0.4
640.799	0.4
641.129	0.4
641.46	0.4
641.791	0.4
642.121	0.39
642.451	0.39
642.782	0.38
643.112	0.38
643.442	0.38
643.773	0.38
644.103	0.37
644.433	0.37
644.763	0.36
645.093	0.37
645.423	0.36
645.753	0.36
646.082	0.36
646.412	0.36
646.742	0.36
647.072	0.35
647.401	0.35
647.731	0.35
648.06	0.35
648.39	0.35
648.719	0.35
649.048	0.35
649.378	0.35
649.707	0.34
650.036	0.34
650.365	0.34
650.694	0.34
651.023	0.34
651.352	0.34
651.681	0.34
652.01	0.34
652.339	0.34
652.668	0.34
652.996	0.34
653.325	0.34
653.654	0.33
653.982	0.33
654.311	0.33
654.639	0.33
654.967	0.34
655.296	0.33
655.624	0.33
655.952	0.33
656.28	0.33
656.609	0.33
656.937	0.33
657.265	0.34
657.593	0.33
657.92	0.2
658.248	0.13
658.576	0.1
658.904	0.17
659.231	0.25
659.559	0.3
659.887	0.31
660.214	0.32
660.542	0.32
660.869	0.32
661.196	0.32
661.524	0.32
661.851	0.32
662.178	0.32
662.505	0.33
662.832	0.32
663.159	0.33
663.486	0.32
663.813	0.33
664.14	0.33
664.467	0.32
664.794	0.32
665.12	0.32
665.447	0.32
665.774	0.32
666.1	0.32
666.427	0.32
666.753	0.32
667.079	0.32
667.406	0.31
667.732	0.31
668.058	0.32
668.384	0.31
668.71	0.31
669.036	0.31
669.362	0.31
669.688	0.31
670.014	0.31
670.34	0.31
670.666	0.31
670.991	0.31
671.317	0.3
671.643	0.3
671.968	0.3
672.294	0.3
672.619	0.3
672.945	0.29
673.27	0.29
673.595	0.29
673.92	0.28
674.246	0.28
674.571	0.28
674.896	0.28
675.221	0.28
675.546	0.28
675.87	0.28
676.195	0.27
676.52	0.28
676.845	0.27
677.169	0.27
677.494	0.27
677.819	0.27
678.143	0.27
678.468	0.26
678.792	0.26
679.116	0.26
679.44	0.26
679.765	0.26
680.089	0.25
680.413	0.25
680.737	0.25
681.061	0.25
681.385	0.24
681.709	0.24
682.033	0.24
682.356	0.23
682.68	0.23
683.004	0.23
683.327	0.23
683.651	0.22
683.974	0.23
684.298	0.22
684.621	0.22
684.944	0.22
685.268	0.22
685.591	0.22
685.914	0.21
686.237	0.22
686.56	0.21
686.883	0.2
687.206	0.21
687.529	0.2
687.852	0.2
688.175	0.2
688.497	0.19
688.82	0.2
689.142	0.19
689.465	0.19
689.787	0.19
690.11	0.18
690.432	0.18
690.755	0.18
691.077	0.18
691.399	0.18
691.721	0.17
692.043	0.17
692.365	0.17
692.687	0.17
693.009	0.17
693.331	0.17
693.653	0.17
693.974	0.16
694.296	0.16
694.618	0.16
694.939	0.16
695.261	0.16
695.582	0.16
695.904	0.16
696.225	0.16
696.546	0.15
696.868	0.15
697.189	0.15
697.51	0.15
697.831	0.15
698.152	0.15
698.473	0.15
698.794	0.14
699.114	0.14
699.435	0.14
699.756	0.14
700.077	0.14
700.397	0.14
700.718	0.14
701.038	0.14
701.359	0.14
701.679	0.14
701.999	0.14
702.32	0.14
702.64	0.14
702.96	0.13
703.28	0.13
703.6	0.13
703.92	0.13
704.24	0.13
704.56	0.13
704.879	0.12
705.199	0.12
705.519	0.12
705.838	0.12
706.158	0.12
706.478	0.12
706.797	0.12
707.116	0.12
707.436	0.12
707.755	0.12
708.074	0.12
708.393	0.12
708.712	0.12
709.031	0.11
709.35	0.11
709.669	0.11
709.988	0.11
710.307	0.11
710.626	0.11
710.944	0.11
711.263	0.11
711.582	0.11
711.9	0.12
712.219	0.12
712.537	0.12
712.855	0.11
713.174	0.11
713.492	0.11
713.81	0.11
714.128	0.12
714.446	0.12
714.764	0.12
715.082	0.12
715.4	0.12
715.718	0.12
716.035	0.11
716.353	0.12
716.671	0.11
716.988	0.11
717.306	0.11
717.623	0.12
717.941	0.12
718.258	0.12
718.575	0.12
718.893	0.12
719.21	0.12
719.527	0.12
719.844	0.13
720.161	0.12
720.478	0.12
720.795	0.12
721.112	0.12
721.428	0.12
721.745	0.12
722.062	0.13
722.378	0.13
722.695	0.13
723.011	0.13
723.328	0.12
723.644	0.13
723.96	0.13
724.276	0.13
724.593	0.13
724.909	0.13
725.225	0.13
725.541	0.13
725.857	0.13
726.173	0.13
726.488	0.13
726.804	0.13
727.12	0.13
727.435	0.13
727.751	0.13
728.067	0.13
728.382	0.13
728.697	0.13
729.013	0.13
729.328	0.13
729.643	0.13
729.958	0.13
730.273	0.13
730.588	0.13
730.903	0.13
731.218	0.13
731.533	0.13
731.848	0.13
732.163	0.13
732.477	0.13
732.792	0.12
733.107	0.12
733.421	0.12
733.736	0.12
734.05	0.12
734.364	0.12
734.678	0.13
734.993	0.13
735.307	0.13
735.621	0.13
735.935	0.13
736.249	0.13
736.563	0.12
736.877	0.12
737.19	0.13
737.504	0.13
737.818	0.13
738.131	0.13
738.445	0.13
738.758	0.12
739.072	0.12
739.385	0.12
739.698	0.12
740.012	0.12
740.325	0.12
740.638	0.12
740.951	0.12
741.264	0.11
741.577	0.12
741.89	0.12
742.203	0.12
742.515	0.12
742.828	0.12
743.141	0.12
743.453	0.11
743.766	0.11
744.078	0.11
744.391	0.11
744.703	0.11
745.015	0.11
745.327	0.1
745.639	0.1
745.952	0.1
746.264	0.1
746.575	0.1
746.887	0.1
747.199	0.1
747.511	0.1
747.823	0.1
748.134	0.1
748.446	0.1
748.757	0.1
749.069	0.09
749.38	0.1
749.692	0.1
750.003	0.1
750.314	0.09
750.625	0.1
750.936	0.1
751.248	0.09
751.559	0.09
751.869	0.09
752.18	0.09
752.491	0.09
752.802	0.09
753.112	0.09
753.423	0.09
753.734	0.08
754.044	0.08
754.355	0.08
754.665	0.08
754.975	0.08
755.285	0.08
755.596	0.08
755.906	0.08
756.216	0.08
756.526	0.07
756.836	0.08
757.146	0.08
757.455	0.08
757.765	0.07
758.075	0.07
758.385	0.07
758.694	0.07
759.004	0.07
759.313	0.07
759.622	0.07
759.932	0.07
760.241	0.07
760.55	0.07
760.859	0.07
761.168	0.07
761.477	0.07
761.786	0.07
762.095	0.07
762.404	0.07
762.713	0.06
763.021	0.06
763.33	0.06
763.639	0.06
763.947	0.06
764.256	0.06
764.564	0.06
764.872	0.06
765.181	0.06
765.489	0.06
765.797	0.06
766.105	0.06
766.413	0.06
766.721	0.05
767.029	0.06
767.337	0.05
767.644	0.05
767.952	0.06
768.26	0.05
768.567	0.05
768.875	0.05
769.182	0.05
769.49	0.05
769.797	0.05
770.104	0.05
770.411	0.05
770.718	0.05
771.026	0.05
771.333	0.05
771.639	0.05
771.946	0.05
772.253	0.05
772.56	0.05
772.867	0.05
773.173	0.05
773.48	0.05
773.786	0.05
774.093	0.05
774.399	0.04
774.705	0.04
775.012	0.04
775.318	0.04
775.624	0.04
775.93	0.04
776.236	0.04
776.542	0.04
776.848	0.04
777.154	0.04
777.459	0.04
777.765	0.04
778.071	0.04
778.376	0.04
778.682	0.05
778.987	0.05
779.292	0.05
779.598	0.05
779.903	0.05
780.208	0.05
780.513	0.05
780.818	0.05
781.123	0.05
781.428	0.05
781.733	0.05
782.038	0.05
782.343	0.05
782.647	0.05
782.952	0.05
783.256	0.05
783.561	0.05
783.865	0.05
784.17	0.04
784.474	0.04
784.778	0.04
785.082	0.04
785.386	0.04
785.69	0.04
785.994	0.04
786.298	0.04
786.602	0.04
786.906	0.04
787.209	0.04
787.513	0.04
787.817	0.04
788.12	0.03
788.424	0.03
788.727	0.04
789.03	0.04
789.333	0.04
789.637	0.04
789.94	0.05
790.243	0.04
790.546	0.04
790.849	0.04
791.152	0.04
791.454	0.04
791.757	0.03
792.06	0.04
792.362	0.03
792.665	0.03
792.967	0.04
793.27	0.04
793.572	0.04
793.874	0.04
794.177	0.04
794.479	0.04
794.781	0.04
795.083	0.04
795.385	0.04
795.687	0.04
795.989	0.04
796.29	0.04
796.592	0.04
796.894	0.05
797.195	0.05
797.497	0.04
797.798	0.04
798.1	0.04
798.401	0.04
798.702	0.04
799.003	0.05
799.304	0.05
799.605	0.04
799.906	0.04
800.207	0.04
800.508	0.04
800.809	0.04
801.11	0.04
801.41	0.04
801.711	0.05
802.011	0.05
802.312	0.04
802.612	0.05
802.913	0.05
803.213	0.05
803.513	0.05
803.813	0.05
804.113	0.05
804.413	0.05
804.713	0.04
805.013	0.05
805.313	0.04
805.613	0.04
805.912	0.04
806.212	0.04
806.511	0.04
806.811	0.04
807.11	0.04
807.41	0.04
807.709	0.03
808.008	0.03
808.307	0.04
808.606	0.04
808.905	0.04
809.204	0.04
809.503	0.04
809.802	0.04
810.101	0.04
810.399	0.04
810.698	0.05
810.997	0.04
811.295	0.04
811.593	0.05
811.892	0.05
812.19	0.05
812.488	0.05
812.786	0.05
813.084	0.05
813.383	0.04
813.68	0.05
813.978	0.05
814.276	0.05
814.574	0.05
814.872	0.05
815.169	0.06
815.467	0.05
815.764	0.05
816.062	0.05
816.359	0.04
816.656	0.05
816.954	0.05
817.251	0.04
817.548	0.05
817.845	0.05
818.142	0.04
818.439	0.04
818.735	0.04
819.032	0.04
819.329	0.04
819.626	0.05
819.922	0.05
820.219	0.05
820.515	0.05
820.811	0.05
821.108	0.04
821.404	0.04
821.7	0.04
821.996	0.04
822.292	0.04
822.588	0.05
822.884	0.05
823.18	0.04
823.475	0.04
823.771	0.04
824.067	0.05
824.362	0.04
824.658	0.05
824.953	0.04
825.249	0.04
825.544	0.04
825.839	0.05
826.134	0.04
826.429	0.04
826.724	0.05
827.019	0.05
827.314	0.05
827.609	0.05
827.904	0.05
828.198	0.05
828.493	0.05
828.787	0.05
829.082	0.05
829.376	0.06
829.671	0.05
829.965	0.05
830.259	0.05
830.553	0.06
830.847	0.05
831.141	0.05
831.435	0.05
831.729	0.05
832.023	0.05
832.317	0.06
832.61	0.06
832.904	0.06
833.197	0.06
833.491	0.06
833.784	0.06
834.077	0.07
834.371	0.06
834.664	0.06
834.957	0.06
835.25	0.06
835.543	0.06
835.836	0.06
836.129	0.06
836.421	0.06
836.714	0.06
837.007	0.05
837.299	0.05
837.592	0.06
837.884	0.06
838.177	0.05
838.469	0.05
838.761	0.05
839.053	0.05
839.345	0.05
839.637	0.05
839.929	0.05
840.221	0.06
840.513	0.06
840.805	0.05
841.096	0.06
841.388	0.05
841.68	0.05
841.971	0.06
842.262	0.05
842.554	0.05
842.845	0.05
843.136	0.05
843.427	0.05
843.718	0.06
844.009	0.06
844.3	0.05
844.591	0.06
844.882	0.06
845.173	0.06
845.463	0.06
845.754	0.07
846.044	0.07
846.335	0.07
846.625	0.07
846.915	0.07
847.206	0.07
847.496	0.06
847.786	0.07
848.076	0.06
848.366	0.06
848.656	0.04
848.945	0.06
849.235	0.05
849.525	0.05
849.814	0.05
850.104	0.05
850.393	0.05
850.683	0.04
850.972	0.05
851.261	0.05
851.551	0.06
851.84	0.05
852.129	0.05
852.418	0.04
852.707	0.06
852.995	0.05
853.284	0.06
853.573	0.06
853.862	0.06
854.15	0.06
854.439	0.06
854.727	0.06
855.015	0.06
855.304	0.06
855.592	0.05
855.88	0.04
856.168	0.05
856.456	0.04
856.744	0.04
857.032	0.05
857.32	0.06
857.607	0.05
857.895	0.04
858.183	0.07
858.47	0.06
858.757	0.06
859.045	0.07
859.332	0.05
859.619	0.05
859.907	0.05
860.194	0.05
860.481	0.04
860.768	0.05
861.054	0.07
861.341	0.05
861.628	0.05
861.915	0.07
862.201	0.05
862.488	0.05
862.774	0.06
863.061	0.07
863.347	0.04
863.633	0.07
863.919	0.06
864.205	0.05
864.491	0.06
864.777	0.05
865.063	0.05
865.349	0.06
865.635	0.04
865.92	0.03
866.206	0.08
866.492	0.07
866.777	0.06
867.062	0.04
867.348	0.05
867.633	0.06
867.918	0.09
868.203	0.06
868.488	0.06
868.773	0.02
869.058	0.04
869.343	0.03
869.628	0.05
869.912	0.05
870.197	0.02
870.482	0.03
870.766	0.07
871.05	0.06
871.335	-0
871.619	0.04
871.903	0.02
872.187	0.07
872.471	0.08
872.755	0.06
873.039	0.08
873.323	0.08
873.607	0.03
873.89	0.04
874.174	0.07
874.458	0.04
874.741	0.09
875.024	0.03
875.308	0.05
875.591	0.01
875.874	0
876.157	0.04
876.44	0.08
876.723	0.08
877.006	0.05
877.289	0.02
877.572	0.1
877.854	0
878.137	0.03
878.42	0.03
878.702	0.01
878.984	0.05
879.267	0.07
879.549	0.08
879.831	0.06
880.113	0.04
880.395	0.03
880.677	0.04
880.959	0.12
