Data from Rubpy_EV_600_EDTA_Buffered_Absorbance_12-52-44-045.txt Node
Date: Tue Jun 30 12:52:44 BST 2026
User: fpm-admin
Spectrometer: OFX00224
Trigger mode: 0
Integration Time (sec): 7.000000E-2
Scans to average: 3
Nonlinearity correction enabled: false
Boxcar width: 0
Storing dark spectrum: false
XAxis mode: Wavelengths
Number of Pixels in Spectrum: 2136
>>>>>Begin Spectral Data<<<<<
154.91	-0
155.289	0.9
155.669	0.27
156.048	-0.36
156.428	-0
156.807	-0.45
157.186	-0
157.566	0.52
157.945	0.21
158.325	-0
158.704	-0
159.083	-0
159.462	-0
159.842	-0.4
160.221	-0
160.6	0.27
160.979	-0
161.359	-0.14
161.738	1.02
162.117	0.26
162.496	-0.3
162.875	-0.1
163.254	-0.04
163.633	-0
164.012	-0.3
164.391	0.12
164.77	-0
165.149	0.39
165.528	0.5
165.907	-0.26
166.286	-0.49
166.665	-0.07
167.044	-0
167.423	0.22
167.802	-0.2
168.181	0.48
168.559	-0
168.938	-0.25
169.317	-0.04
169.696	-0.81
170.074	-0.06
170.453	-0.37
170.832	-0
171.21	-0
171.589	0.42
171.968	-0
172.346	-0
172.725	0.32
173.103	-0.25
173.482	-0
173.861	-0.36
174.239	0.15
174.617	-0
174.996	-0.18
175.374	-0
175.753	-0
176.131	-0
176.51	-0.73
176.888	0.09
177.266	-0
177.645	-0.02
178.023	0.12
178.401	-0.14
178.779	0.05
179.158	0.39
179.536	-0
179.914	0.11
180.292	0.2
180.67	-0
181.048	-0
181.427	-1.28
181.805	0.3
182.183	-0.75
182.561	-0
182.939	0.41
183.317	0.31
183.695	0.45
184.073	-0.15
184.451	-0
184.829	-0
185.206	-0.28
185.584	-0
185.962	-0
186.34	0.72
186.718	-0
187.096	-0.44
187.473	0.82
187.851	-0.36
188.229	-0
188.607	0.01
188.984	-0.01
189.362	0.08
189.74	0.09
190.117	0.07
190.495	-0.03
190.872	-0.05
191.25	0.03
191.627	0.08
192.005	0.07
192.382	0.08
192.76	0.06
193.137	0.15
193.515	0.11
193.892	0.11
194.269	-0.04
194.647	0.04
195.024	0.02
195.401	0.02
195.779	0.06
196.156	-0.01
196.533	-0.01
196.91	0.1
197.288	0.04
197.665	-0
198.042	-0.03
198.419	-0.06
198.796	0.08
199.173	0.08
199.55	0.03
199.927	0.02
200.304	0.06
200.681	0.01
201.058	-0.01
201.435	0.02
201.812	-0
202.189	0.03
202.566	0.07
202.943	0.02
203.32	0.02
203.697	0.08
204.073	-0.07
204.45	0.07
204.827	0.06
205.204	0.09
205.58	0.05
205.957	0.07
206.334	0.06
206.71	0.07
207.087	0.12
207.464	0.05
207.84	0.01
208.217	-0.01
208.593	0.11
208.97	0.1
209.346	0.01
209.723	0.11
210.099	0.02
210.476	0.06
210.852	0.07
211.228	0.02
211.605	-0.01
211.981	0.05
212.357	0
212.733	0.06
213.11	0.05
213.486	0.04
213.862	-0.09
214.238	0.06
214.614	0
214.991	-0.03
215.367	0.07
215.743	-0.01
216.119	0.01
216.495	-0.08
216.871	0.01
217.247	0.01
217.623	-0.04
217.999	0.16
218.375	0.07
218.751	0.04
219.127	0.06
219.502	0.06
219.878	0.02
220.254	0.08
220.63	0.04
221.006	0.06
221.381	-0.06
221.757	0.09
222.133	0.08
222.508	0.08
222.884	0.08
223.26	0.03
223.635	-0.01
224.011	0.02
224.386	0.08
224.762	-0.03
225.137	0.07
225.513	0.09
225.888	0.08
226.264	0.08
226.639	0.01
227.014	0.09
227.39	-0.06
227.765	0.07
228.14	0.06
228.516	0.06
228.891	0.07
229.266	0.06
229.641	0.05
230.017	0.1
230.392	0.12
230.767	0.03
231.142	0.02
231.517	0.12
231.892	0.11
232.267	0.06
232.642	0.08
233.017	0.05
233.392	0.01
233.767	0.06
234.142	0.07
234.517	0.08
234.892	0.06
235.267	-0
235.641	0.01
236.016	0.06
236.391	0.05
236.766	0.02
237.14	0.01
237.515	0.08
237.89	0.13
238.264	0.03
238.639	0.07
239.014	0.04
239.388	0.03
239.763	0.04
240.137	0.08
240.512	0.08
240.886	0.05
241.261	0.06
241.635	0.07
242.009	0.1
242.384	0.05
242.758	-0.03
243.132	0.04
243.507	0.1
243.881	0.04
244.255	0.01
244.629	0.11
245.004	0.09
245.378	-0
245.752	0.06
246.126	0.04
246.5	0.12
246.874	0.07
247.248	0.05
247.622	-0.04
247.996	0.06
248.37	0.01
248.744	-0.03
249.118	0.08
249.492	0.07
249.866	0.03
250.24	0.03
250.613	-0.01
250.987	-0.02
251.361	0.01
251.735	0.03
252.108	-0.02
252.482	0.05
252.856	-0.05
253.229	-0.03
253.603	-0.02
253.977	0.01
254.35	0.05
254.724	0.01
255.097	0.04
255.471	0.04
255.844	-0.02
256.218	0.05
256.591	0.02
256.964	0.05
257.338	0.03
257.711	0.04
258.084	0.03
258.458	0.01
258.831	0.05
259.204	0.04
259.577	0.06
259.95	0.06
260.323	-0.01
260.697	0.03
261.07	0.06
261.443	0.09
261.816	0.01
262.189	0.06
262.562	0.04
262.935	0.01
263.308	-0.06
263.68	0.01
264.053	0.05
264.426	-0
264.799	0.01
265.172	0.04
265.545	0.01
265.917	0.03
266.29	0.03
266.663	-0.01
267.035	0.03
267.408	0.05
267.781	-0
268.153	-0
268.526	0.08
268.898	0.05
269.271	-0.01
269.643	0.11
270.016	0.06
270.388	0
270.76	0.09
271.133	0.04
271.505	0.04
271.877	0.02
272.25	-0.03
272.622	0.05
272.994	0.01
273.366	0.07
273.739	0.07
274.111	0.02
274.483	-0.07
274.855	-0.01
275.227	0.11
275.599	0.01
275.971	0.03
276.343	0.02
276.715	0.08
277.087	0.03
277.459	0.03
277.831	-0.04
278.203	0.07
278.574	0.09
278.946	0.07
279.318	0.04
279.69	0.08
280.061	0.04
280.433	0
280.805	0.03
281.176	-0.01
281.548	0.01
281.92	0.02
282.291	0.03
282.663	0.07
283.034	0.06
283.406	0.12
283.777	0.04
284.148	0.06
284.52	0.05
284.891	0.03
285.262	0.03
285.634	0.07
286.005	0.03
286.376	0.06
286.747	0.05
287.119	0.02
287.49	0
287.861	0.03
288.232	0.06
288.603	0.03
288.974	-0.01
289.345	0.04
289.716	0
290.087	-0.01
290.458	-0.02
290.829	0.01
291.2	-0.01
291.571	-0.03
291.941	0.02
292.312	0.02
292.683	0.04
293.054	0.02
293.424	-0.01
293.795	0.06
294.166	0.02
294.536	0.03
294.907	0.04
295.277	0.02
295.648	-0.02
296.018	0.01
296.389	0.02
296.759	0.04
297.13	0.02
297.5	0.03
297.871	0.03
298.241	-0
298.611	-0.02
298.981	-0
299.352	0.03
299.722	0.03
300.092	0.04
300.462	0.03
300.832	0.04
301.202	0.02
301.573	-0
301.943	0.03
302.313	0.02
302.683	0.02
303.053	0.01
303.422	0.01
303.792	0.02
304.162	0.02
304.532	0.02
304.902	0.02
305.272	0.01
305.641	0.02
306.011	0.02
306.381	0.01
306.75	0
307.12	0.01
307.49	0.02
307.859	0.02
308.229	0.01
308.598	0.02
308.968	0.01
309.337	0.01
309.707	0.01
310.076	0.01
310.445	0.01
310.815	0.02
311.184	0.02
311.553	0.02
311.923	0.01
312.292	0.01
312.661	0.02
313.03	0.01
313.399	0.02
313.768	0.02
314.137	0.01
314.506	0.02
314.875	0.02
315.244	0.02
315.613	0.01
315.982	0.02
316.351	0.02
316.72	0.02
317.089	0.02
317.458	0.02
317.826	0.01
318.195	0.02
318.564	0.02
318.933	0.02
319.301	0.02
319.67	0.02
320.038	0.01
320.407	0.02
320.775	0.02
321.144	0.02
321.512	0.02
321.881	0.01
322.249	0.01
322.618	0.01
322.986	0.01
323.354	0.02
323.723	0.01
324.091	0.01
324.459	0.01
324.827	0.01
325.195	0.01
325.564	0.02
325.932	0.02
326.3	0.01
326.668	0.01
327.036	0.01
327.404	0.01
327.772	0.01
328.14	0.02
328.508	0.01
328.875	0.02
329.243	0.01
329.611	0.01
329.979	0.01
330.346	0.01
330.714	0.01
331.082	0.01
331.449	0.02
331.817	0.01
332.185	0.01
332.552	0.01
332.92	0.01
333.287	0.01
333.655	0.01
334.022	0.01
334.389	0.02
334.757	0.01
335.124	0.01
335.491	0.02
335.859	0.01
336.226	0.02
336.593	0.01
336.96	0.02
337.327	0.02
337.695	0.02
338.062	0.01
338.429	0.02
338.796	0.02
339.163	0.02
339.53	0.01
339.897	0.01
340.263	0.02
340.63	0.02
340.997	0.02
341.364	0.02
341.731	0.02
342.097	0.02
342.464	0.02
342.831	0.02
343.197	0.02
343.564	0.02
343.931	0.02
344.297	0.02
344.664	0.02
345.03	0.02
345.396	0.03
345.763	0.02
346.129	0.02
346.496	0.02
346.862	0.03
347.228	0.02
347.594	0.02
347.961	0.03
348.327	0.03
348.693	0.02
349.059	0.03
349.425	0.02
349.791	0.03
350.157	0.03
350.523	0.03
350.889	0.03
351.255	0.03
351.621	0.03
351.987	0.03
352.353	0.03
352.719	0.03
353.084	0.04
353.45	0.03
353.816	0.03
354.181	0.04
354.547	0.04
354.913	0.03
355.278	0.04
355.644	0.04
356.009	0.04
356.375	0.04
356.74	0.04
357.106	0.04
357.471	0.04
357.836	0.04
358.202	0.04
358.567	0.05
358.932	0.05
359.297	0.04
359.663	0.05
360.028	0.05
360.393	0.04
360.758	0.04
361.123	0.05
361.488	0.05
361.853	0.05
362.218	0.05
362.583	0.05
362.948	0.05
363.312	0.05
363.677	0.05
364.042	0.06
364.407	0.06
364.772	0.06
365.136	0.06
365.501	0.06
365.865	0.06
366.23	0.06
366.595	0.06
366.959	0.06
367.324	0.06
367.688	0.07
368.052	0.07
368.417	0.07
368.781	0.07
369.145	0.07
369.51	0.08
369.874	0.08
370.238	0.07
370.602	0.07
370.967	0.08
371.331	0.08
371.695	0.07
372.059	0.07
372.423	0.08
372.787	0.07
373.151	0.07
373.515	0.07
373.878	0.07
374.242	0.08
374.606	0.08
374.97	0.07
375.334	0.07
375.697	0.07
376.061	0.08
376.425	0.08
376.788	0.08
377.152	0.08
377.515	0.08
377.879	0.08
378.242	0.08
378.606	0.08
378.969	0.08
379.333	0.08
379.696	0.08
380.059	0.08
380.422	0.09
380.786	0.09
381.149	0.09
381.512	0.09
381.875	0.09
382.238	0.09
382.601	0.1
382.964	0.1
383.327	0.1
383.69	0.11
384.053	0.11
384.416	0.11
384.779	0.12
385.142	0.12
385.504	0.12
385.867	0.12
386.23	0.12
386.593	0.13
386.955	0.12
387.318	0.13
387.68	0.13
388.043	0.12
388.405	0.13
388.768	0.12
389.13	0.12
389.493	0.12
389.855	0.12
390.217	0.12
390.58	0.12
390.942	0.12
391.304	0.12
391.666	0.12
392.028	0.12
392.391	0.13
392.753	0.13
393.115	0.14
393.477	0.14
393.839	0.15
394.201	0.15
394.563	0.16
394.924	0.16
395.286	0.17
395.648	0.18
396.01	0.19
396.371	0.19
396.733	0.19
397.095	0.2
397.456	0.2
397.818	0.2
398.18	0.2
398.541	0.2
398.903	0.19
399.264	0.18
399.625	0.18
399.987	0.17
400.348	0.16
400.709	0.16
401.071	0.15
401.432	0.14
401.793	0.13
402.154	0.13
402.515	0.11
402.876	0.11
403.238	0.1
403.599	0.09
403.96	0.09
404.32	0.08
404.681	0.07
405.042	0.07
405.403	0.06
405.764	0.06
406.125	0.05
406.485	0.05
406.846	0.05
407.207	0.04
407.567	0.05
407.928	0.04
408.288	0.04
408.649	0.03
409.009	0.04
409.37	0.03
409.73	0.03
410.091	0.03
410.451	0.03
410.811	0.03
411.171	0.03
411.532	0.02
411.892	0.03
412.252	0.02
412.612	0.02
412.972	0.02
413.332	0.02
413.692	0.02
414.052	0.02
414.412	0.02
414.772	0.02
415.132	0.02
415.492	0.02
415.851	0.02
416.211	0.02
416.571	0.02
416.931	0.02
417.29	0.02
417.65	0.01
418.009	0.01
418.369	0.01
418.728	0.02
419.088	0.01
419.447	0.01
419.807	0.02
420.166	0.02
420.525	0.01
420.884	0.01
421.244	0.02
421.603	0.01
421.962	0.01
422.321	0.02
422.68	0.01
423.039	0.01
423.398	0.01
423.757	0.02
424.116	0.02
424.475	0.02
424.834	0.02
425.193	0.02
425.551	0.01
425.91	0.01
426.269	0.01
426.628	0.01
426.986	0.01
427.345	0
427.703	0.02
428.062	0
428.42	0.01
428.779	0.01
429.137	0.01
429.496	0.01
429.854	0.02
430.212	0.01
430.57	0.01
430.929	0.02
431.287	0.02
431.645	0.01
432.003	0.02
432.361	0.01
432.719	0.01
433.077	0.01
433.435	0.01
433.793	0.01
434.151	0
434.509	0.01
434.866	0.01
435.224	0.01
435.582	0.01
435.94	0.01
436.297	0.02
436.655	0.01
437.012	0
437.37	0.01
437.727	0.01
438.085	0
438.442	0.01
438.8	0.01
439.157	0.01
439.514	0.01
439.872	0.01
440.229	0.01
440.586	0.01
440.943	0.01
441.3	0.01
441.657	0.01
442.014	0.01
442.371	0.01
442.728	0
443.085	0.01
443.442	0.01
443.799	-0
444.156	0.01
444.513	0
444.869	0.01
445.226	0.01
445.583	0
445.939	0.01
446.296	0
446.652	0.01
447.009	0.01
447.365	0.01
447.722	0.02
448.078	0.01
448.434	0
448.791	0.01
449.147	0.01
449.503	-0
449.859	0.01
450.215	0
450.571	0.01
450.928	0.01
451.284	0.01
451.64	0
451.995	0
452.351	0
452.707	-0
453.063	0.01
453.419	-0
453.775	-0
454.13	0
454.486	0.02
454.842	-0.01
455.197	0
455.553	0
455.908	0
456.264	-0
456.619	0
456.975	-0.01
457.33	-0
457.685	-0.01
458.04	-0
458.396	-0.01
458.751	-0.01
459.106	-0.01
459.461	-0.01
459.816	-0.01
460.171	-0
460.526	-0
460.881	-0.01
461.236	-0.02
461.591	-0.02
461.946	-0.01
462.301	-0.01
462.655	-0.01
463.01	-0.02
463.365	-0.01
463.719	-0.02
464.074	-0.01
464.428	-0.02
464.783	-0.02
465.137	-0.03
465.492	-0.02
465.846	-0.02
466.201	-0.02
466.555	-0.02
466.909	-0.03
467.263	-0.02
467.618	-0.02
467.972	-0.02
468.326	-0.03
468.68	-0.02
469.034	-0.02
469.388	-0.03
469.742	-0.03
470.096	-0.02
470.45	-0.03
470.804	-0.03
471.157	-0.03
471.511	-0.02
471.865	-0.02
472.218	-0.02
472.572	-0.03
472.926	-0.03
473.279	-0.03
473.633	-0.02
473.986	-0.02
474.34	-0.02
474.693	-0.02
475.046	-0.02
475.4	-0.02
475.753	-0.02
476.106	-0.01
476.459	-0.01
476.812	-0.01
477.165	-0.01
477.519	-0.01
477.872	-0.01
478.224	-0.01
478.577	-0.01
478.93	-0.01
479.283	-0.01
479.636	-0
479.989	-0.01
480.341	-0
480.694	-0.01
481.047	-0
481.399	-0
481.752	0
482.104	-0
482.457	-0
482.809	-0
483.162	0
483.514	0
483.866	-0
484.219	0
484.571	0
484.923	0
485.275	0
485.627	-0
485.979	0
486.331	0.01
486.683	0.01
487.035	0
487.387	0
487.739	0.01
488.091	0.01
488.443	0.01
488.794	0.01
489.146	0.01
489.498	0.01
489.849	0.01
490.201	0
490.552	0.01
490.904	0
491.255	0.01
491.607	0.01
491.958	0.01
492.309	0.01
492.661	0
493.012	0
493.363	0.01
493.714	0.01
494.065	0.01
494.416	0.01
494.767	0.01
495.118	0.01
495.469	0.01
495.82	0.01
496.171	0.01
496.522	0.01
496.872	0.01
497.223	0.01
497.574	0.01
497.924	0.01
498.275	0.01
498.626	0.02
498.976	0.01
499.327	0.01
499.677	0.01
500.027	0.01
500.378	0.01
500.728	0.02
501.078	0.01
501.428	0.01
501.779	0.01
502.129	0.02
502.479	0.02
502.829	0.01
503.179	0.02
503.529	0.01
503.879	0.02
504.229	0.02
504.578	0.01
504.928	0.02
505.278	0.02
505.628	0.02
505.977	0.02
506.327	0.02
506.676	0.02
507.026	0.01
507.375	0.02
507.725	0.02
508.074	0.02
508.424	0.02
508.773	0.02
509.122	0.02
509.471	0.02
509.82	0.02
510.17	0.02
510.519	0.02
510.868	0.02
511.217	0.02
511.566	0.02
511.915	0.02
512.263	0.02
512.612	0.02
512.961	0.02
513.31	0.02
513.659	0.02
514.007	0.02
514.356	0.03
514.704	0.02
515.053	0.02
515.401	0.02
515.75	0.03
516.098	0.02
516.447	0.03
516.795	0.03
517.143	0.02
517.491	0.03
517.839	0.03
518.188	0.03
518.536	0.02
518.884	0.02
519.232	0.03
519.58	0.03
519.928	0.03
520.275	0.03
520.623	0.03
520.971	0.03
521.319	0.03
521.666	0.03
522.014	0.03
522.362	0.03
522.709	0.03
523.057	0.03
523.404	0.03
523.752	0.03
524.099	0.03
524.446	0.03
524.794	0.03
525.141	0.03
525.488	0.03
525.835	0.03
526.182	0.03
526.529	0.03
526.876	0.03
527.223	0.03
527.57	0.04
527.917	0.03
528.264	0.03
528.611	0.03
528.958	0.03
529.304	0.03
529.651	0.04
529.998	0.04
530.344	0.03
530.691	0.04
531.037	0.04
531.384	0.04
531.73	0.03
532.076	0.03
532.423	0.04
532.769	0.04
533.115	0.04
533.461	0.03
533.807	0.04
534.154	0.04
534.5	0.04
534.846	0.04
535.192	0.04
535.537	0.04
535.883	0.04
536.229	0.04
536.575	0.04
536.921	0.04
537.266	0.04
537.612	0.04
537.957	0.04
538.303	0.04
538.649	0.05
538.994	0.04
539.339	0.04
539.685	0.04
540.03	0.04
540.375	0.05
540.721	0.04
541.066	0.04
541.411	0.04
541.756	0.04
542.101	0.04
542.446	0.05
542.791	0.05
543.136	0.05
543.481	0.04
543.825	0.04
544.17	0.04
544.515	0.04
544.86	0.05
545.204	0.04
545.549	0.05
545.893	0.05
546.238	0.05
546.582	0.05
546.927	0.05
547.271	0.05
547.615	0.04
547.96	0.05
548.304	0.05
548.648	0.05
548.992	0.05
549.336	0.05
549.68	0.05
550.024	0.05
550.368	0.05
550.712	0.05
551.056	0.05
551.4	0.05
551.743	0.05
552.087	0.05
552.431	0.05
552.774	0.05
553.118	0.05
553.462	0.05
553.805	0.05
554.148	0.05
554.492	0.05
554.835	0.05
555.178	0.05
555.522	0.06
555.865	0.05
556.208	0.06
556.551	0.05
556.894	0.05
557.237	0.05
557.58	0.06
557.923	0.05
558.266	0.05
558.609	0.05
558.952	0.06
559.294	0.06
559.637	0.05
559.98	0.05
560.322	0.06
560.665	0.05
561.007	0.06
561.35	0.05
561.692	0.05
562.034	0.06
562.377	0.06
562.719	0.06
563.061	0.05
563.403	0.05
563.745	0.05
564.088	0.05
564.43	0.06
564.772	0.06
565.113	0.06
565.455	0.06
565.797	0.06
566.139	0.05
566.481	0.06
566.822	0.06
567.164	0.06
567.506	0.06
567.847	0.05
568.189	0.06
568.53	0.05
568.872	0.06
569.213	0.06
569.554	0.06
569.895	0.06
570.237	0.06
570.578	0.06
570.919	0.05
571.26	0.05
571.601	0.06
571.942	0.06
572.283	0.05
572.624	0.05
572.965	0.05
573.306	0.05
573.646	0.06
573.987	0.06
574.328	0.06
574.668	0.05
575.009	0.05
575.349	0.05
575.69	0.05
576.03	0.05
576.37	0.05
576.711	0.05
577.051	0.05
577.391	0.05
577.731	0.06
578.072	0.05
578.412	0.05
578.752	0.05
579.092	0.05
579.431	0.05
579.771	0.05
580.111	0.05
580.451	0.05
580.791	0.05
581.13	0.05
581.47	0.05
581.81	0.05
582.149	0.05
582.489	0.05
582.828	0.05
583.167	0.05
583.507	0.04
583.846	0.02
584.185	0.03
584.525	0.04
584.864	0.05
585.203	0.06
585.542	0.06
585.881	0.06
586.22	0.06
586.559	0.06
586.898	0.05
587.236	0.05
587.575	0.05
587.914	0.05
588.252	0.05
588.591	0.06
588.93	0.05
589.268	0.05
589.607	0.06
589.945	0.05
590.283	0.06
590.622	0.06
590.96	0.06
591.298	0.06
591.636	0.06
591.974	0.06
592.313	0.06
592.651	0.06
592.989	0.06
593.326	0.06
593.664	0.06
594.002	0.06
594.34	0.06
594.678	0.06
595.015	0.06
595.353	0.06
595.691	0.06
596.028	0.06
596.366	0.06
596.703	0.06
597.04	0.06
597.378	0.06
597.715	0.07
598.052	0.06
598.389	0.07
598.726	0.07
599.064	0.07
599.401	0.07
599.738	0.07
600.074	0.07
600.411	0.07
600.748	0.06
601.085	0.06
601.422	0.06
601.758	0.06
602.095	0.06
602.432	0.06
602.768	0.06
603.105	0.07
603.441	0.07
603.777	0.06
604.114	0.07
604.45	0.06
604.786	0.07
605.122	0.07
605.459	0.07
605.795	0.06
606.131	0.06
606.467	0.06
606.803	0.06
607.139	0.07
607.474	0.06
607.81	0.06
608.146	0.06
608.482	0.06
608.817	0.06
609.153	0.06
609.488	0.06
609.824	0.06
610.159	0.06
610.495	0.06
610.83	0.06
611.165	0.06
611.5	0.06
611.836	0.07
612.171	0.07
612.506	0.07
612.841	0.07
613.176	0.07
613.511	0.07
613.845	0.06
614.18	0.06
614.515	0.06
614.85	0.06
615.184	0.06
615.519	0.06
615.854	0.06
616.188	0.06
616.523	0.06
616.857	0.06
617.191	0.06
617.526	0.06
617.86	0.06
618.194	0.06
618.528	0.06
618.862	0.06
619.196	0.06
619.53	0.06
619.864	0.07
620.198	0.06
620.532	0.06
620.866	0.07
621.2	0.07
621.533	0.06
621.867	0.07
622.201	0.07
622.534	0.06
622.868	0.06
623.201	0.07
623.534	0.06
623.868	0.06
624.201	0.06
624.534	0.06
624.868	0.06
625.201	0.06
625.534	0.06
625.867	0.06
626.2	0.06
626.533	0.07
626.865	0.06
627.198	0.06
627.531	0.06
627.864	0.06
628.196	0.06
628.529	0.06
628.862	0.06
629.194	0.06
629.527	0.06
629.859	0.06
630.191	0.06
630.524	0.05
630.856	0.06
631.188	0.05
631.52	0.06
631.852	0.06
632.184	0.06
632.516	0.06
632.848	0.06
633.18	0.06
633.512	0.05
633.844	0.05
634.175	0.06
634.507	0.05
634.839	0.05
635.17	0.05
635.502	0.05
635.833	0.05
636.165	0.05
636.496	0.05
636.827	0.06
637.159	0.06
637.49	0.06
637.821	0.05
638.152	0.05
638.483	0.05
638.814	0.05
639.145	0.05
639.476	0.05
639.807	0.05
640.137	0.05
640.468	0.05
640.799	0.05
641.129	0.06
641.46	0.06
641.791	0.06
642.121	0.05
642.451	0.05
642.782	0.05
643.112	0.05
643.442	0.05
643.773	0.06
644.103	0.05
644.433	0.05
644.763	0.05
645.093	0.05
645.423	0.05
645.753	0.05
646.082	0.05
646.412	0.05
646.742	0.05
647.072	0.05
647.401	0.05
647.731	0.05
648.06	0.05
648.39	0.05
648.719	0.05
649.048	0.05
649.378	0.05
649.707	0.04
650.036	0.04
650.365	0.04
650.694	0.04
651.023	0.04
651.352	0.05
651.681	0.05
652.01	0.05
652.339	0.05
652.668	0.05
652.996	0.05
653.325	0.05
653.654	0.05
653.982	0.05
654.311	0.05
654.639	0.05
654.967	0.05
655.296	0.05
655.624	0.05
655.952	0.04
656.28	0.04
656.609	0.04
656.937	0.04
657.265	0.04
657.593	0.03
657.92	0
658.248	-0
658.576	-0
658.904	0
659.231	0.01
659.559	0.04
659.887	0.04
660.214	0.04
660.542	0.04
660.869	0.05
661.196	0.04
661.524	0.04
661.851	0.04
662.178	0.04
662.505	0.04
662.832	0.04
663.159	0.04
663.486	0.05
663.813	0.05
664.14	0.05
664.467	0.05
664.794	0.05
665.12	0.05
665.447	0.05
665.774	0.05
666.1	0.05
666.427	0.05
666.753	0.04
667.079	0.05
667.406	0.05
667.732	0.05
668.058	0.05
668.384	0.05
668.71	0.05
669.036	0.04
669.362	0.04
669.688	0.05
670.014	0.05
670.34	0.05
670.666	0.04
670.991	0.04
671.317	0.04
671.643	0.04
671.968	0.04
672.294	0.04
672.619	0.05
672.945	0.04
673.27	0.04
673.595	0.04
673.92	0.04
674.246	0.04
674.571	0.04
674.896	0.04
675.221	0.04
675.546	0.04
675.87	0.04
676.195	0.04
676.52	0.04
676.845	0.04
677.169	0.04
677.494	0.04
677.819	0.04
678.143	0.04
678.468	0.04
678.792	0.04
679.116	0.04
679.44	0.04
679.765	0.04
680.089	0.04
680.413	0.04
680.737	0.04
681.061	0.04
681.385	0.03
681.709	0.04
682.033	0.04
682.356	0.03
682.68	0.04
683.004	0.03
683.327	0.04
683.651	0.03
683.974	0.03
684.298	0.03
684.621	0.03
684.944	0.03
685.268	0.04
685.591	0.03
685.914	0.03
686.237	0.03
686.56	0.03
686.883	0.03
687.206	0.03
687.529	0.03
687.852	0.03
688.175	0.03
688.497	0.03
688.82	0.04
689.142	0.04
689.465	0.03
689.787	0.03
690.11	0.03
690.432	0.03
690.755	0.03
691.077	0.03
691.399	0.03
691.721	0.03
692.043	0.03
692.365	0.03
692.687	0.03
693.009	0.03
693.331	0.03
693.653	0.03
693.974	0.03
694.296	0.03
694.618	0.03
694.939	0.03
695.261	0.03
695.582	0.03
695.904	0.03
696.225	0.03
696.546	0.03
696.868	0.03
697.189	0.03
697.51	0.03
697.831	0.03
698.152	0.03
698.473	0.03
698.794	0.02
699.114	0.02
699.435	0.02
699.756	0.03
700.077	0.03
700.397	0.03
700.718	0.03
701.038	0.03
701.359	0.03
701.679	0.03
701.999	0.03
702.32	0.03
702.64	0.03
702.96	0.03
703.28	0.02
703.6	0.02
703.92	0.02
704.24	0.02
704.56	0.02
704.879	0.02
705.199	0.03
705.519	0.03
705.838	0.02
706.158	0.02
706.478	0.02
706.797	0.02
707.116	0.03
707.436	0.03
707.755	0.03
708.074	0.03
708.393	0.02
708.712	0.02
709.031	0.02
709.35	0.02
709.669	0.02
709.988	0.02
710.307	0.02
710.626	0.02
710.944	0.03
711.263	0.02
711.582	0.02
711.9	0.02
712.219	0.02
712.537	0.02
712.855	0.02
713.174	0.02
713.492	0.02
713.81	0.02
714.128	0.03
714.446	0.02
714.764	0.02
715.082	0.03
715.4	0.03
715.718	0.03
716.035	0.02
716.353	0.02
716.671	0.02
716.988	0.02
717.306	0.02
717.623	0.02
717.941	0.03
718.258	0.02
718.575	0.03
718.893	0.03
719.21	0.03
719.527	0.03
719.844	0.03
720.161	0.03
720.478	0.03
720.795	0.03
721.112	0.02
721.428	0.03
721.745	0.03
722.062	0.03
722.378	0.03
722.695	0.03
723.011	0.03
723.328	0.03
723.644	0.03
723.96	0.03
724.276	0.03
724.593	0.03
724.909	0.03
725.225	0.03
725.541	0.03
725.857	0.03
726.173	0.03
726.488	0.03
726.804	0.03
727.12	0.02
727.435	0.02
727.751	0.02
728.067	0.03
728.382	0.03
728.697	0.03
729.013	0.03
729.328	0.03
729.643	0.03
729.958	0.02
730.273	0.03
730.588	0.03
730.903	0.03
731.218	0.02
731.533	0.02
731.848	0.02
732.163	0.02
732.477	0.02
732.792	0.02
733.107	0.02
733.421	0.02
733.736	0.02
734.05	0.02
734.364	0.02
734.678	0.02
734.993	0.03
735.307	0.03
735.621	0.02
735.935	0.02
736.249	0.03
736.563	0.03
736.877	0.02
737.19	0.03
737.504	0.03
737.818	0.03
738.131	0.02
738.445	0.02
738.758	0.02
739.072	0.02
739.385	0.02
739.698	0.02
740.012	0.02
740.325	0.02
740.638	0.02
740.951	0.02
741.264	0.02
741.577	0.03
741.89	0.03
742.203	0.03
742.515	0.03
742.828	0.03
743.141	0.03
743.453	0.03
743.766	0.02
744.078	0.02
744.391	0.02
744.703	0.03
745.015	0.03
745.327	0.02
745.639	0.02
745.952	0.02
746.264	0.02
746.575	0.02
746.887	0.02
747.199	0.03
747.511	0.02
747.823	0.03
748.134	0.03
748.446	0.03
748.757	0.03
749.069	0.03
749.38	0.03
749.692	0.03
750.003	0.03
750.314	0.03
750.625	0.03
750.936	0.03
751.248	0.03
751.559	0.03
751.869	0.03
752.18	0.03
752.491	0.03
752.802	0.03
753.112	0.02
753.423	0.02
753.734	0.02
754.044	0.02
754.355	0.02
754.665	0.02
754.975	0.02
755.285	0.02
755.596	0.02
755.906	0.02
756.216	0.02
756.526	0.02
756.836	0.02
757.146	0.02
757.455	0.02
757.765	0.02
758.075	0.02
758.385	0.02
758.694	0.02
759.004	0.02
759.313	0.02
759.622	0.02
759.932	0.02
760.241	0.02
760.55	0.02
760.859	0.03
761.168	0.03
761.477	0.02
761.786	0.02
762.095	0.02
762.404	0.02
762.713	0.02
763.021	0.02
763.33	0.02
763.639	0.02
763.947	0.02
764.256	0.02
764.564	0.02
764.872	0.02
765.181	0.02
765.489	0.02
765.797	0.02
766.105	0.02
766.413	0.02
766.721	0.02
767.029	0.02
767.337	0.02
767.644	0.02
767.952	0.03
768.26	0.03
768.567	0.03
768.875	0.03
769.182	0.02
769.49	0.02
769.797	0.02
770.104	0.02
770.411	0.02
770.718	0.02
771.026	0.02
771.333	0.02
771.639	0.02
771.946	0.02
772.253	0.02
772.56	0.02
772.867	0.02
773.173	0.02
773.48	0.02
773.786	0.02
774.093	0.02
774.399	0.02
774.705	0.02
775.012	0.02
775.318	0.02
775.624	0.02
775.93	0.02
776.236	0.02
776.542	0.02
776.848	0.02
777.154	0.02
777.459	0.02
777.765	0.02
778.071	0.02
778.376	0.02
778.682	0.03
778.987	0.03
779.292	0.02
779.598	0.02
779.903	0.02
780.208	0.03
780.513	0.02
780.818	0.02
781.123	0.02
781.428	0.02
781.733	0.02
782.038	0.02
782.343	0.02
782.647	0.03
782.952	0.03
783.256	0.03
783.561	0.03
783.865	0.03
784.17	0.03
784.474	0.02
784.778	0.02
785.082	0.02
785.386	0.02
785.69	0.02
785.994	0.03
786.298	0.03
786.602	0.03
786.906	0.02
787.209	0.03
787.513	0.02
787.817	0.02
788.12	0.02
788.424	0.02
788.727	0.02
789.03	0.03
789.333	0.03
789.637	0.03
789.94	0.03
790.243	0.03
790.546	0.03
790.849	0.03
791.152	0.02
791.454	0.02
791.757	0.02
792.06	0.02
792.362	0.02
792.665	0.03
792.967	0.03
793.27	0.03
793.572	0.03
793.874	0.03
794.177	0.02
794.479	0.03
794.781	0.03
795.083	0.03
795.385	0.03
795.687	0.02
795.989	0.03
796.29	0.02
796.592	0.03
796.894	0.03
797.195	0.03
797.497	0.03
797.798	0.03
798.1	0.03
798.401	0.03
798.702	0.03
799.003	0.03
799.304	0.03
799.605	0.03
799.906	0.02
800.207	0.03
800.508	0.02
800.809	0.03
801.11	0.03
801.41	0.03
801.711	0.03
802.011	0.03
802.312	0.03
802.612	0.03
802.913	0.03
803.213	0.03
803.513	0.03
803.813	0.03
804.113	0.03
804.413	0.03
804.713	0.03
805.013	0.03
805.313	0.03
805.613	0.03
805.912	0.03
806.212	0.03
806.511	0.03
806.811	0.03
807.11	0.03
807.41	0.02
807.709	0.02
808.008	0.02
808.307	0.03
808.606	0.02
808.905	0.03
809.204	0.03
809.503	0.03
809.802	0.03
810.101	0.04
810.399	0.04
810.698	0.04
810.997	0.04
811.295	0.04
811.593	0.04
811.892	0.04
812.19	0.04
812.488	0.03
812.786	0.04
813.084	0.03
813.383	0.03
813.68	0.03
813.978	0.04
814.276	0.04
814.574	0.03
814.872	0.04
815.169	0.03
815.467	0.04
815.764	0.03
816.062	0.03
816.359	0.03
816.656	0.03
816.954	0.03
817.251	0.03
817.548	0.03
817.845	0.04
818.142	0.04
818.439	0.03
818.735	0.03
819.032	0.03
819.329	0.03
819.626	0.03
819.922	0.03
820.219	0.03
820.515	0.04
820.811	0.04
821.108	0.04
821.404	0.03
821.7	0.03
821.996	0.03
822.292	0.04
822.588	0.04
822.884	0.04
823.18	0.04
823.475	0.03
823.771	0.03
824.067	0.03
824.362	0.03
824.658	0.04
824.953	0.03
825.249	0.04
825.544	0.03
825.839	0.03
826.134	0.03
826.429	0.04
826.724	0.04
827.019	0.04
827.314	0.04
827.609	0.03
827.904	0.03
828.198	0.04
828.493	0.03
828.787	0.03
829.082	0.03
829.376	0.04
829.671	0.04
829.965	0.04
830.259	0.04
830.553	0.04
830.847	0.03
831.141	0.04
831.435	0.04
831.729	0.04
832.023	0.04
832.317	0.04
832.61	0.05
832.904	0.04
833.197	0.04
833.491	0.05
833.784	0.05
834.077	0.04
834.371	0.04
834.664	0.05
834.957	0.04
835.25	0.05
835.543	0.04
835.836	0.04
836.129	0.04
836.421	0.03
836.714	0.04
837.007	0.04
837.299	0.04
837.592	0.04
837.884	0.04
838.177	0.03
838.469	0.03
838.761	0.03
839.053	0.03
839.345	0.03
839.637	0.03
839.929	0.03
840.221	0.03
840.513	0.03
840.805	0.03
841.096	0.04
841.388	0.04
841.68	0.04
841.971	0.03
842.262	0.03
842.554	0.04
842.845	0.03
843.136	0.03
843.427	0.03
843.718	0.03
844.009	0.03
844.3	0.03
844.591	0.04
844.882	0.04
845.173	0.03
845.463	0.04
845.754	0.05
846.044	0.04
846.335	0.05
846.625	0.04
846.915	0.04
847.206	0.03
847.496	0.04
847.786	0.04
848.076	0.04
848.366	0.04
848.656	0.04
848.945	0.03
849.235	0.04
849.525	0.04
849.814	0.04
850.104	0.05
850.393	0.04
850.683	0.03
850.972	0.04
851.261	0.04
851.551	0.04
851.84	0.04
852.129	0.05
852.418	0.05
852.707	0.04
852.995	0.04
853.284	0.05
853.573	0.04
853.862	0.05
854.15	0.04
854.439	0.03
854.727	0.05
855.015	0.06
855.304	0.04
855.592	0.03
855.88	0.03
856.168	0.03
856.456	0.02
856.744	0.04
857.032	0.04
857.32	0.04
857.607	0.03
857.895	0.03
858.183	0.05
858.47	0.04
858.757	0.03
859.045	0.05
859.332	0.05
859.619	0.03
859.907	0.04
860.194	0.04
860.481	0.03
860.768	0.03
861.054	0.03
861.341	0.04
861.628	0.05
861.915	0.05
862.201	0.04
862.488	0.03
862.774	0.03
863.061	0.02
863.347	0.03
863.633	0.06
863.919	0.03
864.205	0.04
864.491	0.04
864.777	0.03
865.063	0.03
865.349	0.04
865.635	0.01
865.92	0.01
866.206	0.05
866.492	0.04
866.777	0.02
867.062	0.03
867.348	0.03
867.633	0.04
867.918	0.02
868.203	0.04
868.488	0.04
868.773	0.03
869.058	0.03
869.343	-0.01
869.628	0.02
869.912	0.01
870.197	0
870.482	0.01
870.766	0.05
871.05	0.03
871.335	0.01
871.619	-0.01
871.903	0.03
872.187	0.05
872.471	0.01
872.755	0
873.039	0.05
873.323	0.05
873.607	-0.03
873.89	0.04
874.174	0.01
874.458	-0
874.741	0.02
875.024	-0.04
875.308	0.01
875.591	-0.05
875.874	-0.02
876.157	-0.01
876.44	0.05
876.723	0.07
877.006	0.04
877.289	-0
877.572	0.07
877.854	0
878.137	0.02
878.42	-0.04
878.702	-0.04
878.984	-0
879.267	0.01
879.549	0.04
879.831	-0.08
880.113	-0.01
880.395	-0
880.677	0.04
880.959	-0.01
