Data from Rubpy_EV_600_EDTA_Buffered_Absorbance_13-14-46-031.txt Node
Date: Tue Jun 30 13:14:46 BST 2026
User: fpm-admin
Spectrometer: OFX00224
Trigger mode: 0
Integration Time (sec): 7.000000E-2
Scans to average: 3
Nonlinearity correction enabled: false
Boxcar width: 0
Storing dark spectrum: false
XAxis mode: Wavelengths
Number of Pixels in Spectrum: 2136
>>>>>Begin Spectral Data<<<<<
154.91	-0.6
155.289	-0
155.669	0.99
156.048	-0.06
156.428	-0
156.807	-0
157.186	0.32
157.566	-0
157.945	0.83
158.325	-0
158.704	0.06
159.083	-0.5
159.462	-0
159.842	-0.38
160.221	0.9
160.6	0.4
160.979	0.02
161.359	-0
161.738	0.92
162.117	-0
162.496	0.53
162.875	0.17
163.254	0.5
163.633	-0
164.012	-0.45
164.391	0.06
164.77	-0
165.149	0.73
165.528	0.22
165.907	-0
166.286	-0.28
166.665	0.2
167.044	-0
167.423	0.13
167.802	-0.32
168.181	-0
168.559	-0.48
168.938	0.13
169.317	-0.26
169.696	-0.69
170.074	-0
170.453	-0.34
170.832	1.18
171.21	-0
171.589	-0
171.968	-0
172.346	1.31
172.725	0.05
173.103	0.11
173.482	-0
173.861	-0.12
174.239	0.07
174.617	-0
174.996	-0
175.374	-0
175.753	-0.6
176.131	-0
176.51	-0.26
176.888	0.09
177.266	-0
177.645	-0
178.023	-0
178.401	-0.18
178.779	-0.03
179.158	-0.1
179.536	-0.18
179.914	1.71
180.292	-0
180.67	-0
181.048	-0
181.427	-1.56
181.805	-0
182.183	0.48
182.561	-0
182.939	1.64
183.317	0.82
183.695	-0
184.073	0.17
184.451	-0
184.829	-1.22
185.206	0.94
185.584	-0.25
185.962	-0
186.34	-0
186.718	-0.28
187.096	-0.02
187.473	0.92
187.851	1.2
188.229	0.6
188.607	0.08
188.984	0.1
189.362	0.22
189.74	0.34
190.117	0.3
190.495	0.3
190.872	0.2
191.25	0.17
191.627	0.22
192.005	0.19
192.382	0.29
192.76	0.22
193.137	0.32
193.515	0.3
193.892	0.11
194.269	0.11
194.647	0.2
195.024	0.11
195.401	0.32
195.779	0.23
196.156	0.17
196.533	0.16
196.91	0.25
197.288	0.15
197.665	0.2
198.042	0.22
198.419	0.18
198.796	0.22
199.173	0.21
199.55	0.13
199.927	0.14
200.304	0.27
200.681	0.1
201.058	0.23
201.435	0.11
201.812	0.23
202.189	0.2
202.566	0.22
202.943	0.15
203.32	0.22
203.697	0.18
204.073	0.07
204.45	0.15
204.827	0.25
205.204	0.23
205.58	0.18
205.957	0.23
206.334	0.12
206.71	0.15
207.087	0.24
207.464	0.13
207.84	0.26
208.217	0.19
208.593	0.31
208.97	0.17
209.346	0.24
209.723	0.25
210.099	0.2
210.476	0.18
210.852	0.16
211.228	0.13
211.605	0.22
211.981	0.12
212.357	0.15
212.733	0.14
213.11	0.23
213.486	0.16
213.862	0.21
214.238	0.33
214.614	0.21
214.991	0.11
215.367	0.35
215.743	0.19
216.119	0.14
216.495	0.08
216.871	0.13
217.247	0.34
217.623	0.17
217.999	0.13
218.375	0.22
218.751	0.2
219.127	0.22
219.502	0.25
219.878	0.22
220.254	0.23
220.63	0.24
221.006	0.09
221.381	0.2
221.757	0.17
222.133	0.2
222.508	0.27
222.884	0.21
223.26	0.2
223.635	0.22
224.011	0.11
224.386	0.25
224.762	0.13
225.137	0.21
225.513	0.18
225.888	0.07
226.264	0.23
226.639	0.17
227.014	0.16
227.39	0.23
227.765	0.31
228.14	0.19
228.516	0.22
228.891	0.16
229.266	0.26
229.641	0.11
230.017	0.26
230.392	0.28
230.767	0.27
231.142	0.14
231.517	0.2
231.892	0.26
232.267	0.28
232.642	0.24
233.017	0.14
233.392	0.21
233.767	0.31
234.142	0.25
234.517	0.2
234.892	0.19
235.267	0.27
235.641	0.25
236.016	0.11
236.391	0.17
236.766	0.23
237.14	0.11
237.515	0.21
237.89	0.4
238.264	0.22
238.639	0.31
239.014	0.1
239.388	0.1
239.763	0.2
240.137	0.2
240.512	0.22
240.886	0.23
241.261	0.13
241.635	0.1
242.009	0.24
242.384	0.21
242.758	0.17
243.132	0.14
243.507	0.24
243.881	0.15
244.255	0.16
244.629	0.19
245.004	0.22
245.378	0.18
245.752	0.38
246.126	0.21
246.5	0.18
246.874	0.18
247.248	0.15
247.622	0.15
247.996	0.22
248.37	0.18
248.744	0.16
249.118	0.16
249.492	0.24
249.866	0.15
250.24	0.15
250.613	0.13
250.987	0.18
251.361	0.23
251.735	0.21
252.108	0.15
252.482	0.17
252.856	0.12
253.229	0.14
253.603	0.11
253.977	0.31
254.35	0.19
254.724	0.2
255.097	0.18
255.471	0.18
255.844	0.2
256.218	0.21
256.591	0.19
256.964	0.16
257.338	0.18
257.711	0.2
258.084	0.13
258.458	0.21
258.831	0.28
259.204	0.22
259.577	0.25
259.95	0.22
260.323	0.09
260.697	0.21
261.07	0.22
261.443	0.15
261.816	0.19
262.189	0.2
262.562	0.27
262.935	0.16
263.308	0.16
263.68	0.1
264.053	0.15
264.426	0.21
264.799	0.15
265.172	0.17
265.545	0.2
265.917	0.22
266.29	0.22
266.663	0.14
267.035	0.21
267.408	0.31
267.781	0.12
268.153	0.18
268.526	0.22
268.898	0.21
269.271	0.2
269.643	0.2
270.016	0.12
270.388	0.2
270.76	0.21
271.133	0.19
271.505	0.21
271.877	0.17
272.25	0.12
272.622	0.16
272.994	0.19
273.366	0.23
273.739	0.23
274.111	0.16
274.483	0.12
274.855	0.19
275.227	0.23
275.599	0.19
275.971	0.2
276.343	0.16
276.715	0.23
277.087	0.16
277.459	0.23
277.831	0.24
278.203	0.22
278.574	0.21
278.946	0.28
279.318	0.22
279.69	0.16
280.061	0.28
280.433	0.24
280.805	0.23
281.176	0.15
281.548	0.15
281.92	0.2
282.291	0.17
282.663	0.18
283.034	0.19
283.406	0.17
283.777	0.22
284.148	0.18
284.52	0.13
284.891	0.18
285.262	0.21
285.634	0.17
286.005	0.21
286.376	0.21
286.747	0.19
287.119	0.18
287.49	0.18
287.861	0.16
288.232	0.29
288.603	0.16
288.974	0.13
289.345	0.19
289.716	0.18
290.087	0.14
290.458	0.18
290.829	0.12
291.2	0.15
291.571	0.19
291.941	0.21
292.312	0.19
292.683	0.18
293.054	0.19
293.424	0.18
293.795	0.15
294.166	0.14
294.536	0.19
294.907	0.17
295.277	0.21
295.648	0.11
296.018	0.16
296.389	0.14
296.759	0.15
297.13	0.19
297.5	0.16
297.871	0.13
298.241	0.15
298.611	0.13
298.981	0.17
299.352	0.1
299.722	0.16
300.092	0.13
300.462	0.13
300.832	0.15
301.202	0.12
301.573	0.13
301.943	0.12
302.313	0.1
302.683	0.09
303.053	0.11
303.422	0.11
303.792	0.1
304.162	0.12
304.532	0.12
304.902	0.12
305.272	0.11
305.641	0.13
306.011	0.12
306.381	0.13
306.75	0.11
307.12	0.12
307.49	0.12
307.859	0.13
308.229	0.13
308.598	0.12
308.968	0.13
309.337	0.13
309.707	0.13
310.076	0.13
310.445	0.14
310.815	0.14
311.184	0.14
311.553	0.14
311.923	0.14
312.292	0.14
312.661	0.14
313.03	0.15
313.399	0.15
313.768	0.15
314.137	0.14
314.506	0.15
314.875	0.14
315.244	0.14
315.613	0.14
315.982	0.15
316.351	0.14
316.72	0.14
317.089	0.14
317.458	0.15
317.826	0.14
318.195	0.14
318.564	0.14
318.933	0.14
319.301	0.14
319.67	0.13
320.038	0.13
320.407	0.14
320.775	0.12
321.144	0.13
321.512	0.13
321.881	0.13
322.249	0.13
322.618	0.13
322.986	0.12
323.354	0.12
323.723	0.13
324.091	0.12
324.459	0.12
324.827	0.12
325.195	0.12
325.564	0.12
325.932	0.12
326.3	0.12
326.668	0.11
327.036	0.12
327.404	0.12
327.772	0.12
328.14	0.12
328.508	0.12
328.875	0.12
329.243	0.11
329.611	0.11
329.979	0.12
330.346	0.12
330.714	0.12
331.082	0.11
331.449	0.12
331.817	0.12
332.185	0.12
332.552	0.12
332.92	0.12
333.287	0.13
333.655	0.12
334.022	0.12
334.389	0.13
334.757	0.13
335.124	0.13
335.491	0.13
335.859	0.13
336.226	0.13
336.593	0.14
336.96	0.14
337.327	0.13
337.695	0.14
338.062	0.14
338.429	0.14
338.796	0.15
339.163	0.15
339.53	0.15
339.897	0.15
340.263	0.16
340.63	0.16
340.997	0.16
341.364	0.16
341.731	0.17
342.097	0.17
342.464	0.17
342.831	0.17
343.197	0.17
343.564	0.18
343.931	0.18
344.297	0.18
344.664	0.19
345.03	0.19
345.396	0.19
345.763	0.19
346.129	0.2
346.496	0.2
346.862	0.2
347.228	0.2
347.594	0.21
347.961	0.21
348.327	0.22
348.693	0.22
349.059	0.22
349.425	0.22
349.791	0.23
350.157	0.23
350.523	0.24
350.889	0.24
351.255	0.24
351.621	0.25
351.987	0.26
352.353	0.26
352.719	0.27
353.084	0.27
353.45	0.28
353.816	0.28
354.181	0.29
354.547	0.29
354.913	0.3
355.278	0.3
355.644	0.31
356.009	0.32
356.375	0.32
356.74	0.33
357.106	0.34
357.471	0.35
357.836	0.35
358.202	0.36
358.567	0.37
358.932	0.37
359.297	0.38
359.663	0.39
360.028	0.4
360.393	0.4
360.758	0.41
361.123	0.41
361.488	0.41
361.853	0.42
362.218	0.42
362.583	0.43
362.948	0.44
363.312	0.45
363.677	0.44
364.042	0.45
364.407	0.46
364.772	0.47
365.136	0.48
365.501	0.49
365.865	0.5
366.23	0.51
366.595	0.52
366.959	0.53
367.324	0.54
367.688	0.55
368.052	0.56
368.417	0.57
368.781	0.58
369.145	0.58
369.51	0.6
369.874	0.59
370.238	0.59
370.602	0.59
370.967	0.59
371.331	0.59
371.695	0.58
372.059	0.59
372.423	0.59
372.787	0.58
373.151	0.58
373.515	0.58
373.878	0.58
374.242	0.58
374.606	0.58
374.97	0.58
375.334	0.58
375.697	0.58
376.061	0.59
376.425	0.6
376.788	0.59
377.152	0.6
377.515	0.61
377.879	0.61
378.242	0.61
378.606	0.62
378.969	0.63
379.333	0.64
379.696	0.64
380.059	0.66
380.422	0.67
380.786	0.67
381.149	0.7
381.512	0.7
381.875	0.72
382.238	0.73
382.601	0.75
382.964	0.77
383.327	0.8
383.69	0.81
384.053	0.83
384.416	0.86
384.779	0.87
385.142	0.9
385.504	0.91
385.867	0.92
386.23	0.93
386.593	0.95
386.955	0.94
387.318	0.95
387.68	0.94
388.043	0.95
388.405	0.94
388.768	0.93
389.13	0.92
389.493	0.92
389.855	0.92
390.217	0.9
390.58	0.9
390.942	0.9
391.304	0.91
391.666	0.92
392.028	0.93
392.391	0.97
392.753	0.98
393.115	1.01
393.477	1.05
393.839	1.07
394.201	1.12
394.563	1.17
394.924	1.21
395.286	1.26
395.648	1.29
396.01	1.33
396.371	1.36
396.733	1.38
397.095	1.41
397.456	1.42
397.818	1.41
398.18	1.41
398.541	1.41
398.903	1.39
399.264	1.35
399.625	1.31
399.987	1.26
400.348	1.21
400.709	1.15
401.071	1.1
401.432	1.03
401.793	0.97
402.154	0.9
402.515	0.85
402.876	0.79
403.238	0.74
403.599	0.69
403.96	0.64
404.32	0.59
404.681	0.55
405.042	0.51
405.403	0.47
405.764	0.44
406.125	0.41
406.485	0.39
406.846	0.35
407.207	0.33
407.567	0.32
407.928	0.3
408.288	0.28
408.649	0.26
409.009	0.25
409.37	0.24
409.73	0.22
410.091	0.21
410.451	0.21
410.811	0.2
411.171	0.19
411.532	0.17
411.892	0.17
412.252	0.16
412.612	0.16
412.972	0.15
413.332	0.15
413.692	0.14
414.052	0.14
414.412	0.13
414.772	0.13
415.132	0.12
415.492	0.12
415.851	0.12
416.211	0.12
416.571	0.11
416.931	0.1
417.29	0.11
417.65	0.1
418.009	0.1
418.369	0.1
418.728	0.1
419.088	0.09
419.447	0.09
419.807	0.09
420.166	0.09
420.525	0.09
420.884	0.09
421.244	0.08
421.603	0.09
421.962	0.08
422.321	0.08
422.68	0.08
423.039	0.08
423.398	0.07
423.757	0.08
424.116	0.08
424.475	0.08
424.834	0.07
425.193	0.08
425.551	0.07
425.91	0.07
426.269	0.07
426.628	0.07
426.986	0.07
427.345	0.06
427.703	0.07
428.062	0.05
428.42	0.06
428.779	0.08
429.137	0.07
429.496	0.07
429.854	0.06
430.212	0.06
430.57	0.06
430.929	0.07
431.287	0.07
431.645	0.05
432.003	0.06
432.361	0.06
432.719	0.06
433.077	0.06
433.435	0.06
433.793	0.06
434.151	0.05
434.509	0.06
434.866	0.06
435.224	0.05
435.582	0.05
435.94	0.05
436.297	0.05
436.655	0.05
437.012	0.05
437.37	0.05
437.727	0.05
438.085	0.06
438.442	0.05
438.8	0.04
439.157	0.05
439.514	0.05
439.872	0.05
440.229	0.06
440.586	0.05
440.943	0.05
441.3	0.05
441.657	0.05
442.014	0.05
442.371	0.05
442.728	0.05
443.085	0.05
443.442	0.05
443.799	0.04
444.156	0.04
444.513	0.04
444.869	0.05
445.226	0.05
445.583	0.04
445.939	0.04
446.296	0.04
446.652	0.04
447.009	0.03
447.365	0.05
447.722	0.04
448.078	0.04
448.434	0.04
448.791	0.04
449.147	0.04
449.503	0.04
449.859	0.04
450.215	0.04
450.571	0.04
450.928	0.05
451.284	0.04
451.64	0.03
451.995	0.03
452.351	0.03
452.707	0.03
453.063	0.03
453.419	0.04
453.775	0.03
454.13	0.04
454.486	0.04
454.842	0.03
455.197	0.04
455.553	0.03
455.908	0.02
456.264	0.02
456.619	0.02
456.975	0.03
457.33	0.03
457.685	0.02
458.04	0.02
458.396	0.02
458.751	0.02
459.106	0.02
459.461	0.02
459.816	0.02
460.171	0.02
460.526	0.02
460.881	0.03
461.236	0.01
461.591	0.02
461.946	0.02
462.301	0.02
462.655	0.02
463.01	0.01
463.365	0.01
463.719	0.01
464.074	0.02
464.428	0.01
464.783	0.01
465.137	0.01
465.492	0.01
465.846	0.01
466.201	0.01
466.555	0.01
466.909	-0
467.263	0.01
467.618	0.02
467.972	0.01
468.326	0.01
468.68	0.01
469.034	0
469.388	0.01
469.742	0
470.096	0.01
470.45	0.01
470.804	0.01
471.157	0.01
471.511	0.01
471.865	0.01
472.218	0.01
472.572	0.01
472.926	0.01
473.279	0.01
473.633	0.02
473.986	0.02
474.34	0.02
474.693	0.02
475.046	0.02
475.4	0.02
475.753	0.02
476.106	0.03
476.459	0.03
476.812	0.03
477.165	0.03
477.519	0.03
477.872	0.03
478.224	0.03
478.577	0.04
478.93	0.04
479.283	0.04
479.636	0.04
479.989	0.04
480.341	0.04
480.694	0.04
481.047	0.04
481.399	0.04
481.752	0.05
482.104	0.05
482.457	0.04
482.809	0.04
483.162	0.05
483.514	0.05
483.866	0.05
484.219	0.05
484.571	0.05
484.923	0.06
485.275	0.05
485.627	0.05
485.979	0.06
486.331	0.06
486.683	0.07
487.035	0.06
487.387	0.07
487.739	0.06
488.091	0.07
488.443	0.06
488.794	0.07
489.146	0.07
489.498	0.07
489.849	0.07
490.201	0.06
490.552	0.07
490.904	0.06
491.255	0.07
491.607	0.07
491.958	0.07
492.309	0.07
492.661	0.08
493.012	0.07
493.363	0.07
493.714	0.07
494.065	0.08
494.416	0.08
494.767	0.08
495.118	0.08
495.469	0.09
495.82	0.08
496.171	0.09
496.522	0.09
496.872	0.08
497.223	0.09
497.574	0.09
497.924	0.09
498.275	0.09
498.626	0.1
498.976	0.09
499.327	0.09
499.677	0.1
500.027	0.09
500.378	0.1
500.728	0.1
501.078	0.1
501.428	0.1
501.779	0.1
502.129	0.11
502.479	0.1
502.829	0.1
503.179	0.11
503.529	0.11
503.879	0.11
504.229	0.11
504.578	0.11
504.928	0.12
505.278	0.11
505.628	0.11
505.977	0.12
506.327	0.12
506.676	0.12
507.026	0.12
507.375	0.12
507.725	0.12
508.074	0.13
508.424	0.12
508.773	0.13
509.122	0.13
509.471	0.13
509.82	0.13
510.17	0.14
510.519	0.13
510.868	0.13
511.217	0.13
511.566	0.13
511.915	0.14
512.263	0.14
512.612	0.14
512.961	0.14
513.31	0.14
513.659	0.14
514.007	0.14
514.356	0.15
514.704	0.15
515.053	0.15
515.401	0.15
515.75	0.15
516.098	0.15
516.447	0.16
516.795	0.15
517.143	0.16
517.491	0.16
517.839	0.16
518.188	0.16
518.536	0.16
518.884	0.16
519.232	0.17
519.58	0.17
519.928	0.17
520.275	0.16
520.623	0.17
520.971	0.17
521.319	0.18
521.666	0.18
522.014	0.17
522.362	0.18
522.709	0.18
523.057	0.18
523.404	0.18
523.752	0.18
524.099	0.18
524.446	0.19
524.794	0.19
525.141	0.19
525.488	0.19
525.835	0.19
526.182	0.19
526.529	0.2
526.876	0.19
527.223	0.2
527.57	0.2
527.917	0.2
528.264	0.2
528.611	0.2
528.958	0.2
529.304	0.2
529.651	0.21
529.998	0.21
530.344	0.21
530.691	0.22
531.037	0.22
531.384	0.22
531.73	0.22
532.076	0.22
532.423	0.22
532.769	0.22
533.115	0.22
533.461	0.22
533.807	0.22
534.154	0.22
534.5	0.23
534.846	0.23
535.192	0.23
535.537	0.23
535.883	0.24
536.229	0.23
536.575	0.24
536.921	0.24
537.266	0.24
537.612	0.24
537.957	0.25
538.303	0.25
538.649	0.25
538.994	0.25
539.339	0.25
539.685	0.26
540.03	0.25
540.375	0.26
540.721	0.26
541.066	0.27
541.411	0.27
541.756	0.26
542.101	0.27
542.446	0.27
542.791	0.28
543.136	0.28
543.481	0.28
543.825	0.28
544.17	0.28
544.515	0.28
544.86	0.28
545.204	0.28
545.549	0.29
545.893	0.29
546.238	0.29
546.582	0.29
546.927	0.3
547.271	0.3
547.615	0.3
547.96	0.3
548.304	0.3
548.648	0.31
548.992	0.31
549.336	0.31
549.68	0.31
550.024	0.31
550.368	0.31
550.712	0.32
551.056	0.32
551.4	0.32
551.743	0.32
552.087	0.32
552.431	0.32
552.774	0.33
553.118	0.33
553.462	0.33
553.805	0.33
554.148	0.33
554.492	0.33
554.835	0.34
555.178	0.34
555.522	0.34
555.865	0.33
556.208	0.34
556.551	0.34
556.894	0.34
557.237	0.34
557.58	0.35
557.923	0.34
558.266	0.34
558.609	0.34
558.952	0.35
559.294	0.35
559.637	0.35
559.98	0.35
560.322	0.35
560.665	0.35
561.007	0.35
561.35	0.35
561.692	0.36
562.034	0.36
562.377	0.36
562.719	0.36
563.061	0.36
563.403	0.36
563.745	0.36
564.088	0.36
564.43	0.36
564.772	0.37
565.113	0.36
565.455	0.37
565.797	0.36
566.139	0.36
566.481	0.36
566.822	0.37
567.164	0.37
567.506	0.37
567.847	0.37
568.189	0.37
568.53	0.37
568.872	0.37
569.213	0.38
569.554	0.37
569.895	0.37
570.237	0.37
570.578	0.37
570.919	0.37
571.26	0.37
571.601	0.37
571.942	0.38
572.283	0.37
572.624	0.37
572.965	0.37
573.306	0.37
573.646	0.37
573.987	0.37
574.328	0.37
574.668	0.37
575.009	0.37
575.349	0.37
575.69	0.37
576.03	0.37
576.37	0.37
576.711	0.36
577.051	0.37
577.391	0.37
577.731	0.37
578.072	0.37
578.412	0.37
578.752	0.37
579.092	0.37
579.431	0.37
579.771	0.37
580.111	0.36
580.451	0.36
580.791	0.37
581.13	0.37
581.47	0.38
581.81	0.38
582.149	0.38
582.489	0.38
582.828	0.38
583.167	0.37
583.507	0.36
583.846	0.33
584.185	0.34
584.525	0.36
584.864	0.37
585.203	0.38
585.542	0.38
585.881	0.39
586.22	0.39
586.559	0.39
586.898	0.39
587.236	0.38
587.575	0.38
587.914	0.38
588.252	0.39
588.591	0.39
588.93	0.4
589.268	0.4
589.607	0.4
589.945	0.4
590.283	0.4
590.622	0.41
590.96	0.41
591.298	0.41
591.636	0.42
591.974	0.41
592.313	0.42
592.651	0.42
592.989	0.42
593.326	0.43
593.664	0.43
594.002	0.42
594.34	0.43
594.678	0.43
595.015	0.43
595.353	0.42
595.691	0.43
596.028	0.43
596.366	0.43
596.703	0.44
597.04	0.44
597.378	0.44
597.715	0.44
598.052	0.44
598.389	0.45
598.726	0.46
599.064	0.45
599.401	0.45
599.738	0.46
600.074	0.46
600.411	0.46
600.748	0.46
601.085	0.46
601.422	0.46
601.758	0.45
602.095	0.45
602.432	0.45
602.768	0.45
603.105	0.46
603.441	0.46
603.777	0.46
604.114	0.46
604.45	0.46
604.786	0.46
605.122	0.46
605.459	0.46
605.795	0.46
606.131	0.46
606.467	0.46
606.803	0.46
607.139	0.46
607.474	0.46
607.81	0.45
608.146	0.46
608.482	0.46
608.817	0.46
609.153	0.45
609.488	0.45
609.824	0.45
610.159	0.45
610.495	0.45
610.83	0.45
611.165	0.45
611.5	0.45
611.836	0.45
612.171	0.45
612.506	0.45
612.841	0.45
613.176	0.45
613.511	0.45
613.845	0.44
614.18	0.44
614.515	0.44
614.85	0.44
615.184	0.44
615.519	0.44
615.854	0.44
616.188	0.43
616.523	0.43
616.857	0.43
617.191	0.43
617.526	0.42
617.86	0.43
618.194	0.42
618.528	0.42
618.862	0.43
619.196	0.43
619.53	0.43
619.864	0.42
620.198	0.42
620.532	0.42
620.866	0.42
621.2	0.42
621.533	0.42
621.867	0.42
622.201	0.42
622.534	0.41
622.868	0.41
623.201	0.41
623.534	0.41
623.868	0.41
624.201	0.41
624.534	0.41
624.868	0.4
625.201	0.41
625.534	0.4
625.867	0.4
626.2	0.4
626.533	0.4
626.865	0.4
627.198	0.4
627.531	0.39
627.864	0.39
628.196	0.39
628.529	0.39
628.862	0.38
629.194	0.38
629.527	0.39
629.859	0.38
630.191	0.37
630.524	0.38
630.856	0.37
631.188	0.37
631.52	0.37
631.852	0.37
632.184	0.36
632.516	0.36
632.848	0.36
633.18	0.36
633.512	0.36
633.844	0.36
634.175	0.35
634.507	0.35
634.839	0.34
635.17	0.34
635.502	0.34
635.833	0.33
636.165	0.34
636.496	0.34
636.827	0.34
637.159	0.34
637.49	0.33
637.821	0.33
638.152	0.32
638.483	0.32
638.814	0.32
639.145	0.31
639.476	0.31
639.807	0.31
640.137	0.31
640.468	0.31
640.799	0.31
641.129	0.31
641.46	0.31
641.791	0.31
642.121	0.3
642.451	0.29
642.782	0.29
643.112	0.29
643.442	0.29
643.773	0.29
644.103	0.29
644.433	0.29
644.763	0.28
645.093	0.28
645.423	0.27
645.753	0.27
646.082	0.27
646.412	0.27
646.742	0.27
647.072	0.27
647.401	0.27
647.731	0.27
648.06	0.27
648.39	0.27
648.719	0.27
649.048	0.26
649.378	0.27
649.707	0.26
650.036	0.26
650.365	0.26
650.694	0.26
651.023	0.26
651.352	0.26
651.681	0.26
652.01	0.26
652.339	0.25
652.668	0.26
652.996	0.25
653.325	0.26
653.654	0.26
653.982	0.26
654.311	0.26
654.639	0.26
654.967	0.26
655.296	0.26
655.624	0.26
655.952	0.25
656.28	0.25
656.609	0.25
656.937	0.26
657.265	0.26
657.593	0.25
657.92	0.12
658.248	0.06
658.576	0.04
658.904	0.1
659.231	0.18
659.559	0.23
659.887	0.24
660.214	0.24
660.542	0.25
660.869	0.25
661.196	0.25
661.524	0.25
661.851	0.25
662.178	0.25
662.505	0.25
662.832	0.25
663.159	0.25
663.486	0.25
663.813	0.25
664.14	0.25
664.467	0.25
664.794	0.25
665.12	0.25
665.447	0.25
665.774	0.25
666.1	0.25
666.427	0.25
666.753	0.24
667.079	0.24
667.406	0.24
667.732	0.24
668.058	0.24
668.384	0.24
668.71	0.24
669.036	0.23
669.362	0.24
669.688	0.24
670.014	0.24
670.34	0.24
670.666	0.24
670.991	0.23
671.317	0.23
671.643	0.23
671.968	0.23
672.294	0.23
672.619	0.23
672.945	0.22
673.27	0.22
673.595	0.22
673.92	0.21
674.246	0.21
674.571	0.22
674.896	0.22
675.221	0.22
675.546	0.22
675.87	0.21
676.195	0.21
676.52	0.22
676.845	0.21
677.169	0.21
677.494	0.21
677.819	0.21
678.143	0.2
678.468	0.2
678.792	0.2
679.116	0.2
679.44	0.2
679.765	0.2
680.089	0.19
680.413	0.19
680.737	0.19
681.061	0.19
681.385	0.19
681.709	0.18
682.033	0.18
682.356	0.18
682.68	0.18
683.004	0.18
683.327	0.18
683.651	0.17
683.974	0.17
684.298	0.17
684.621	0.17
684.944	0.17
685.268	0.17
685.591	0.17
685.914	0.16
686.237	0.16
686.56	0.16
686.883	0.16
687.206	0.16
687.529	0.16
687.852	0.15
688.175	0.15
688.497	0.15
688.82	0.15
689.142	0.15
689.465	0.15
689.787	0.14
690.11	0.14
690.432	0.14
690.755	0.14
691.077	0.14
691.399	0.14
691.721	0.13
692.043	0.14
692.365	0.14
692.687	0.13
693.009	0.13
693.331	0.13
693.653	0.13
693.974	0.13
694.296	0.13
694.618	0.13
694.939	0.12
695.261	0.13
695.582	0.12
695.904	0.12
696.225	0.12
696.546	0.12
696.868	0.12
697.189	0.12
697.51	0.12
697.831	0.12
698.152	0.11
698.473	0.11
698.794	0.11
699.114	0.11
699.435	0.11
699.756	0.11
700.077	0.11
700.397	0.11
700.718	0.11
701.038	0.11
701.359	0.11
701.679	0.11
701.999	0.11
702.32	0.11
702.64	0.1
702.96	0.1
703.28	0.1
703.6	0.1
703.92	0.1
704.24	0.1
704.56	0.1
704.879	0.1
705.199	0.1
705.519	0.1
705.838	0.1
706.158	0.09
706.478	0.09
706.797	0.1
707.116	0.1
707.436	0.09
707.755	0.09
708.074	0.09
708.393	0.09
708.712	0.09
709.031	0.09
709.35	0.09
709.669	0.09
709.988	0.09
710.307	0.09
710.626	0.09
710.944	0.09
711.263	0.09
711.582	0.09
711.9	0.09
712.219	0.09
712.537	0.09
712.855	0.09
713.174	0.09
713.492	0.09
713.81	0.09
714.128	0.09
714.446	0.09
714.764	0.09
715.082	0.09
715.4	0.09
715.718	0.09
716.035	0.09
716.353	0.09
716.671	0.09
716.988	0.09
717.306	0.09
717.623	0.09
717.941	0.09
718.258	0.09
718.575	0.1
718.893	0.1
719.21	0.1
719.527	0.1
719.844	0.1
720.161	0.1
720.478	0.1
720.795	0.1
721.112	0.09
721.428	0.1
721.745	0.1
722.062	0.1
722.378	0.1
722.695	0.1
723.011	0.1
723.328	0.1
723.644	0.1
723.96	0.1
724.276	0.1
724.593	0.1
724.909	0.1
725.225	0.1
725.541	0.1
725.857	0.1
726.173	0.1
726.488	0.1
726.804	0.1
727.12	0.1
727.435	0.1
727.751	0.1
728.067	0.1
728.382	0.1
728.697	0.1
729.013	0.11
729.328	0.1
729.643	0.11
729.958	0.1
730.273	0.1
730.588	0.1
730.903	0.1
731.218	0.1
731.533	0.1
731.848	0.1
732.163	0.1
732.477	0.1
732.792	0.1
733.107	0.09
733.421	0.09
733.736	0.09
734.05	0.1
734.364	0.1
734.678	0.1
734.993	0.1
735.307	0.1
735.621	0.1
735.935	0.1
736.249	0.1
736.563	0.1
736.877	0.1
737.19	0.1
737.504	0.1
737.818	0.1
738.131	0.1
738.445	0.1
738.758	0.1
739.072	0.09
739.385	0.09
739.698	0.09
740.012	0.09
740.325	0.09
740.638	0.09
740.951	0.09
741.264	0.09
741.577	0.09
741.89	0.09
742.203	0.09
742.515	0.1
742.828	0.1
743.141	0.09
743.453	0.09
743.766	0.09
744.078	0.09
744.391	0.08
744.703	0.08
745.015	0.08
745.327	0.08
745.639	0.08
745.952	0.08
746.264	0.08
746.575	0.08
746.887	0.08
747.199	0.08
747.511	0.08
747.823	0.08
748.134	0.08
748.446	0.08
748.757	0.08
749.069	0.08
749.38	0.08
749.692	0.08
750.003	0.08
750.314	0.08
750.625	0.08
750.936	0.08
751.248	0.08
751.559	0.08
751.869	0.08
752.18	0.08
752.491	0.07
752.802	0.07
753.112	0.07
753.423	0.07
753.734	0.07
754.044	0.06
754.355	0.06
754.665	0.06
754.975	0.06
755.285	0.06
755.596	0.06
755.906	0.06
756.216	0.06
756.526	0.06
756.836	0.06
757.146	0.06
757.455	0.06
757.765	0.06
758.075	0.06
758.385	0.06
758.694	0.06
759.004	0.06
759.313	0.05
759.622	0.06
759.932	0.05
760.241	0.06
760.55	0.06
760.859	0.06
761.168	0.06
761.477	0.06
761.786	0.06
762.095	0.06
762.404	0.06
762.713	0.05
763.021	0.05
763.33	0.05
763.639	0.05
763.947	0.05
764.256	0.05
764.564	0.05
764.872	0.05
765.181	0.05
765.489	0.05
765.797	0.05
766.105	0.05
766.413	0.04
766.721	0.04
767.029	0.04
767.337	0.04
767.644	0.04
767.952	0.05
768.26	0.04
768.567	0.04
768.875	0.04
769.182	0.04
769.49	0.04
769.797	0.04
770.104	0.04
770.411	0.04
770.718	0.04
771.026	0.04
771.333	0.04
771.639	0.04
771.946	0.04
772.253	0.04
772.56	0.04
772.867	0.04
773.173	0.04
773.48	0.05
773.786	0.04
774.093	0.04
774.399	0.04
774.705	0.04
775.012	0.03
775.318	0.04
775.624	0.04
775.93	0.03
776.236	0.03
776.542	0.04
776.848	0.04
777.154	0.04
777.459	0.04
777.765	0.03
778.071	0.03
778.376	0.04
778.682	0.04
778.987	0.04
779.292	0.04
779.598	0.04
779.903	0.04
780.208	0.04
780.513	0.04
780.818	0.04
781.123	0.04
781.428	0.04
781.733	0.04
782.038	0.04
782.343	0.05
782.647	0.05
782.952	0.05
783.256	0.04
783.561	0.04
783.865	0.04
784.17	0.04
784.474	0.04
784.778	0.04
785.082	0.03
785.386	0.04
785.69	0.03
785.994	0.04
786.298	0.04
786.602	0.04
786.906	0.04
787.209	0.04
787.513	0.03
787.817	0.03
788.12	0.03
788.424	0.03
788.727	0.03
789.03	0.03
789.333	0.04
789.637	0.04
789.94	0.04
790.243	0.04
790.546	0.04
790.849	0.03
791.152	0.03
791.454	0.03
791.757	0.03
792.06	0.03
792.362	0.03
792.665	0.03
792.967	0.03
793.27	0.03
793.572	0.03
793.874	0.04
794.177	0.04
794.479	0.03
794.781	0.04
795.083	0.03
795.385	0.04
795.687	0.03
795.989	0.03
796.29	0.03
796.592	0.04
796.894	0.04
797.195	0.04
797.497	0.04
797.798	0.04
798.1	0.04
798.401	0.04
798.702	0.04
799.003	0.04
799.304	0.04
799.605	0.04
799.906	0.04
800.207	0.03
800.508	0.03
800.809	0.03
801.11	0.04
801.41	0.04
801.711	0.04
802.011	0.04
802.312	0.04
802.612	0.04
802.913	0.04
803.213	0.04
803.513	0.04
803.813	0.04
804.113	0.04
804.413	0.04
804.713	0.04
805.013	0.04
805.313	0.04
805.613	0.04
805.912	0.04
806.212	0.04
806.511	0.03
806.811	0.04
807.11	0.03
807.41	0.04
807.709	0.03
808.008	0.03
808.307	0.03
808.606	0.03
808.905	0.04
809.204	0.03
809.503	0.04
809.802	0.04
810.101	0.04
810.399	0.04
810.698	0.04
810.997	0.04
811.295	0.04
811.593	0.04
811.892	0.05
812.19	0.05
812.488	0.04
812.786	0.05
813.084	0.05
813.383	0.04
813.68	0.05
813.978	0.04
814.276	0.05
814.574	0.05
814.872	0.05
815.169	0.05
815.467	0.05
815.764	0.05
816.062	0.04
816.359	0.04
816.656	0.04
816.954	0.04
817.251	0.04
817.548	0.04
817.845	0.04
818.142	0.04
818.439	0.04
818.735	0.03
819.032	0.04
819.329	0.04
819.626	0.04
819.922	0.04
820.219	0.04
820.515	0.04
820.811	0.04
821.108	0.04
821.404	0.04
821.7	0.04
821.996	0.04
822.292	0.04
822.588	0.05
822.884	0.04
823.18	0.04
823.475	0.04
823.771	0.04
824.067	0.04
824.362	0.04
824.658	0.04
824.953	0.04
825.249	0.04
825.544	0.05
825.839	0.05
826.134	0.04
826.429	0.04
826.724	0.05
827.019	0.05
827.314	0.05
827.609	0.05
827.904	0.04
828.198	0.05
828.493	0.04
828.787	0.04
829.082	0.04
829.376	0.04
829.671	0.04
829.965	0.05
830.259	0.05
830.553	0.05
830.847	0.05
831.141	0.04
831.435	0.05
831.729	0.05
832.023	0.05
832.317	0.05
832.61	0.05
832.904	0.06
833.197	0.06
833.491	0.06
833.784	0.06
834.077	0.06
834.371	0.06
834.664	0.06
834.957	0.06
835.25	0.06
835.543	0.06
835.836	0.05
836.129	0.05
836.421	0.05
836.714	0.05
837.007	0.05
837.299	0.04
837.592	0.05
837.884	0.05
838.177	0.05
838.469	0.05
838.761	0.04
839.053	0.05
839.345	0.05
839.637	0.04
839.929	0.05
840.221	0.05
840.513	0.06
840.805	0.04
841.096	0.06
841.388	0.06
841.68	0.04
841.971	0.05
842.262	0.05
842.554	0.05
842.845	0.05
843.136	0.05
843.427	0.06
843.718	0.05
844.009	0.05
844.3	0.04
844.591	0.05
844.882	0.05
845.173	0.04
845.463	0.05
845.754	0.06
846.044	0.06
846.335	0.07
846.625	0.06
846.915	0.06
847.206	0.05
847.496	0.06
847.786	0.06
848.076	0.06
848.366	0.05
848.656	0.04
848.945	0.06
849.235	0.05
849.525	0.04
849.814	0.05
850.104	0.05
850.393	0.04
850.683	0.04
850.972	0.04
851.261	0.04
851.551	0.05
851.84	0.05
852.129	0.04
852.418	0.05
852.707	0.05
852.995	0.05
853.284	0.05
853.573	0.05
853.862	0.05
854.15	0.05
854.439	0.05
854.727	0.06
855.015	0.06
855.304	0.05
855.592	0.05
855.88	0.03
856.168	0.05
856.456	0.05
856.744	0.05
857.032	0.05
857.32	0.05
857.607	0.06
857.895	0.03
858.183	0.06
858.47	0.06
858.757	0.05
859.045	0.06
859.332	0.06
859.619	0.03
859.907	0.05
860.194	0.04
860.481	0.05
860.768	0.05
861.054	0.04
861.341	0.04
861.628	0.06
861.915	0.06
862.201	0.05
862.488	0.06
862.774	0.05
863.061	0.05
863.347	0.04
863.633	0.06
863.919	0.06
864.205	0.05
864.491	0.04
864.777	0.05
865.063	0.05
865.349	0.05
865.635	0.03
865.92	0.03
866.206	0.08
866.492	0.03
866.777	0.03
867.062	0.02
867.348	0.04
867.633	0.05
867.918	0.06
868.203	0.08
868.488	0.04
868.773	-0
869.058	0.03
869.343	0.03
869.628	0.04
869.912	0.03
870.197	0.02
870.482	0.01
870.766	0.07
871.05	0.05
871.335	0.01
871.619	0.01
871.903	0.05
872.187	0.09
872.471	0.01
872.755	0.07
873.039	0.07
873.323	0.05
873.607	0.04
873.89	0.04
874.174	0.05
874.458	-0
874.741	0.06
875.024	0.02
875.308	0.01
875.591	-0.03
875.874	-0
876.157	0.02
876.44	0.01
876.723	0.07
877.006	0.05
877.289	0.06
877.572	0.04
877.854	0.02
878.137	0.02
878.42	-0.02
878.702	-0.01
878.984	0.05
879.267	-0.02
879.549	-0.01
879.831	-0.01
880.113	0.06
880.395	-0.03
880.677	0.06
880.959	-0.06
