Data from Rubpy_EV_600_EDTA_Buffered_Absorbance_12-58-28-138.txt Node
Date: Tue Jun 30 12:58:28 BST 2026
User: fpm-admin
Spectrometer: OFX00224
Trigger mode: 0
Integration Time (sec): 7.000000E-2
Scans to average: 3
Nonlinearity correction enabled: false
Boxcar width: 0
Storing dark spectrum: false
XAxis mode: Wavelengths
Number of Pixels in Spectrum: 2136
>>>>>Begin Spectral Data<<<<<
154.91	-0.12
155.289	0.3
155.669	0.72
156.048	-0.36
156.428	-0
156.807	0.22
157.186	-0
157.566	0.1
157.945	0.05
158.325	0.3
158.704	-0
159.083	-0.46
159.462	-1.02
159.842	-0.12
160.221	-0
160.6	0.32
160.979	-0
161.359	1.32
161.738	0.51
162.117	-0
162.496	-0
162.875	-0
163.254	-0.05
163.633	-0.85
164.012	-0
164.391	-0
164.77	0.56
165.149	-0.02
165.528	-0
165.907	-0
166.286	-0.25
166.665	0.09
167.044	-0
167.423	0.3
167.802	-0.43
168.181	-0
168.559	-0
168.938	0.29
169.317	-0.24
169.696	-0.66
170.074	-0
170.453	-0.28
170.832	1.48
171.21	0.97
171.589	-0
171.968	-0
172.346	0.33
172.725	-0
173.103	-0
173.482	0.57
173.861	0.48
174.239	-0.11
174.617	-0
174.996	-0
175.374	-0
175.753	-1.34
176.131	-0
176.51	-0.48
176.888	0.34
177.266	-0
177.645	-0.08
178.023	-0
178.401	-0.23
178.779	0.01
179.158	0.28
179.536	0.3
179.914	0.71
180.292	-0
180.67	-0
181.048	-0
181.427	-0
181.805	-0.1
182.183	-0
182.561	-0
182.939	0.87
183.317	-0
183.695	0.88
184.073	-0.19
184.451	-0
184.829	-1.22
185.206	-0
185.584	-0
185.962	-0.48
186.34	-0
186.718	0.56
187.096	0.54
187.473	0.74
187.851	0.06
188.229	-0.03
188.607	0.08
188.984	0.06
189.362	0.09
189.74	0.16
190.117	0.1
190.495	0.25
190.872	0.1
191.25	0.25
191.627	0.14
192.005	0.06
192.382	0.16
192.76	0.16
193.137	0.21
193.515	0.29
193.892	0.1
194.269	0.06
194.647	0.13
195.024	0.11
195.401	0.1
195.779	0.2
196.156	0.08
196.533	0.14
196.91	0.15
197.288	0.06
197.665	0.09
198.042	0.13
198.419	0.03
198.796	0.09
199.173	0.13
199.55	0.12
199.927	0.13
200.304	0.15
200.681	0.13
201.058	0.12
201.435	0.09
201.812	0.14
202.189	0.11
202.566	0.13
202.943	0.1
203.32	0.09
203.697	0.15
204.073	0.17
204.45	0.09
204.827	0.18
205.204	0.19
205.58	0.18
205.957	0.14
206.334	0.15
206.71	0.04
207.087	0.17
207.464	0.15
207.84	0.16
208.217	0.02
208.593	0.26
208.97	0.14
209.346	0.04
209.723	0.11
210.099	0.19
210.476	0.2
210.852	0.15
211.228	0.16
211.605	0.09
211.981	0.19
212.357	0.1
212.733	0.14
213.11	0.19
213.486	0.13
213.862	0.08
214.238	0.13
214.614	0.09
214.991	0.09
215.367	0.16
215.743	0.13
216.119	0.2
216.495	-0.08
216.871	0.05
217.247	0.12
217.623	0.02
217.999	0.18
218.375	0.18
218.751	0.11
219.127	0.26
219.502	0.14
219.878	0.18
220.254	0.18
220.63	0.13
221.006	0.08
221.381	0.14
221.757	0.11
222.133	0.13
222.508	0.12
222.884	0.19
223.26	0.16
223.635	0.13
224.011	0.1
224.386	0.15
224.762	0.01
225.137	0.13
225.513	0.1
225.888	0.16
226.264	0.22
226.639	0.12
227.014	0.16
227.39	0.14
227.765	0.16
228.14	0.14
228.516	0.13
228.891	0.1
229.266	0.18
229.641	0.23
230.017	0.25
230.392	0.21
230.767	0.14
231.142	0.13
231.517	0.15
231.892	0.08
232.267	0.19
232.642	0.12
233.017	0.05
233.392	0.23
233.767	0.22
234.142	0.14
234.517	0.25
234.892	0.12
235.267	0.12
235.641	0.17
236.016	0.09
236.391	0.05
236.766	0.01
237.14	0.13
237.515	0.16
237.89	0.19
238.264	0.16
238.639	0.07
239.014	0.17
239.388	0.08
239.763	0.23
240.137	0.12
240.512	0.18
240.886	0.12
241.261	0.12
241.635	0.14
242.009	0.2
242.384	0.15
242.758	0.23
243.132	0.12
243.507	0.16
243.881	0.17
244.255	0.11
244.629	0.21
245.004	0.2
245.378	0.07
245.752	0.25
246.126	0.1
246.5	0.1
246.874	0.11
247.248	0.16
247.622	0.03
247.996	0.24
248.37	0.14
248.744	0.09
249.118	0.09
249.492	0.1
249.866	0.13
250.24	0.16
250.613	0.14
250.987	0.12
251.361	0.24
251.735	0.12
252.108	0.11
252.482	0.18
252.856	0.19
253.229	0.13
253.603	0.11
253.977	0.08
254.35	0.16
254.724	0.11
255.097	0.09
255.471	0.13
255.844	0.07
256.218	0.15
256.591	0.15
256.964	0.1
257.338	0.08
257.711	0.18
258.084	0.08
258.458	0.14
258.831	0.17
259.204	0.12
259.577	0.18
259.95	0.11
260.323	0.09
260.697	0.13
261.07	0.14
261.443	0.18
261.816	0.12
262.189	0.13
262.562	0.14
262.935	0.18
263.308	0.09
263.68	0.08
264.053	0.17
264.426	0.14
264.799	0.08
265.172	0.15
265.545	0.1
265.917	0.14
266.29	0.2
266.663	0.18
267.035	0.22
267.408	0.08
267.781	0.14
268.153	0.16
268.526	0.16
268.898	0.11
269.271	0.15
269.643	0.26
270.016	0.13
270.388	0.15
270.76	0.16
271.133	0.14
271.505	0.21
271.877	0.15
272.25	0.11
272.622	0.11
272.994	0.17
273.366	0.25
273.739	0.17
274.111	0.15
274.483	0.13
274.855	0.21
275.227	0.24
275.599	0.19
275.971	0.13
276.343	0.13
276.715	0.17
277.087	0.15
277.459	0.13
277.831	0.1
278.203	0.15
278.574	0.22
278.946	0.15
279.318	0.13
279.69	0.13
280.061	0.17
280.433	0.13
280.805	0.22
281.176	0.07
281.548	0.08
281.92	0.08
282.291	0.08
282.663	0.16
283.034	0.14
283.406	0.08
283.777	0.14
284.148	0.15
284.52	0.11
284.891	0.14
285.262	0.15
285.634	0.15
286.005	0.15
286.376	0.14
286.747	0.15
287.119	0.1
287.49	0.15
287.861	0.16
288.232	0.17
288.603	0.16
288.974	0.11
289.345	0.12
289.716	0.09
290.087	0.11
290.458	0.08
290.829	0.1
291.2	0.18
291.571	0.14
291.941	0.21
292.312	0.14
292.683	0.15
293.054	0.15
293.424	0.11
293.795	0.19
294.166	0.12
294.536	0.15
294.907	0.13
295.277	0.11
295.648	0.08
296.018	0.1
296.389	0.12
296.759	0.14
297.13	0.11
297.5	0.09
297.871	0.07
298.241	0.08
298.611	0.09
298.981	0.08
299.352	0.13
299.722	0.13
300.092	0.1
300.462	0.1
300.832	0.09
301.202	0.1
301.573	0.08
301.943	0.1
302.313	0.07
302.683	0.08
303.053	0.08
303.422	0.08
303.792	0.07
304.162	0.08
304.532	0.07
304.902	0.07
305.272	0.08
305.641	0.09
306.011	0.08
306.381	0.08
306.75	0.08
307.12	0.08
307.49	0.09
307.859	0.1
308.229	0.09
308.598	0.1
308.968	0.09
309.337	0.09
309.707	0.08
310.076	0.09
310.445	0.1
310.815	0.1
311.184	0.11
311.553	0.1
311.923	0.1
312.292	0.1
312.661	0.11
313.03	0.11
313.399	0.11
313.768	0.11
314.137	0.1
314.506	0.1
314.875	0.1
315.244	0.1
315.613	0.1
315.982	0.1
316.351	0.1
316.72	0.1
317.089	0.1
317.458	0.11
317.826	0.1
318.195	0.1
318.564	0.1
318.933	0.1
319.301	0.1
319.67	0.1
320.038	0.09
320.407	0.1
320.775	0.09
321.144	0.1
321.512	0.09
321.881	0.09
322.249	0.09
322.618	0.09
322.986	0.09
323.354	0.09
323.723	0.09
324.091	0.08
324.459	0.08
324.827	0.09
325.195	0.08
325.564	0.09
325.932	0.08
326.3	0.08
326.668	0.08
327.036	0.08
327.404	0.08
327.772	0.09
328.14	0.09
328.508	0.08
328.875	0.08
329.243	0.08
329.611	0.08
329.979	0.08
330.346	0.08
330.714	0.08
331.082	0.08
331.449	0.09
331.817	0.08
332.185	0.09
332.552	0.09
332.92	0.08
333.287	0.09
333.655	0.08
334.022	0.09
334.389	0.09
334.757	0.09
335.124	0.09
335.491	0.09
335.859	0.09
336.226	0.09
336.593	0.1
336.96	0.1
337.327	0.09
337.695	0.1
338.062	0.1
338.429	0.1
338.796	0.11
339.163	0.11
339.53	0.1
339.897	0.1
340.263	0.11
340.63	0.11
340.997	0.11
341.364	0.12
341.731	0.12
342.097	0.12
342.464	0.12
342.831	0.12
343.197	0.12
343.564	0.13
343.931	0.13
344.297	0.13
344.664	0.13
345.03	0.14
345.396	0.13
345.763	0.14
346.129	0.14
346.496	0.14
346.862	0.14
347.228	0.15
347.594	0.15
347.961	0.15
348.327	0.15
348.693	0.15
349.059	0.15
349.425	0.16
349.791	0.16
350.157	0.16
350.523	0.16
350.889	0.17
351.255	0.17
351.621	0.18
351.987	0.18
352.353	0.19
352.719	0.18
353.084	0.19
353.45	0.19
353.816	0.2
354.181	0.2
354.547	0.21
354.913	0.21
355.278	0.21
355.644	0.22
356.009	0.22
356.375	0.23
356.74	0.23
357.106	0.24
357.471	0.24
357.836	0.25
358.202	0.26
358.567	0.26
358.932	0.26
359.297	0.27
359.663	0.28
360.028	0.28
360.393	0.28
360.758	0.28
361.123	0.29
361.488	0.29
361.853	0.3
362.218	0.3
362.583	0.3
362.948	0.31
363.312	0.31
363.677	0.31
364.042	0.32
364.407	0.33
364.772	0.33
365.136	0.34
365.501	0.34
365.865	0.35
366.23	0.36
366.595	0.36
366.959	0.38
367.324	0.38
367.688	0.39
368.052	0.4
368.417	0.41
368.781	0.41
369.145	0.41
369.51	0.42
369.874	0.42
370.238	0.42
370.602	0.42
370.967	0.42
371.331	0.42
371.695	0.42
372.059	0.41
372.423	0.42
372.787	0.41
373.151	0.42
373.515	0.41
373.878	0.41
374.242	0.41
374.606	0.41
374.97	0.41
375.334	0.41
375.697	0.41
376.061	0.41
376.425	0.42
376.788	0.42
377.152	0.43
377.515	0.43
377.879	0.44
378.242	0.44
378.606	0.44
378.969	0.45
379.333	0.45
379.696	0.46
380.059	0.46
380.422	0.47
380.786	0.49
381.149	0.5
381.512	0.5
381.875	0.51
382.238	0.53
382.601	0.54
382.964	0.55
383.327	0.57
383.69	0.58
384.053	0.6
384.416	0.61
384.779	0.63
385.142	0.65
385.504	0.65
385.867	0.67
386.23	0.66
386.593	0.68
386.955	0.68
387.318	0.67
387.68	0.68
388.043	0.67
388.405	0.67
388.768	0.66
389.13	0.66
389.493	0.66
389.855	0.66
390.217	0.64
390.58	0.65
390.942	0.65
391.304	0.65
391.666	0.66
392.028	0.67
392.391	0.69
392.753	0.7
393.115	0.73
393.477	0.75
393.839	0.78
394.201	0.81
394.563	0.85
394.924	0.88
395.286	0.91
395.648	0.94
396.01	0.97
396.371	1
396.733	1.02
397.095	1.03
397.456	1.05
397.818	1.05
398.18	1.04
398.541	1.04
398.903	1.01
399.264	0.98
399.625	0.95
399.987	0.92
400.348	0.87
400.709	0.83
401.071	0.79
401.432	0.74
401.793	0.7
402.154	0.65
402.515	0.61
402.876	0.57
403.238	0.52
403.599	0.49
403.96	0.45
404.32	0.42
404.681	0.39
405.042	0.36
405.403	0.34
405.764	0.32
406.125	0.29
406.485	0.27
406.846	0.25
407.207	0.24
407.567	0.22
407.928	0.21
408.288	0.2
408.649	0.19
409.009	0.18
409.37	0.18
409.73	0.16
410.091	0.15
410.451	0.15
410.811	0.14
411.171	0.13
411.532	0.13
411.892	0.12
412.252	0.12
412.612	0.12
412.972	0.11
413.332	0.11
413.692	0.11
414.052	0.1
414.412	0.09
414.772	0.09
415.132	0.09
415.492	0.09
415.851	0.08
416.211	0.08
416.571	0.08
416.931	0.07
417.29	0.08
417.65	0.08
418.009	0.07
418.369	0.07
418.728	0.07
419.088	0.07
419.447	0.07
419.807	0.07
420.166	0.07
420.525	0.06
420.884	0.07
421.244	0.06
421.603	0.06
421.962	0.06
422.321	0.06
422.68	0.06
423.039	0.06
423.398	0.06
423.757	0.06
424.116	0.07
424.475	0.06
424.834	0.06
425.193	0.06
425.551	0.05
425.91	0.05
426.269	0.05
426.628	0.05
426.986	0.05
427.345	0.05
427.703	0.05
428.062	0.04
428.42	0.05
428.779	0.05
429.137	0.05
429.496	0.05
429.854	0.04
430.212	0.04
430.57	0.04
430.929	0.05
431.287	0.05
431.645	0.04
432.003	0.05
432.361	0.05
432.719	0.04
433.077	0.04
433.435	0.05
433.793	0.04
434.151	0.04
434.509	0.05
434.866	0.05
435.224	0.04
435.582	0.04
435.94	0.04
436.297	0.04
436.655	0.04
437.012	0.04
437.37	0.04
437.727	0.04
438.085	0.03
438.442	0.04
438.8	0.03
439.157	0.04
439.514	0.04
439.872	0.04
440.229	0.04
440.586	0.04
440.943	0.04
441.3	0.04
441.657	0.04
442.014	0.02
442.371	0.03
442.728	0.03
443.085	0.04
443.442	0.04
443.799	0.02
444.156	0.03
444.513	0.02
444.869	0.04
445.226	0.04
445.583	0.03
445.939	0.04
446.296	0.03
446.652	0.03
447.009	0.03
447.365	0.04
447.722	0.03
448.078	0.03
448.434	0.03
448.791	0.03
449.147	0.03
449.503	0.02
449.859	0.03
450.215	0.03
450.571	0.04
450.928	0.03
451.284	0.03
451.64	0.02
451.995	0.03
452.351	0.02
452.707	0.03
453.063	0.02
453.419	0.02
453.775	0.02
454.13	0.03
454.486	0.03
454.842	0.02
455.197	0.02
455.553	0.03
455.908	0.02
456.264	0.02
456.619	0.02
456.975	0.02
457.33	0.02
457.685	0.01
458.04	0.01
458.396	0.01
458.751	0.01
459.106	0.01
459.461	0.01
459.816	0.02
460.171	0.01
460.526	0.02
460.881	0.01
461.236	-0
461.591	0.01
461.946	0
462.301	0.01
462.655	0.01
463.01	0.01
463.365	0.01
463.719	-0
464.074	0.01
464.428	-0.01
464.783	0
465.137	-0.01
465.492	0
465.846	-0
466.201	-0
466.555	-0
466.909	-0.01
467.263	0.01
467.618	0
467.972	0
468.326	0
468.68	0
469.034	-0.01
469.388	-0
469.742	-0.01
470.096	-0
470.45	-0
470.804	-0
471.157	-0
471.511	-0
471.865	-0
472.218	0
472.572	-0.01
472.926	-0
473.279	0
473.633	0
473.986	0
474.34	0
474.693	0.01
475.046	0.01
475.4	0.01
475.753	0.01
476.106	0.01
476.459	0.01
476.812	0.02
477.165	0.02
477.519	0.01
477.872	0.01
478.224	0.02
478.577	0.02
478.93	0.02
479.283	0.02
479.636	0.03
479.989	0.02
480.341	0.03
480.694	0.03
481.047	0.03
481.399	0.03
481.752	0.03
482.104	0.03
482.457	0.03
482.809	0.03
483.162	0.03
483.514	0.03
483.866	0.03
484.219	0.03
484.571	0.03
484.923	0.03
485.275	0.04
485.627	0.04
485.979	0.04
486.331	0.04
486.683	0.04
487.035	0.04
487.387	0.04
487.739	0.04
488.091	0.04
488.443	0.04
488.794	0.05
489.146	0.05
489.498	0.04
489.849	0.05
490.201	0.04
490.552	0.04
490.904	0.05
491.255	0.05
491.607	0.05
491.958	0.05
492.309	0.05
492.661	0.05
493.012	0.05
493.363	0.05
493.714	0.05
494.065	0.05
494.416	0.05
494.767	0.06
495.118	0.06
495.469	0.06
495.82	0.06
496.171	0.06
496.522	0.06
496.872	0.06
497.223	0.07
497.574	0.06
497.924	0.06
498.275	0.06
498.626	0.07
498.976	0.06
499.327	0.07
499.677	0.07
500.027	0.07
500.378	0.07
500.728	0.07
501.078	0.07
501.428	0.07
501.779	0.08
502.129	0.08
502.479	0.08
502.829	0.07
503.179	0.08
503.529	0.07
503.879	0.08
504.229	0.08
504.578	0.08
504.928	0.08
505.278	0.08
505.628	0.08
505.977	0.09
506.327	0.08
506.676	0.09
507.026	0.08
507.375	0.09
507.725	0.09
508.074	0.09
508.424	0.09
508.773	0.09
509.122	0.09
509.471	0.09
509.82	0.1
510.17	0.1
510.519	0.1
510.868	0.09
511.217	0.1
511.566	0.09
511.915	0.09
512.263	0.1
512.612	0.1
512.961	0.1
513.31	0.1
513.659	0.1
514.007	0.1
514.356	0.11
514.704	0.1
515.053	0.11
515.401	0.11
515.75	0.11
516.098	0.11
516.447	0.11
516.795	0.11
517.143	0.11
517.491	0.11
517.839	0.11
518.188	0.11
518.536	0.11
518.884	0.11
519.232	0.12
519.58	0.12
519.928	0.12
520.275	0.12
520.623	0.12
520.971	0.12
521.319	0.13
521.666	0.12
522.014	0.13
522.362	0.13
522.709	0.13
523.057	0.13
523.404	0.13
523.752	0.13
524.099	0.13
524.446	0.13
524.794	0.13
525.141	0.13
525.488	0.14
525.835	0.14
526.182	0.14
526.529	0.14
526.876	0.14
527.223	0.14
527.57	0.14
527.917	0.15
528.264	0.15
528.611	0.14
528.958	0.15
529.304	0.14
529.651	0.15
529.998	0.15
530.344	0.15
530.691	0.16
531.037	0.16
531.384	0.16
531.73	0.16
532.076	0.16
532.423	0.15
532.769	0.16
533.115	0.16
533.461	0.16
533.807	0.16
534.154	0.16
534.5	0.16
534.846	0.17
535.192	0.17
535.537	0.17
535.883	0.17
536.229	0.17
536.575	0.17
536.921	0.17
537.266	0.17
537.612	0.18
537.957	0.17
538.303	0.18
538.649	0.18
538.994	0.18
539.339	0.18
539.685	0.18
540.03	0.18
540.375	0.18
540.721	0.19
541.066	0.19
541.411	0.19
541.756	0.19
542.101	0.19
542.446	0.2
542.791	0.2
543.136	0.2
543.481	0.2
543.825	0.2
544.17	0.2
544.515	0.2
544.86	0.2
545.204	0.2
545.549	0.2
545.893	0.21
546.238	0.21
546.582	0.21
546.927	0.21
547.271	0.21
547.615	0.21
547.96	0.22
548.304	0.22
548.648	0.22
548.992	0.22
549.336	0.22
549.68	0.22
550.024	0.22
550.368	0.22
550.712	0.23
551.056	0.23
551.4	0.23
551.743	0.23
552.087	0.23
552.431	0.23
552.774	0.23
553.118	0.24
553.462	0.24
553.805	0.24
554.148	0.24
554.492	0.24
554.835	0.24
555.178	0.24
555.522	0.24
555.865	0.24
556.208	0.24
556.551	0.24
556.894	0.25
557.237	0.24
557.58	0.25
557.923	0.25
558.266	0.24
558.609	0.25
558.952	0.25
559.294	0.25
559.637	0.25
559.98	0.25
560.322	0.25
560.665	0.25
561.007	0.25
561.35	0.25
561.692	0.26
562.034	0.25
562.377	0.25
562.719	0.26
563.061	0.25
563.403	0.25
563.745	0.25
564.088	0.26
564.43	0.26
564.772	0.26
565.113	0.26
565.455	0.26
565.797	0.26
566.139	0.26
566.481	0.26
566.822	0.26
567.164	0.26
567.506	0.26
567.847	0.26
568.189	0.26
568.53	0.26
568.872	0.26
569.213	0.27
569.554	0.27
569.895	0.26
570.237	0.26
570.578	0.27
570.919	0.26
571.26	0.27
571.601	0.27
571.942	0.27
572.283	0.26
572.624	0.27
572.965	0.26
573.306	0.26
573.646	0.26
573.987	0.26
574.328	0.27
574.668	0.26
575.009	0.26
575.349	0.26
575.69	0.26
576.03	0.26
576.37	0.26
576.711	0.26
577.051	0.26
577.391	0.26
577.731	0.27
578.072	0.26
578.412	0.27
578.752	0.26
579.092	0.26
579.431	0.26
579.771	0.26
580.111	0.25
580.451	0.25
580.791	0.26
581.13	0.27
581.47	0.27
581.81	0.27
582.149	0.27
582.489	0.27
582.828	0.27
583.167	0.26
583.507	0.24
583.846	0.22
584.185	0.23
584.525	0.25
584.864	0.26
585.203	0.27
585.542	0.28
585.881	0.28
586.22	0.28
586.559	0.28
586.898	0.27
587.236	0.27
587.575	0.27
587.914	0.27
588.252	0.28
588.591	0.28
588.93	0.28
589.268	0.28
589.607	0.28
589.945	0.28
590.283	0.29
590.622	0.29
590.96	0.29
591.298	0.3
591.636	0.3
591.974	0.3
592.313	0.3
592.651	0.3
592.989	0.3
593.326	0.3
593.664	0.3
594.002	0.3
594.34	0.3
594.678	0.3
595.015	0.3
595.353	0.3
595.691	0.3
596.028	0.31
596.366	0.31
596.703	0.31
597.04	0.31
597.378	0.31
597.715	0.32
598.052	0.32
598.389	0.32
598.726	0.33
599.064	0.33
599.401	0.33
599.738	0.33
600.074	0.33
600.411	0.33
600.748	0.32
601.085	0.32
601.422	0.32
601.758	0.32
602.095	0.32
602.432	0.32
602.768	0.32
603.105	0.33
603.441	0.33
603.777	0.33
604.114	0.33
604.45	0.33
604.786	0.33
605.122	0.33
605.459	0.33
605.795	0.33
606.131	0.32
606.467	0.33
606.803	0.33
607.139	0.33
607.474	0.33
607.81	0.32
608.146	0.33
608.482	0.32
608.817	0.32
609.153	0.32
609.488	0.32
609.824	0.32
610.159	0.32
610.495	0.32
610.83	0.32
611.165	0.32
611.5	0.32
611.836	0.32
612.171	0.32
612.506	0.32
612.841	0.32
613.176	0.32
613.511	0.32
613.845	0.32
614.18	0.32
614.515	0.31
614.85	0.32
615.184	0.32
615.519	0.31
615.854	0.31
616.188	0.31
616.523	0.31
616.857	0.31
617.191	0.3
617.526	0.3
617.86	0.3
618.194	0.3
618.528	0.31
618.862	0.31
619.196	0.31
619.53	0.31
619.864	0.31
620.198	0.31
620.532	0.3
620.866	0.3
621.2	0.31
621.533	0.3
621.867	0.31
622.201	0.3
622.534	0.3
622.868	0.3
623.201	0.3
623.534	0.29
623.868	0.3
624.201	0.29
624.534	0.29
624.868	0.29
625.201	0.29
625.534	0.29
625.867	0.29
626.2	0.29
626.533	0.29
626.865	0.29
627.198	0.28
627.531	0.28
627.864	0.28
628.196	0.28
628.529	0.28
628.862	0.28
629.194	0.28
629.527	0.28
629.859	0.27
630.191	0.27
630.524	0.27
630.856	0.27
631.188	0.27
631.52	0.26
631.852	0.26
632.184	0.26
632.516	0.26
632.848	0.26
633.18	0.26
633.512	0.26
633.844	0.25
634.175	0.25
634.507	0.25
634.839	0.25
635.17	0.24
635.502	0.24
635.833	0.24
636.165	0.24
636.496	0.25
636.827	0.24
637.159	0.24
637.49	0.24
637.821	0.23
638.152	0.23
638.483	0.23
638.814	0.23
639.145	0.23
639.476	0.23
639.807	0.23
640.137	0.22
640.468	0.22
640.799	0.22
641.129	0.22
641.46	0.22
641.791	0.22
642.121	0.22
642.451	0.21
642.782	0.21
643.112	0.21
643.442	0.21
643.773	0.21
644.103	0.21
644.433	0.2
644.763	0.2
645.093	0.2
645.423	0.2
645.753	0.2
646.082	0.19
646.412	0.19
646.742	0.2
647.072	0.19
647.401	0.19
647.731	0.19
648.06	0.19
648.39	0.19
648.719	0.19
649.048	0.19
649.378	0.19
649.707	0.19
650.036	0.19
650.365	0.19
650.694	0.19
651.023	0.18
651.352	0.19
651.681	0.19
652.01	0.19
652.339	0.19
652.668	0.19
652.996	0.18
653.325	0.19
653.654	0.18
653.982	0.19
654.311	0.18
654.639	0.19
654.967	0.19
655.296	0.19
655.624	0.19
655.952	0.18
656.28	0.18
656.609	0.18
656.937	0.18
657.265	0.18
657.593	0.17
657.92	0.05
658.248	0
658.576	0
658.904	0.04
659.231	0.12
659.559	0.17
659.887	0.17
660.214	0.18
660.542	0.18
660.869	0.18
661.196	0.18
661.524	0.18
661.851	0.18
662.178	0.18
662.505	0.18
662.832	0.18
663.159	0.18
663.486	0.18
663.813	0.18
664.14	0.18
664.467	0.18
664.794	0.18
665.12	0.18
665.447	0.18
665.774	0.18
666.1	0.18
666.427	0.18
666.753	0.18
667.079	0.18
667.406	0.18
667.732	0.18
668.058	0.18
668.384	0.18
668.71	0.18
669.036	0.17
669.362	0.17
669.688	0.17
670.014	0.17
670.34	0.17
670.666	0.17
670.991	0.17
671.317	0.17
671.643	0.17
671.968	0.17
672.294	0.17
672.619	0.16
672.945	0.16
673.27	0.16
673.595	0.16
673.92	0.15
674.246	0.15
674.571	0.15
674.896	0.16
675.221	0.16
675.546	0.16
675.87	0.16
676.195	0.16
676.52	0.16
676.845	0.16
677.169	0.16
677.494	0.16
677.819	0.16
678.143	0.15
678.468	0.15
678.792	0.15
679.116	0.15
679.44	0.15
679.765	0.15
680.089	0.15
680.413	0.14
680.737	0.14
681.061	0.14
681.385	0.14
681.709	0.13
682.033	0.13
682.356	0.13
682.68	0.13
683.004	0.13
683.327	0.13
683.651	0.12
683.974	0.12
684.298	0.12
684.621	0.13
684.944	0.12
685.268	0.12
685.591	0.12
685.914	0.12
686.237	0.12
686.56	0.12
686.883	0.11
687.206	0.12
687.529	0.11
687.852	0.11
688.175	0.11
688.497	0.11
688.82	0.11
689.142	0.11
689.465	0.11
689.787	0.11
690.11	0.1
690.432	0.1
690.755	0.1
691.077	0.1
691.399	0.1
691.721	0.1
692.043	0.1
692.365	0.1
692.687	0.1
693.009	0.1
693.331	0.1
693.653	0.09
693.974	0.1
694.296	0.1
694.618	0.09
694.939	0.09
695.261	0.09
695.582	0.09
695.904	0.09
696.225	0.09
696.546	0.09
696.868	0.09
697.189	0.09
697.51	0.09
697.831	0.09
698.152	0.08
698.473	0.08
698.794	0.08
699.114	0.08
699.435	0.08
699.756	0.08
700.077	0.08
700.397	0.08
700.718	0.08
701.038	0.08
701.359	0.08
701.679	0.08
701.999	0.09
702.32	0.08
702.64	0.08
702.96	0.08
703.28	0.08
703.6	0.07
703.92	0.07
704.24	0.08
704.56	0.07
704.879	0.07
705.199	0.07
705.519	0.07
705.838	0.07
706.158	0.07
706.478	0.07
706.797	0.07
707.116	0.07
707.436	0.07
707.755	0.07
708.074	0.07
708.393	0.07
708.712	0.07
709.031	0.07
709.35	0.07
709.669	0.07
709.988	0.07
710.307	0.06
710.626	0.07
710.944	0.07
711.263	0.06
711.582	0.06
711.9	0.06
712.219	0.07
712.537	0.07
712.855	0.06
713.174	0.06
713.492	0.07
713.81	0.07
714.128	0.07
714.446	0.07
714.764	0.07
715.082	0.07
715.4	0.07
715.718	0.06
716.035	0.06
716.353	0.07
716.671	0.07
716.988	0.07
717.306	0.07
717.623	0.07
717.941	0.07
718.258	0.07
718.575	0.07
718.893	0.08
719.21	0.07
719.527	0.07
719.844	0.08
720.161	0.08
720.478	0.08
720.795	0.08
721.112	0.07
721.428	0.08
721.745	0.08
722.062	0.08
722.378	0.07
722.695	0.08
723.011	0.08
723.328	0.08
723.644	0.08
723.96	0.08
724.276	0.08
724.593	0.08
724.909	0.08
725.225	0.07
725.541	0.08
725.857	0.08
726.173	0.07
726.488	0.08
726.804	0.08
727.12	0.08
727.435	0.07
727.751	0.08
728.067	0.08
728.382	0.08
728.697	0.08
729.013	0.08
729.328	0.08
729.643	0.08
729.958	0.08
730.273	0.08
730.588	0.08
730.903	0.08
731.218	0.08
731.533	0.08
731.848	0.08
732.163	0.08
732.477	0.08
732.792	0.07
733.107	0.07
733.421	0.07
733.736	0.07
734.05	0.07
734.364	0.07
734.678	0.07
734.993	0.07
735.307	0.08
735.621	0.07
735.935	0.07
736.249	0.07
736.563	0.07
736.877	0.07
737.19	0.08
737.504	0.08
737.818	0.08
738.131	0.07
738.445	0.07
738.758	0.07
739.072	0.07
739.385	0.07
739.698	0.07
740.012	0.07
740.325	0.07
740.638	0.07
740.951	0.06
741.264	0.06
741.577	0.07
741.89	0.07
742.203	0.07
742.515	0.07
742.828	0.07
743.141	0.07
743.453	0.07
743.766	0.07
744.078	0.06
744.391	0.06
744.703	0.06
745.015	0.06
745.327	0.06
745.639	0.06
745.952	0.05
746.264	0.06
746.575	0.06
746.887	0.06
747.199	0.06
747.511	0.06
747.823	0.06
748.134	0.05
748.446	0.06
748.757	0.05
749.069	0.06
749.38	0.06
749.692	0.06
750.003	0.06
750.314	0.06
750.625	0.06
750.936	0.06
751.248	0.06
751.559	0.06
751.869	0.06
752.18	0.06
752.491	0.06
752.802	0.06
753.112	0.06
753.423	0.05
753.734	0.05
754.044	0.05
754.355	0.05
754.665	0.04
754.975	0.04
755.285	0.05
755.596	0.05
755.906	0.04
756.216	0.05
756.526	0.05
756.836	0.05
757.146	0.05
757.455	0.04
757.765	0.04
758.075	0.04
758.385	0.04
758.694	0.04
759.004	0.04
759.313	0.04
759.622	0.04
759.932	0.04
760.241	0.04
760.55	0.04
760.859	0.04
761.168	0.04
761.477	0.04
761.786	0.04
762.095	0.04
762.404	0.04
762.713	0.04
763.021	0.04
763.33	0.04
763.639	0.04
763.947	0.04
764.256	0.04
764.564	0.04
764.872	0.04
765.181	0.04
765.489	0.04
765.797	0.04
766.105	0.04
766.413	0.04
766.721	0.03
767.029	0.04
767.337	0.04
767.644	0.04
767.952	0.04
768.26	0.04
768.567	0.04
768.875	0.04
769.182	0.03
769.49	0.03
769.797	0.03
770.104	0.03
770.411	0.03
770.718	0.03
771.026	0.03
771.333	0.03
771.639	0.03
771.946	0.03
772.253	0.03
772.56	0.03
772.867	0.03
773.173	0.03
773.48	0.04
773.786	0.03
774.093	0.03
774.399	0.03
774.705	0.03
775.012	0.03
775.318	0.03
775.624	0.03
775.93	0.02
776.236	0.03
776.542	0.03
776.848	0.03
777.154	0.03
777.459	0.03
777.765	0.03
778.071	0.03
778.376	0.03
778.682	0.04
778.987	0.03
779.292	0.04
779.598	0.04
779.903	0.04
780.208	0.04
780.513	0.04
780.818	0.04
781.123	0.03
781.428	0.03
781.733	0.03
782.038	0.03
782.343	0.04
782.647	0.04
782.952	0.04
783.256	0.04
783.561	0.04
783.865	0.04
784.17	0.04
784.474	0.03
784.778	0.03
785.082	0.03
785.386	0.03
785.69	0.03
785.994	0.04
786.298	0.04
786.602	0.04
786.906	0.04
787.209	0.04
787.513	0.03
787.817	0.03
788.12	0.03
788.424	0.03
788.727	0.03
789.03	0.03
789.333	0.03
789.637	0.03
789.94	0.04
790.243	0.03
790.546	0.03
790.849	0.03
791.152	0.02
791.454	0.02
791.757	0.02
792.06	0.02
792.362	0.03
792.665	0.02
792.967	0.03
793.27	0.03
793.572	0.03
793.874	0.03
794.177	0.03
794.479	0.03
794.781	0.03
795.083	0.03
795.385	0.03
795.687	0.03
795.989	0.03
796.29	0.03
796.592	0.03
796.894	0.03
797.195	0.04
797.497	0.03
797.798	0.03
798.1	0.03
798.401	0.03
798.702	0.04
799.003	0.04
799.304	0.04
799.605	0.03
799.906	0.04
800.207	0.03
800.508	0.03
800.809	0.03
801.11	0.03
801.41	0.03
801.711	0.03
802.011	0.04
802.312	0.03
802.612	0.03
802.913	0.04
803.213	0.04
803.513	0.03
803.813	0.04
804.113	0.04
804.413	0.04
804.713	0.03
805.013	0.03
805.313	0.03
805.613	0.03
805.912	0.03
806.212	0.03
806.511	0.03
806.811	0.03
807.11	0.03
807.41	0.03
807.709	0.02
808.008	0.02
808.307	0.03
808.606	0.02
808.905	0.03
809.204	0.03
809.503	0.03
809.802	0.03
810.101	0.03
810.399	0.04
810.698	0.04
810.997	0.03
811.295	0.03
811.593	0.04
811.892	0.04
812.19	0.04
812.488	0.04
812.786	0.04
813.084	0.04
813.383	0.03
813.68	0.04
813.978	0.04
814.276	0.04
814.574	0.05
814.872	0.04
815.169	0.05
815.467	0.04
815.764	0.05
816.062	0.05
816.359	0.04
816.656	0.04
816.954	0.04
817.251	0.04
817.548	0.04
817.845	0.05
818.142	0.04
818.439	0.04
818.735	0.04
819.032	0.04
819.329	0.04
819.626	0.04
819.922	0.04
820.219	0.04
820.515	0.04
820.811	0.04
821.108	0.04
821.404	0.03
821.7	0.04
821.996	0.04
822.292	0.04
822.588	0.04
822.884	0.04
823.18	0.03
823.475	0.03
823.771	0.04
824.067	0.03
824.362	0.03
824.658	0.03
824.953	0.03
825.249	0.03
825.544	0.04
825.839	0.04
826.134	0.04
826.429	0.04
826.724	0.04
827.019	0.04
827.314	0.04
827.609	0.04
827.904	0.04
828.198	0.04
828.493	0.04
828.787	0.04
829.082	0.04
829.376	0.04
829.671	0.04
829.965	0.04
830.259	0.05
830.553	0.04
830.847	0.04
831.141	0.04
831.435	0.04
831.729	0.04
832.023	0.04
832.317	0.05
832.61	0.05
832.904	0.04
833.197	0.04
833.491	0.05
833.784	0.05
834.077	0.05
834.371	0.05
834.664	0.05
834.957	0.05
835.25	0.05
835.543	0.05
835.836	0.05
836.129	0.05
836.421	0.04
836.714	0.04
837.007	0.04
837.299	0.04
837.592	0.05
837.884	0.04
838.177	0.04
838.469	0.04
838.761	0.04
839.053	0.04
839.345	0.04
839.637	0.03
839.929	0.04
840.221	0.03
840.513	0.04
840.805	0.03
841.096	0.04
841.388	0.04
841.68	0.04
841.971	0.04
842.262	0.04
842.554	0.03
842.845	0.04
843.136	0.04
843.427	0.04
843.718	0.05
844.009	0.05
844.3	0.04
844.591	0.06
844.882	0.05
845.173	0.04
845.463	0.05
845.754	0.06
846.044	0.05
846.335	0.05
846.625	0.05
846.915	0.05
847.206	0.05
847.496	0.04
847.786	0.05
848.076	0.05
848.366	0.05
848.656	0.05
848.945	0.05
849.235	0.05
849.525	0.04
849.814	0.04
850.104	0.05
850.393	0.04
850.683	0.04
850.972	0.04
851.261	0.04
851.551	0.04
851.84	0.05
852.129	0.04
852.418	0.05
852.707	0.04
852.995	0.05
853.284	0.05
853.573	0.05
853.862	0.05
854.15	0.04
854.439	0.04
854.727	0.05
855.015	0.05
855.304	0.04
855.592	0.04
855.88	0.03
856.168	0.03
856.456	0.04
856.744	0.04
857.032	0.05
857.32	0.04
857.607	0.04
857.895	0.03
858.183	0.06
858.47	0.04
858.757	0.04
859.045	0.06
859.332	0.04
859.619	0.03
859.907	0.04
860.194	0.02
860.481	0.04
860.768	0.04
861.054	0.04
861.341	0.04
861.628	0.04
861.915	0.05
862.201	0.05
862.488	0.04
862.774	0.04
863.061	0.04
863.347	0.05
863.633	0.06
863.919	0.04
864.205	0.06
864.491	0.06
864.777	0.04
865.063	0.04
865.349	0.04
865.635	0.03
865.92	0.03
866.206	0.05
866.492	0.04
866.777	0.03
867.062	0.03
867.348	0.02
867.633	0.06
867.918	0.04
868.203	0.05
868.488	0.03
868.773	0.02
869.058	0.04
869.343	0.01
869.628	0.05
869.912	0.01
870.197	0.01
870.482	0.02
870.766	0.05
871.05	0.05
871.335	-0.01
871.619	0.01
871.903	0.04
872.187	0.09
872.471	0.03
872.755	0.02
873.039	0.06
873.323	0.06
873.607	0
873.89	0.03
874.174	0.04
874.458	-0
874.741	0
875.024	0.01
875.308	0.01
875.591	-0.01
875.874	-0.02
876.157	-0.03
876.44	0.02
876.723	0.07
877.006	0.08
877.289	0.05
877.572	0.08
877.854	0.03
878.137	0.1
878.42	-0.04
878.702	-0.03
878.984	0.08
879.267	0.05
879.549	-0
879.831	-0.04
880.113	0.03
880.395	-0.02
880.677	0.01
880.959	0.08
