Data from Rubpy_EV_600_EDTA_Buffered_Absorbance_12-54-03-114.txt Node
Date: Tue Jun 30 12:54:03 BST 2026
User: fpm-admin
Spectrometer: OFX00224
Trigger mode: 0
Integration Time (sec): 7.000000E-2
Scans to average: 3
Nonlinearity correction enabled: false
Boxcar width: 0
Storing dark spectrum: false
XAxis mode: Wavelengths
Number of Pixels in Spectrum: 2136
>>>>>Begin Spectral Data<<<<<
154.91	-1.01
155.289	1.38
155.669	0.5
156.048	-0.3
156.428	-0
156.807	-0.9
157.186	0.28
157.566	-0
157.945	0.42
158.325	0.82
158.704	-0
159.083	-0.62
159.462	-0
159.842	-0
160.221	0.66
160.6	0.18
160.979	0.25
161.359	-0
161.738	-0
162.117	-0.39
162.496	0.23
162.875	-0
163.254	-0.23
163.633	-0.7
164.012	0.08
164.391	-0
164.77	-0
165.149	0.11
165.528	0.64
165.907	-0.62
166.286	-0
166.665	-0.19
167.044	-0
167.423	0.24
167.802	-0.24
168.181	0.9
168.559	-0
168.938	0.48
169.317	-0.11
169.696	-0.79
170.074	-0
170.453	0.6
170.832	1.48
171.21	-0
171.589	0.07
171.968	-0
172.346	-0
172.725	-0
173.103	-0.56
173.482	0.22
173.861	0.33
174.239	-0
174.617	-0
174.996	-0
175.374	-0
175.753	-0
176.131	-0
176.51	-0.67
176.888	0.52
177.266	-0
177.645	-0.08
178.023	0.45
178.401	0.01
178.779	-0.07
179.158	0.83
179.536	-0
179.914	0.5
180.292	-0
180.67	-0
181.048	-0
181.427	-1.41
181.805	0.22
182.183	-0
182.561	-0
182.939	-0.2
183.317	-0
183.695	0.7
184.073	-0.03
184.451	-0
184.829	-1.29
185.206	0.16
185.584	-0
185.962	-0
186.34	-0
186.718	-0.16
187.096	0.43
187.473	0.56
187.851	-0.24
188.229	-0.18
188.607	-0.01
188.984	0.08
189.362	0.11
189.74	0.06
190.117	0.13
190.495	0.13
190.872	0.06
191.25	0.08
191.627	0.04
192.005	0.05
192.382	0.14
192.76	0.14
193.137	0.13
193.515	0.11
193.892	0.06
194.269	0.04
194.647	0.06
195.024	0.1
195.401	0.1
195.779	0.18
196.156	0.09
196.533	0.08
196.91	0.13
197.288	0.07
197.665	-0.02
198.042	0
198.419	0.1
198.796	0.14
199.173	0.1
199.55	0.07
199.927	0.08
200.304	0.16
200.681	-0.01
201.058	0.12
201.435	0.06
201.812	0.04
202.189	0.05
202.566	0.15
202.943	0.09
203.32	0.17
203.697	0.06
204.073	-0.03
204.45	0.07
204.827	0.19
205.204	0.11
205.58	0.05
205.957	0.06
206.334	0.14
206.71	0.13
207.087	0.16
207.464	0.15
207.84	0.11
208.217	0.07
208.593	0.08
208.97	0.08
209.346	0.03
209.723	0.11
210.099	0.15
210.476	0.01
210.852	0.12
211.228	0.07
211.605	0.04
211.981	0.08
212.357	-0.03
212.733	0.02
213.11	0.07
213.486	0.08
213.862	-0.02
214.238	0.16
214.614	0.1
214.991	0.1
215.367	0.17
215.743	0.11
216.119	0.15
216.495	-0.04
216.871	0.06
217.247	0.07
217.623	0.09
217.999	0.13
218.375	0.14
218.751	0.03
219.127	0.1
219.502	0.03
219.878	0.14
220.254	0.09
220.63	0.1
221.006	0.07
221.381	0.09
221.757	0.14
222.133	0.09
222.508	0.04
222.884	0.12
223.26	0.06
223.635	0.15
224.011	0.05
224.386	0.11
224.762	0.02
225.137	0.11
225.513	0.06
225.888	0.15
226.264	0.13
226.639	0.14
227.014	0.14
227.39	0.07
227.765	0.09
228.14	0.12
228.516	0.07
228.891	0.14
229.266	0.08
229.641	0.06
230.017	0.1
230.392	0.08
230.767	0.09
231.142	0.08
231.517	0.06
231.892	0.06
232.267	0.13
232.642	0.06
233.017	0.12
233.392	0.13
233.767	0.1
234.142	0.13
234.517	0.03
234.892	0.09
235.267	0.01
235.641	0.06
236.016	0.09
236.391	0.09
236.766	-0
237.14	0.07
237.515	0.11
237.89	0.18
238.264	0.06
238.639	0.12
239.014	0.01
239.388	0.06
239.763	0.16
240.137	0.07
240.512	0.13
240.886	0.03
241.261	0.06
241.635	0.02
242.009	0.15
242.384	0.1
242.758	0.04
243.132	0.15
243.507	0.18
243.881	0.07
244.255	0.09
244.629	0.12
245.004	0.11
245.378	0.01
245.752	0.15
246.126	0.09
246.5	0.14
246.874	0.05
247.248	0.09
247.622	0.09
247.996	0.09
248.37	0.1
248.744	0.12
249.118	0.15
249.492	0.05
249.866	0.12
250.24	0.07
250.613	-0.01
250.987	0.1
251.361	0.13
251.735	0.07
252.108	0.12
252.482	0.14
252.856	-0.02
253.229	0.03
253.603	0.06
253.977	0.03
254.35	0.07
254.724	0.03
255.097	0.07
255.471	-0.04
255.844	0.06
256.218	0.08
256.591	-0.01
256.964	0.05
257.338	0.04
257.711	0.05
258.084	0.11
258.458	0.18
258.831	0.14
259.204	0.11
259.577	0.12
259.95	0.05
260.323	0.02
260.697	0.1
261.07	0.07
261.443	0.03
261.816	0.1
262.189	0.09
262.562	0.07
262.935	0.09
263.308	0.08
263.68	0.05
264.053	0.07
264.426	0.11
264.799	0.03
265.172	0.08
265.545	0.09
265.917	0.09
266.29	0.1
266.663	0.05
267.035	0.13
267.408	0.07
267.781	0.06
268.153	0.1
268.526	0.07
268.898	0.11
269.271	0.12
269.643	0.12
270.016	0.13
270.388	0.08
270.76	0.08
271.133	0.1
271.505	0.03
271.877	0.12
272.25	-0.03
272.622	0.05
272.994	0.09
273.366	0.14
273.739	0.09
274.111	0.02
274.483	-0.03
274.855	0.08
275.227	0.16
275.599	0.03
275.971	0.07
276.343	0.08
276.715	0.05
277.087	0.1
277.459	0.1
277.831	0.03
278.203	0.12
278.574	0.09
278.946	0.07
279.318	0.06
279.69	0.07
280.061	0.07
280.433	0.07
280.805	0.1
281.176	0
281.548	0.02
281.92	0.11
282.291	0.11
282.663	0.09
283.034	0.06
283.406	0.07
283.777	0.08
284.148	0.05
284.52	0.12
284.891	0.06
285.262	0.05
285.634	0.07
286.005	0.05
286.376	0.07
286.747	0.04
287.119	0.07
287.49	0.04
287.861	0.03
288.232	0.08
288.603	0.06
288.974	-0.02
289.345	0.07
289.716	0.04
290.087	0.01
290.458	0.07
290.829	0
291.2	0.03
291.571	0.03
291.941	0.09
292.312	0.06
292.683	0.08
293.054	0.05
293.424	0.03
293.795	0.08
294.166	0.02
294.536	0.1
294.907	0.06
295.277	0.06
295.648	0.03
296.018	0.05
296.389	0.06
296.759	0.09
297.13	0.03
297.5	0.03
297.871	0.07
298.241	0.03
298.611	0.03
298.981	0.04
299.352	0.03
299.722	0.04
300.092	0.05
300.462	0.06
300.832	0.03
301.202	0.05
301.573	0.04
301.943	0.04
302.313	0.02
302.683	0.03
303.053	0.04
303.422	0.02
303.792	0.03
304.162	0.04
304.532	0.04
304.902	0.03
305.272	0.03
305.641	0.03
306.011	0.03
306.381	0.03
306.75	0.03
307.12	0.03
307.49	0.03
307.859	0.03
308.229	0.04
308.598	0.03
308.968	0.03
309.337	0.04
309.707	0.03
310.076	0.03
310.445	0.04
310.815	0.04
311.184	0.04
311.553	0.04
311.923	0.04
312.292	0.03
312.661	0.04
313.03	0.04
313.399	0.05
313.768	0.05
314.137	0.04
314.506	0.04
314.875	0.04
315.244	0.04
315.613	0.04
315.982	0.04
316.351	0.04
316.72	0.04
317.089	0.04
317.458	0.04
317.826	0.04
318.195	0.04
318.564	0.04
318.933	0.04
319.301	0.04
319.67	0.04
320.038	0.03
320.407	0.04
320.775	0.03
321.144	0.03
321.512	0.04
321.881	0.04
322.249	0.04
322.618	0.04
322.986	0.04
323.354	0.03
323.723	0.03
324.091	0.03
324.459	0.03
324.827	0.03
325.195	0.03
325.564	0.03
325.932	0.04
326.3	0.03
326.668	0.03
327.036	0.03
327.404	0.03
327.772	0.03
328.14	0.04
328.508	0.03
328.875	0.03
329.243	0.03
329.611	0.03
329.979	0.04
330.346	0.03
330.714	0.04
331.082	0.03
331.449	0.03
331.817	0.03
332.185	0.03
332.552	0.03
332.92	0.03
333.287	0.04
333.655	0.03
334.022	0.03
334.389	0.03
334.757	0.03
335.124	0.04
335.491	0.03
335.859	0.04
336.226	0.03
336.593	0.04
336.96	0.04
337.327	0.04
337.695	0.04
338.062	0.04
338.429	0.04
338.796	0.04
339.163	0.04
339.53	0.04
339.897	0.04
340.263	0.04
340.63	0.05
340.997	0.04
341.364	0.05
341.731	0.04
342.097	0.05
342.464	0.05
342.831	0.04
343.197	0.05
343.564	0.05
343.931	0.05
344.297	0.05
344.664	0.05
345.03	0.05
345.396	0.05
345.763	0.05
346.129	0.05
346.496	0.05
346.862	0.06
347.228	0.05
347.594	0.06
347.961	0.06
348.327	0.06
348.693	0.06
349.059	0.06
349.425	0.06
349.791	0.06
350.157	0.06
350.523	0.07
350.889	0.07
351.255	0.07
351.621	0.07
351.987	0.07
352.353	0.07
352.719	0.07
353.084	0.07
353.45	0.08
353.816	0.08
354.181	0.08
354.547	0.08
354.913	0.08
355.278	0.08
355.644	0.08
356.009	0.09
356.375	0.09
356.74	0.09
357.106	0.09
357.471	0.1
357.836	0.1
358.202	0.1
358.567	0.1
358.932	0.1
359.297	0.11
359.663	0.11
360.028	0.11
360.393	0.11
360.758	0.11
361.123	0.11
361.488	0.11
361.853	0.12
362.218	0.11
362.583	0.12
362.948	0.12
363.312	0.12
363.677	0.12
364.042	0.12
364.407	0.13
364.772	0.13
365.136	0.13
365.501	0.14
365.865	0.14
366.23	0.14
366.595	0.14
366.959	0.15
367.324	0.15
367.688	0.16
368.052	0.16
368.417	0.16
368.781	0.16
369.145	0.16
369.51	0.17
369.874	0.17
370.238	0.16
370.602	0.16
370.967	0.16
371.331	0.17
371.695	0.16
372.059	0.16
372.423	0.17
372.787	0.16
373.151	0.16
373.515	0.16
373.878	0.17
374.242	0.17
374.606	0.16
374.97	0.16
375.334	0.17
375.697	0.16
376.061	0.17
376.425	0.17
376.788	0.17
377.152	0.17
377.515	0.17
377.879	0.18
378.242	0.18
378.606	0.18
378.969	0.18
379.333	0.18
379.696	0.19
380.059	0.19
380.422	0.2
380.786	0.2
381.149	0.2
381.512	0.21
381.875	0.21
382.238	0.22
382.601	0.22
382.964	0.23
383.327	0.23
383.69	0.24
384.053	0.25
384.416	0.25
384.779	0.26
385.142	0.27
385.504	0.27
385.867	0.27
386.23	0.27
386.593	0.28
386.955	0.28
387.318	0.28
387.68	0.28
388.043	0.28
388.405	0.28
388.768	0.27
389.13	0.27
389.493	0.27
389.855	0.27
390.217	0.26
390.58	0.27
390.942	0.27
391.304	0.27
391.666	0.27
392.028	0.28
392.391	0.29
392.753	0.29
393.115	0.3
393.477	0.32
393.839	0.33
394.201	0.34
394.563	0.35
394.924	0.36
395.286	0.38
395.648	0.4
396.01	0.41
396.371	0.42
396.733	0.43
397.095	0.44
397.456	0.44
397.818	0.44
398.18	0.43
398.541	0.44
398.903	0.43
399.264	0.4
399.625	0.4
399.987	0.39
400.348	0.36
400.709	0.35
401.071	0.33
401.432	0.31
401.793	0.29
402.154	0.27
402.515	0.25
402.876	0.23
403.238	0.22
403.599	0.2
403.96	0.19
404.32	0.17
404.681	0.16
405.042	0.15
405.403	0.14
405.764	0.13
406.125	0.12
406.485	0.11
406.846	0.1
407.207	0.1
407.567	0.1
407.928	0.09
408.288	0.09
408.649	0.08
409.009	0.08
409.37	0.08
409.73	0.07
410.091	0.06
410.451	0.06
410.811	0.06
411.171	0.06
411.532	0.05
411.892	0.05
412.252	0.05
412.612	0.05
412.972	0.05
413.332	0.04
413.692	0.04
414.052	0.05
414.412	0.04
414.772	0.04
415.132	0.04
415.492	0.04
415.851	0.04
416.211	0.04
416.571	0.04
416.931	0.04
417.29	0.04
417.65	0.04
418.009	0.03
418.369	0.03
418.728	0.03
419.088	0.03
419.447	0.03
419.807	0.03
420.166	0.03
420.525	0.03
420.884	0.02
421.244	0.03
421.603	0.03
421.962	0.03
422.321	0.03
422.68	0.03
423.039	0.02
423.398	0.03
423.757	0.03
424.116	0.03
424.475	0.03
424.834	0.03
425.193	0.03
425.551	0.02
425.91	0.03
426.269	0.03
426.628	0.02
426.986	0.02
427.345	0.02
427.703	0.03
428.062	0.02
428.42	0.02
428.779	0.02
429.137	0.02
429.496	0.02
429.854	0.02
430.212	0.02
430.57	0.02
430.929	0.02
431.287	0.03
431.645	0.01
432.003	0.02
432.361	0.02
432.719	0.01
433.077	0.02
433.435	0.02
433.793	0.02
434.151	0.02
434.509	0.02
434.866	0.02
435.224	0.02
435.582	0.02
435.94	0.02
436.297	0.02
436.655	0.02
437.012	0.02
437.37	0.03
437.727	0.01
438.085	0.02
438.442	0.02
438.8	0.01
439.157	0.02
439.514	0.02
439.872	0.02
440.229	0.02
440.586	0.02
440.943	0.02
441.3	0.02
441.657	0.02
442.014	0.02
442.371	0.02
442.728	0.01
443.085	0.01
443.442	0.02
443.799	0.02
444.156	0.01
444.513	0.01
444.869	0.02
445.226	0.02
445.583	0.01
445.939	0.01
446.296	0.02
446.652	0.02
447.009	0.02
447.365	0.02
447.722	0.02
448.078	0.01
448.434	0.01
448.791	0.01
449.147	0.01
449.503	0.02
449.859	0.01
450.215	0.01
450.571	0.02
450.928	0.01
451.284	0.01
451.64	0
451.995	0.01
452.351	0
452.707	0.01
453.063	0.01
453.419	0.01
453.775	0
454.13	0.02
454.486	0.02
454.842	0.01
455.197	0.01
455.553	0.01
455.908	-0
456.264	0.01
456.619	0.01
456.975	0.01
457.33	0
457.685	-0
458.04	0
458.396	-0.01
458.751	0
459.106	-0
459.461	0
459.816	0
460.171	-0
460.526	-0
460.881	-0
461.236	-0.01
461.591	-0.01
461.946	-0
462.301	-0.01
462.655	-0.01
463.01	-0.01
463.365	-0.01
463.719	-0.01
464.074	-0
464.428	-0.01
464.783	-0.02
465.137	-0.02
465.492	-0.01
465.846	-0.02
466.201	-0.01
466.555	-0.02
466.909	-0.02
467.263	-0.02
467.618	-0.01
467.972	-0.02
468.326	-0.02
468.68	-0.02
469.034	-0.02
469.388	-0.02
469.742	-0.02
470.096	-0.02
470.45	-0.02
470.804	-0.02
471.157	-0.02
471.511	-0.02
471.865	-0.02
472.218	-0.02
472.572	-0.02
472.926	-0.02
473.279	-0.02
473.633	-0.01
473.986	-0.01
474.34	-0.02
474.693	-0.01
475.046	-0.01
475.4	-0.01
475.753	-0.01
476.106	-0.01
476.459	0
476.812	-0
477.165	-0
477.519	-0.01
477.872	0
478.224	-0
478.577	0.01
478.93	0
479.283	0.01
479.636	0
479.989	0
480.341	0
480.694	0.01
481.047	0.01
481.399	0.01
481.752	0.01
482.104	0.01
482.457	0.01
482.809	0.01
483.162	0.01
483.514	0.01
483.866	0.01
484.219	0.01
484.571	0.01
484.923	0.01
485.275	0.01
485.627	0.01
485.979	0.01
486.331	0.01
486.683	0.02
487.035	0.01
487.387	0.01
487.739	0.02
488.091	0.02
488.443	0.02
488.794	0.02
489.146	0.02
489.498	0.02
489.849	0.02
490.201	0.01
490.552	0.02
490.904	0.02
491.255	0.02
491.607	0.02
491.958	0.03
492.309	0.02
492.661	0.02
493.012	0.02
493.363	0.02
493.714	0.02
494.065	0.02
494.416	0.03
494.767	0.02
495.118	0.03
495.469	0.03
495.82	0.02
496.171	0.03
496.522	0.03
496.872	0.03
497.223	0.03
497.574	0.03
497.924	0.03
498.275	0.03
498.626	0.03
498.976	0.03
499.327	0.03
499.677	0.03
500.027	0.03
500.378	0.03
500.728	0.03
501.078	0.03
501.428	0.03
501.779	0.03
502.129	0.03
502.479	0.03
502.829	0.03
503.179	0.03
503.529	0.03
503.879	0.03
504.229	0.04
504.578	0.03
504.928	0.04
505.278	0.03
505.628	0.03
505.977	0.04
506.327	0.03
506.676	0.04
507.026	0.03
507.375	0.04
507.725	0.04
508.074	0.04
508.424	0.04
508.773	0.04
509.122	0.04
509.471	0.04
509.82	0.04
510.17	0.04
510.519	0.04
510.868	0.04
511.217	0.04
511.566	0.04
511.915	0.04
512.263	0.04
512.612	0.04
512.961	0.04
513.31	0.04
513.659	0.04
514.007	0.04
514.356	0.05
514.704	0.05
515.053	0.05
515.401	0.05
515.75	0.05
516.098	0.05
516.447	0.05
516.795	0.05
517.143	0.05
517.491	0.05
517.839	0.05
518.188	0.05
518.536	0.05
518.884	0.05
519.232	0.05
519.58	0.05
519.928	0.05
520.275	0.05
520.623	0.05
520.971	0.05
521.319	0.06
521.666	0.06
522.014	0.05
522.362	0.06
522.709	0.06
523.057	0.06
523.404	0.06
523.752	0.05
524.099	0.06
524.446	0.06
524.794	0.06
525.141	0.06
525.488	0.06
525.835	0.06
526.182	0.06
526.529	0.06
526.876	0.06
527.223	0.06
527.57	0.06
527.917	0.06
528.264	0.06
528.611	0.06
528.958	0.06
529.304	0.06
529.651	0.06
529.998	0.07
530.344	0.06
530.691	0.07
531.037	0.07
531.384	0.07
531.73	0.07
532.076	0.07
532.423	0.07
532.769	0.07
533.115	0.07
533.461	0.07
533.807	0.07
534.154	0.07
534.5	0.07
534.846	0.08
535.192	0.07
535.537	0.07
535.883	0.07
536.229	0.07
536.575	0.07
536.921	0.08
537.266	0.08
537.612	0.08
537.957	0.08
538.303	0.08
538.649	0.09
538.994	0.08
539.339	0.08
539.685	0.08
540.03	0.08
540.375	0.09
540.721	0.08
541.066	0.08
541.411	0.09
541.756	0.08
542.101	0.09
542.446	0.09
542.791	0.09
543.136	0.09
543.481	0.09
543.825	0.09
544.17	0.09
544.515	0.08
544.86	0.09
545.204	0.09
545.549	0.09
545.893	0.09
546.238	0.09
546.582	0.09
546.927	0.09
547.271	0.1
547.615	0.09
547.96	0.1
548.304	0.09
548.648	0.09
548.992	0.09
549.336	0.1
549.68	0.09
550.024	0.1
550.368	0.1
550.712	0.1
551.056	0.1
551.4	0.1
551.743	0.1
552.087	0.1
552.431	0.1
552.774	0.1
553.118	0.1
553.462	0.1
553.805	0.1
554.148	0.1
554.492	0.1
554.835	0.11
555.178	0.1
555.522	0.11
555.865	0.1
556.208	0.11
556.551	0.11
556.894	0.1
557.237	0.11
557.58	0.11
557.923	0.1
558.266	0.1
558.609	0.1
558.952	0.11
559.294	0.11
559.637	0.11
559.98	0.11
560.322	0.11
560.665	0.11
561.007	0.11
561.35	0.11
561.692	0.11
562.034	0.11
562.377	0.11
562.719	0.11
563.061	0.11
563.403	0.11
563.745	0.11
564.088	0.11
564.43	0.11
564.772	0.11
565.113	0.11
565.455	0.12
565.797	0.11
566.139	0.11
566.481	0.11
566.822	0.11
567.164	0.11
567.506	0.11
567.847	0.11
568.189	0.11
568.53	0.11
568.872	0.11
569.213	0.12
569.554	0.12
569.895	0.11
570.237	0.11
570.578	0.11
570.919	0.11
571.26	0.11
571.601	0.11
571.942	0.11
572.283	0.11
572.624	0.11
572.965	0.11
573.306	0.11
573.646	0.11
573.987	0.11
574.328	0.11
574.668	0.11
575.009	0.11
575.349	0.11
575.69	0.11
576.03	0.11
576.37	0.11
576.711	0.11
577.051	0.11
577.391	0.11
577.731	0.11
578.072	0.11
578.412	0.11
578.752	0.11
579.092	0.11
579.431	0.11
579.771	0.1
580.111	0.1
580.451	0.1
580.791	0.11
581.13	0.11
581.47	0.11
581.81	0.11
582.149	0.11
582.489	0.11
582.828	0.11
583.167	0.1
583.507	0.09
583.846	0.07
584.185	0.08
584.525	0.1
584.864	0.11
585.203	0.11
585.542	0.11
585.881	0.12
586.22	0.12
586.559	0.11
586.898	0.11
587.236	0.11
587.575	0.11
587.914	0.11
588.252	0.11
588.591	0.12
588.93	0.12
589.268	0.12
589.607	0.11
589.945	0.12
590.283	0.12
590.622	0.12
590.96	0.12
591.298	0.13
591.636	0.12
591.974	0.13
592.313	0.13
592.651	0.13
592.989	0.12
593.326	0.13
593.664	0.13
594.002	0.13
594.34	0.13
594.678	0.13
595.015	0.12
595.353	0.12
595.691	0.13
596.028	0.13
596.366	0.13
596.703	0.13
597.04	0.13
597.378	0.14
597.715	0.13
598.052	0.14
598.389	0.14
598.726	0.14
599.064	0.14
599.401	0.14
599.738	0.14
600.074	0.14
600.411	0.13
600.748	0.13
601.085	0.13
601.422	0.14
601.758	0.13
602.095	0.13
602.432	0.13
602.768	0.13
603.105	0.14
603.441	0.14
603.777	0.14
604.114	0.14
604.45	0.14
604.786	0.14
605.122	0.14
605.459	0.14
605.795	0.13
606.131	0.13
606.467	0.14
606.803	0.14
607.139	0.14
607.474	0.13
607.81	0.13
608.146	0.14
608.482	0.13
608.817	0.13
609.153	0.14
609.488	0.13
609.824	0.13
610.159	0.13
610.495	0.13
610.83	0.13
611.165	0.14
611.5	0.13
611.836	0.14
612.171	0.14
612.506	0.14
612.841	0.13
613.176	0.13
613.511	0.13
613.845	0.13
614.18	0.13
614.515	0.13
614.85	0.13
615.184	0.13
615.519	0.13
615.854	0.13
616.188	0.13
616.523	0.13
616.857	0.13
617.191	0.13
617.526	0.13
617.86	0.13
618.194	0.13
618.528	0.13
618.862	0.13
619.196	0.13
619.53	0.13
619.864	0.13
620.198	0.13
620.532	0.13
620.866	0.13
621.2	0.13
621.533	0.13
621.867	0.13
622.201	0.13
622.534	0.13
622.868	0.13
623.201	0.13
623.534	0.13
623.868	0.13
624.201	0.13
624.534	0.13
624.868	0.12
625.201	0.13
625.534	0.13
625.867	0.13
626.2	0.13
626.533	0.13
626.865	0.13
627.198	0.12
627.531	0.12
627.864	0.12
628.196	0.12
628.529	0.12
628.862	0.12
629.194	0.12
629.527	0.12
629.859	0.12
630.191	0.12
630.524	0.11
630.856	0.11
631.188	0.11
631.52	0.12
631.852	0.11
632.184	0.11
632.516	0.11
632.848	0.11
633.18	0.11
633.512	0.11
633.844	0.11
634.175	0.11
634.507	0.11
634.839	0.1
635.17	0.11
635.502	0.11
635.833	0.1
636.165	0.11
636.496	0.11
636.827	0.11
637.159	0.11
637.49	0.11
637.821	0.1
638.152	0.1
638.483	0.1
638.814	0.1
639.145	0.1
639.476	0.1
639.807	0.1
640.137	0.1
640.468	0.1
640.799	0.1
641.129	0.1
641.46	0.1
641.791	0.1
642.121	0.1
642.451	0.1
642.782	0.1
643.112	0.09
643.442	0.1
643.773	0.09
644.103	0.09
644.433	0.09
644.763	0.09
645.093	0.09
645.423	0.09
645.753	0.09
646.082	0.09
646.412	0.09
646.742	0.09
647.072	0.09
647.401	0.09
647.731	0.09
648.06	0.09
648.39	0.09
648.719	0.09
649.048	0.09
649.378	0.09
649.707	0.08
650.036	0.09
650.365	0.09
650.694	0.08
651.023	0.08
651.352	0.09
651.681	0.09
652.01	0.09
652.339	0.09
652.668	0.09
652.996	0.09
653.325	0.09
653.654	0.09
653.982	0.09
654.311	0.09
654.639	0.09
654.967	0.09
655.296	0.09
655.624	0.09
655.952	0.09
656.28	0.08
656.609	0.08
656.937	0.09
657.265	0.08
657.593	0.06
657.92	0
658.248	-0
658.576	0
658.904	0
659.231	0.03
659.559	0.07
659.887	0.08
660.214	0.08
660.542	0.08
660.869	0.08
661.196	0.08
661.524	0.08
661.851	0.08
662.178	0.08
662.505	0.08
662.832	0.08
663.159	0.08
663.486	0.08
663.813	0.08
664.14	0.08
664.467	0.08
664.794	0.09
665.12	0.08
665.447	0.08
665.774	0.08
666.1	0.08
666.427	0.08
666.753	0.08
667.079	0.08
667.406	0.08
667.732	0.08
668.058	0.08
668.384	0.08
668.71	0.08
669.036	0.08
669.362	0.08
669.688	0.08
670.014	0.08
670.34	0.08
670.666	0.08
670.991	0.08
671.317	0.08
671.643	0.08
671.968	0.08
672.294	0.08
672.619	0.08
672.945	0.07
673.27	0.07
673.595	0.07
673.92	0.07
674.246	0.07
674.571	0.07
674.896	0.08
675.221	0.07
675.546	0.08
675.87	0.08
676.195	0.07
676.52	0.08
676.845	0.07
677.169	0.07
677.494	0.08
677.819	0.08
678.143	0.07
678.468	0.07
678.792	0.07
679.116	0.07
679.44	0.07
679.765	0.07
680.089	0.07
680.413	0.07
680.737	0.07
681.061	0.07
681.385	0.06
681.709	0.06
682.033	0.06
682.356	0.06
682.68	0.06
683.004	0.06
683.327	0.06
683.651	0.06
683.974	0.06
684.298	0.06
684.621	0.06
684.944	0.06
685.268	0.06
685.591	0.06
685.914	0.06
686.237	0.06
686.56	0.06
686.883	0.06
687.206	0.06
687.529	0.06
687.852	0.06
688.175	0.06
688.497	0.06
688.82	0.06
689.142	0.05
689.465	0.05
689.787	0.05
690.11	0.05
690.432	0.05
690.755	0.05
691.077	0.05
691.399	0.05
691.721	0.05
692.043	0.05
692.365	0.05
692.687	0.05
693.009	0.05
693.331	0.05
693.653	0.04
693.974	0.05
694.296	0.05
694.618	0.04
694.939	0.04
695.261	0.05
695.582	0.05
695.904	0.05
696.225	0.05
696.546	0.04
696.868	0.04
697.189	0.05
697.51	0.05
697.831	0.04
698.152	0.05
698.473	0.04
698.794	0.04
699.114	0.04
699.435	0.04
699.756	0.04
700.077	0.04
700.397	0.04
700.718	0.05
701.038	0.05
701.359	0.05
701.679	0.05
701.999	0.05
702.32	0.05
702.64	0.05
702.96	0.04
703.28	0.04
703.6	0.04
703.92	0.04
704.24	0.04
704.56	0.03
704.879	0.04
705.199	0.04
705.519	0.04
705.838	0.04
706.158	0.04
706.478	0.04
706.797	0.04
707.116	0.04
707.436	0.04
707.755	0.04
708.074	0.04
708.393	0.04
708.712	0.04
709.031	0.03
709.35	0.03
709.669	0.03
709.988	0.03
710.307	0.03
710.626	0.04
710.944	0.04
711.263	0.04
711.582	0.04
711.9	0.03
712.219	0.04
712.537	0.03
712.855	0.04
713.174	0.03
713.492	0.04
713.81	0.04
714.128	0.04
714.446	0.03
714.764	0.04
715.082	0.03
715.4	0.04
715.718	0.03
716.035	0.03
716.353	0.03
716.671	0.04
716.988	0.03
717.306	0.04
717.623	0.04
717.941	0.04
718.258	0.04
718.575	0.04
718.893	0.04
719.21	0.04
719.527	0.04
719.844	0.04
720.161	0.04
720.478	0.04
720.795	0.04
721.112	0.04
721.428	0.04
721.745	0.04
722.062	0.04
722.378	0.04
722.695	0.05
723.011	0.04
723.328	0.04
723.644	0.04
723.96	0.04
724.276	0.04
724.593	0.04
724.909	0.04
725.225	0.04
725.541	0.04
725.857	0.05
726.173	0.04
726.488	0.04
726.804	0.04
727.12	0.04
727.435	0.04
727.751	0.04
728.067	0.04
728.382	0.04
728.697	0.04
729.013	0.04
729.328	0.04
729.643	0.04
729.958	0.04
730.273	0.04
730.588	0.04
730.903	0.04
731.218	0.04
731.533	0.04
731.848	0.04
732.163	0.04
732.477	0.04
732.792	0.03
733.107	0.03
733.421	0.03
733.736	0.04
734.05	0.04
734.364	0.04
734.678	0.04
734.993	0.04
735.307	0.04
735.621	0.04
735.935	0.04
736.249	0.04
736.563	0.04
736.877	0.04
737.19	0.04
737.504	0.04
737.818	0.04
738.131	0.04
738.445	0.04
738.758	0.04
739.072	0.04
739.385	0.03
739.698	0.03
740.012	0.03
740.325	0.03
740.638	0.03
740.951	0.03
741.264	0.03
741.577	0.03
741.89	0.04
742.203	0.04
742.515	0.04
742.828	0.04
743.141	0.04
743.453	0.04
743.766	0.03
744.078	0.03
744.391	0.03
744.703	0.03
745.015	0.04
745.327	0.04
745.639	0.03
745.952	0.03
746.264	0.03
746.575	0.03
746.887	0.03
747.199	0.04
747.511	0.03
747.823	0.04
748.134	0.04
748.446	0.03
748.757	0.04
749.069	0.03
749.38	0.04
749.692	0.04
750.003	0.04
750.314	0.04
750.625	0.04
750.936	0.04
751.248	0.04
751.559	0.04
751.869	0.04
752.18	0.04
752.491	0.04
752.802	0.04
753.112	0.03
753.423	0.03
753.734	0.03
754.044	0.03
754.355	0.03
754.665	0.02
754.975	0.03
755.285	0.03
755.596	0.03
755.906	0.02
756.216	0.03
756.526	0.03
756.836	0.03
757.146	0.03
757.455	0.03
757.765	0.02
758.075	0.02
758.385	0.02
758.694	0.02
759.004	0.02
759.313	0.02
759.622	0.03
759.932	0.03
760.241	0.03
760.55	0.03
760.859	0.03
761.168	0.03
761.477	0.03
761.786	0.03
762.095	0.03
762.404	0.03
762.713	0.03
763.021	0.03
763.33	0.02
763.639	0.02
763.947	0.03
764.256	0.03
764.564	0.03
764.872	0.03
765.181	0.02
765.489	0.02
765.797	0.03
766.105	0.03
766.413	0.03
766.721	0.02
767.029	0.03
767.337	0.03
767.644	0.03
767.952	0.03
768.26	0.03
768.567	0.03
768.875	0.03
769.182	0.03
769.49	0.03
769.797	0.03
770.104	0.03
770.411	0.02
770.718	0.02
771.026	0.02
771.333	0.02
771.639	0.02
771.946	0.02
772.253	0.02
772.56	0.02
772.867	0.02
773.173	0.02
773.48	0.02
773.786	0.03
774.093	0.02
774.399	0.02
774.705	0.02
775.012	0.02
775.318	0.02
775.624	0.02
775.93	0.02
776.236	0.03
776.542	0.03
776.848	0.03
777.154	0.03
777.459	0.03
777.765	0.03
778.071	0.02
778.376	0.03
778.682	0.03
778.987	0.03
779.292	0.03
779.598	0.02
779.903	0.03
780.208	0.03
780.513	0.03
780.818	0.02
781.123	0.02
781.428	0.02
781.733	0.02
782.038	0.03
782.343	0.03
782.647	0.03
782.952	0.03
783.256	0.03
783.561	0.03
783.865	0.03
784.17	0.03
784.474	0.03
784.778	0.02
785.082	0.03
785.386	0.03
785.69	0.03
785.994	0.03
786.298	0.03
786.602	0.03
786.906	0.03
787.209	0.02
787.513	0.03
787.817	0.02
788.12	0.02
788.424	0.03
788.727	0.03
789.03	0.03
789.333	0.03
789.637	0.03
789.94	0.03
790.243	0.03
790.546	0.03
790.849	0.02
791.152	0.02
791.454	0.02
791.757	0.02
792.06	0.02
792.362	0.02
792.665	0.03
792.967	0.03
793.27	0.03
793.572	0.02
793.874	0.03
794.177	0.03
794.479	0.03
794.781	0.03
795.083	0.03
795.385	0.03
795.687	0.02
795.989	0.03
796.29	0.03
796.592	0.03
796.894	0.03
797.195	0.03
797.497	0.03
797.798	0.03
798.1	0.03
798.401	0.03
798.702	0.03
799.003	0.03
799.304	0.03
799.605	0.03
799.906	0.03
800.207	0.02
800.508	0.02
800.809	0.03
801.11	0.03
801.41	0.03
801.711	0.03
802.011	0.03
802.312	0.03
802.612	0.03
802.913	0.04
803.213	0.03
803.513	0.03
803.813	0.03
804.113	0.04
804.413	0.04
804.713	0.03
805.013	0.03
805.313	0.03
805.613	0.03
805.912	0.03
806.212	0.03
806.511	0.03
806.811	0.03
807.11	0.03
807.41	0.03
807.709	0.02
808.008	0.02
808.307	0.02
808.606	0.02
808.905	0.03
809.204	0.03
809.503	0.03
809.802	0.03
810.101	0.04
810.399	0.04
810.698	0.03
810.997	0.03
811.295	0.04
811.593	0.04
811.892	0.04
812.19	0.04
812.488	0.04
812.786	0.04
813.084	0.04
813.383	0.04
813.68	0.04
813.978	0.04
814.276	0.04
814.574	0.04
814.872	0.04
815.169	0.04
815.467	0.04
815.764	0.03
816.062	0.04
816.359	0.03
816.656	0.03
816.954	0.03
817.251	0.04
817.548	0.04
817.845	0.04
818.142	0.04
818.439	0.03
818.735	0.03
819.032	0.03
819.329	0.04
819.626	0.04
819.922	0.04
820.219	0.04
820.515	0.04
820.811	0.04
821.108	0.04
821.404	0.03
821.7	0.04
821.996	0.03
822.292	0.03
822.588	0.04
822.884	0.04
823.18	0.03
823.475	0.03
823.771	0.03
824.067	0.03
824.362	0.03
824.658	0.04
824.953	0.03
825.249	0.03
825.544	0.04
825.839	0.04
826.134	0.04
826.429	0.04
826.724	0.04
827.019	0.05
827.314	0.04
827.609	0.04
827.904	0.04
828.198	0.04
828.493	0.04
828.787	0.04
829.082	0.03
829.376	0.03
829.671	0.03
829.965	0.04
830.259	0.04
830.553	0.04
830.847	0.04
831.141	0.04
831.435	0.04
831.729	0.03
832.023	0.04
832.317	0.04
832.61	0.05
832.904	0.04
833.197	0.04
833.491	0.04
833.784	0.04
834.077	0.05
834.371	0.04
834.664	0.05
834.957	0.04
835.25	0.04
835.543	0.04
835.836	0.04
836.129	0.04
836.421	0.04
836.714	0.04
837.007	0.04
837.299	0.03
837.592	0.04
837.884	0.04
838.177	0.03
838.469	0.04
838.761	0.04
839.053	0.04
839.345	0.04
839.637	0.03
839.929	0.03
840.221	0.03
840.513	0.04
840.805	0.03
841.096	0.04
841.388	0.04
841.68	0.03
841.971	0.04
842.262	0.03
842.554	0.04
842.845	0.03
843.136	0.03
843.427	0.03
843.718	0.03
844.009	0.04
844.3	0.03
844.591	0.04
844.882	0.04
845.173	0.03
845.463	0.04
845.754	0.05
846.044	0.04
846.335	0.05
846.625	0.04
846.915	0.04
847.206	0.04
847.496	0.05
847.786	0.04
848.076	0.05
848.366	0.05
848.656	0.04
848.945	0.05
849.235	0.05
849.525	0.05
849.814	0.05
850.104	0.05
850.393	0.04
850.683	0.04
850.972	0.05
851.261	0.04
851.551	0.05
851.84	0.06
852.129	0.04
852.418	0.04
852.707	0.05
852.995	0.04
853.284	0.05
853.573	0.06
853.862	0.05
854.15	0.05
854.439	0.04
854.727	0.05
855.015	0.05
855.304	0.04
855.592	0.03
855.88	0.02
856.168	0.04
856.456	0.04
856.744	0.04
857.032	0.04
857.32	0.05
857.607	0.06
857.895	0.03
858.183	0.05
858.47	0.04
858.757	0.03
859.045	0.03
859.332	0.04
859.619	0.02
859.907	0.03
860.194	0.04
860.481	0.04
860.768	0.04
861.054	0.03
861.341	0.04
861.628	0.05
861.915	0.05
862.201	0.03
862.488	0.04
862.774	0.04
863.061	0.04
863.347	0.03
863.633	0.06
863.919	0.05
864.205	0.04
864.491	0.05
864.777	0.03
865.063	0.04
865.349	0.04
865.635	0.02
865.92	0.02
866.206	0.05
866.492	0.06
866.777	0.04
867.062	0.04
867.348	0.03
867.633	0.05
867.918	0.03
868.203	0.07
868.488	0.02
868.773	0.03
869.058	0.02
869.343	0.02
869.628	0.03
869.912	0.01
870.197	0.01
870.482	0.01
870.766	0.02
871.05	0.05
871.335	0
871.619	0.03
871.903	0.04
872.187	0.05
872.471	0.01
872.755	0.06
873.039	0.06
873.323	0.07
873.607	-0.01
873.89	0.04
874.174	0.06
874.458	0.07
874.741	0.03
875.024	0.01
875.308	0.04
875.591	0.01
875.874	-0.02
876.157	-0.03
876.44	0.06
876.723	0.08
877.006	0.06
877.289	0.06
877.572	0.03
877.854	0.02
878.137	0.02
878.42	0.02
878.702	-0.03
878.984	-0.03
879.267	0.01
879.549	0.08
879.831	0
880.113	0.06
880.395	-0
880.677	-0
880.959	0.07
