Data from Rubpy_EV_600_EDTA_Buffered_Absorbance_12-53-43-058.txt Node
Date: Tue Jun 30 12:53:43 BST 2026
User: fpm-admin
Spectrometer: OFX00224
Trigger mode: 0
Integration Time (sec): 7.000000E-2
Scans to average: 3
Nonlinearity correction enabled: false
Boxcar width: 0
Storing dark spectrum: false
XAxis mode: Wavelengths
Number of Pixels in Spectrum: 2136
>>>>>Begin Spectral Data<<<<<
154.91	-0
155.289	0.27
155.669	0.09
156.048	0.07
156.428	-0
156.807	-0
157.186	0.12
157.566	0.82
157.945	-0
158.325	-0
158.704	-0
159.083	0.24
159.462	-0.81
159.842	-0
160.221	0.6
160.6	0.34
160.979	0.92
161.359	-0
161.738	-0
162.117	-0.32
162.496	0.12
162.875	-0
163.254	0.04
163.633	-0
164.012	-0
164.391	-0.1
164.77	-0
165.149	-0.02
165.528	0.13
165.907	-0
166.286	-0.19
166.665	-0.34
167.044	-0
167.423	-0
167.802	0.02
168.181	-0
168.559	-0.97
168.938	0.65
169.317	-0.21
169.696	-0.72
170.074	-0
170.453	-0.32
170.832	-0
171.21	-0
171.589	1.37
171.968	-0
172.346	-0
172.725	-0
173.103	-0.05
173.482	-0
173.861	0.48
174.239	-0.15
174.617	-0
174.996	-0
175.374	-0
175.753	-0.48
176.131	-0
176.51	-0.83
176.888	0.23
177.266	0.39
177.645	-0.02
178.023	-0
178.401	-0.11
178.779	-0.07
179.158	1.53
179.536	0.78
179.914	0.75
180.292	0.39
180.67	-0
181.048	-0.07
181.427	-1.08
181.805	-0
182.183	-0.6
182.561	-0
182.939	0.69
183.317	-0
183.695	0.54
184.073	-0.03
184.451	-0
184.829	-1.18
185.206	-0
185.584	-0.49
185.962	-0
186.34	0.62
186.718	-0.28
187.096	-0.05
187.473	0.29
187.851	0.3
188.229	-0.22
188.607	0.02
188.984	0.02
189.362	0.14
189.74	0.11
190.117	0.23
190.495	0.1
190.872	0.04
191.25	0.13
191.627	0.02
192.005	0.08
192.382	0.17
192.76	0.12
193.137	0.17
193.515	0.14
193.892	0.12
194.269	-0.01
194.647	0.07
195.024	0.02
195.401	0
195.779	0.1
196.156	0.05
196.533	-0.01
196.91	0.1
197.288	0.07
197.665	0.06
198.042	0.06
198.419	0.09
198.796	0.03
199.173	0.07
199.55	0.08
199.927	0.07
200.304	0.05
200.681	0.04
201.058	0.01
201.435	0.06
201.812	0.07
202.189	0.19
202.566	0.15
202.943	0.04
203.32	0.14
203.697	0.06
204.073	-0.01
204.45	0.13
204.827	0.1
205.204	0.17
205.58	0.1
205.957	0.07
206.334	0.05
206.71	0.06
207.087	0.12
207.464	0.08
207.84	0.09
208.217	0.04
208.593	0.21
208.97	0.14
209.346	0.01
209.723	0.14
210.099	0.11
210.476	0.02
210.852	0.18
211.228	0.06
211.605	0.06
211.981	0.11
212.357	-0
212.733	-0.01
213.11	0.1
213.486	0.09
213.862	-0.06
214.238	0.11
214.614	0.1
214.991	0.01
215.367	0.15
215.743	0.01
216.119	0.15
216.495	-0.08
216.871	0.06
217.247	0.12
217.623	0.02
217.999	0.12
218.375	0.04
218.751	0.07
219.127	0.12
219.502	0.03
219.878	0.08
220.254	0.02
220.63	0.13
221.006	0.01
221.381	0.1
221.757	0.11
222.133	0.05
222.508	0.06
222.884	0.05
223.26	0.06
223.635	0.03
224.011	0.07
224.386	0.02
224.762	0.05
225.137	0.02
225.513	0.04
225.888	0.11
226.264	0.12
226.639	0.12
227.014	0.12
227.39	0.04
227.765	0.1
228.14	0.04
228.516	0.05
228.891	0.1
229.266	0.19
229.641	0.12
230.017	0.09
230.392	0.14
230.767	0.1
231.142	0.03
231.517	0.06
231.892	0.11
232.267	0.12
232.642	0.06
233.017	0.11
233.392	0.02
233.767	0.14
234.142	0.04
234.517	-0
234.892	0.06
235.267	0.01
235.641	0.06
236.016	0.01
236.391	0.08
236.766	0.12
237.14	-0.04
237.515	0.11
237.89	0.13
238.264	0.07
238.639	0.12
239.014	0.02
239.388	0.07
239.763	0.12
240.137	0.08
240.512	0.12
240.886	0.03
241.261	0.09
241.635	0.03
242.009	0.1
242.384	0.03
242.758	0.09
243.132	0.12
243.507	0.16
243.881	0.07
244.255	0.05
244.629	0.09
245.004	0.07
245.378	0.05
245.752	0.08
246.126	0.06
246.5	0.07
246.874	0.06
247.248	0.12
247.622	0.03
247.996	0.11
248.37	0.23
248.744	0.04
249.118	0.05
249.492	0.02
249.866	0.04
250.24	0.05
250.613	0.1
250.987	0.09
251.361	0.1
251.735	0.07
252.108	0.06
252.482	0.14
252.856	-0.05
253.229	0.13
253.603	0.03
253.977	0.03
254.35	0
254.724	0.04
255.097	0.07
255.471	-0.01
255.844	0.04
256.218	0.1
256.591	0.04
256.964	0.04
257.338	0.01
257.711	0.1
258.084	0.01
258.458	0.11
258.831	0.12
259.204	0.08
259.577	0.11
259.95	0.1
260.323	0.01
260.697	0.1
261.07	0.09
261.443	0.08
261.816	0.1
262.189	0.08
262.562	0.09
262.935	0.09
263.308	0.05
263.68	0.01
264.053	0.08
264.426	0.09
264.799	0.05
265.172	0.04
265.545	0.05
265.917	0.08
266.29	0.12
266.663	0.08
267.035	0.16
267.408	0.04
267.781	0.04
268.153	0.06
268.526	0.05
268.898	0.07
269.271	0.04
269.643	0.06
270.016	0.06
270.388	0.05
270.76	0.09
271.133	0.04
271.505	0.09
271.877	0.08
272.25	0.02
272.622	0.13
272.994	0.08
273.366	0.17
273.739	0.1
274.111	-0.01
274.483	-0.01
274.855	0.04
275.227	0.14
275.599	0.01
275.971	0.02
276.343	0.1
276.715	0.11
277.087	0.08
277.459	0.13
277.831	0.08
278.203	0.07
278.574	0.1
278.946	0.06
279.318	0.06
279.69	0.06
280.061	0.12
280.433	0.12
280.805	0.06
281.176	0.03
281.548	-0
281.92	0.02
282.291	0.07
282.663	0.08
283.034	0.07
283.406	0.07
283.777	0.07
284.148	0.02
284.52	0.08
284.891	0.09
285.262	0.08
285.634	0.08
286.005	0.09
286.376	0.03
286.747	0.11
287.119	0.09
287.49	0.05
287.861	0.08
288.232	0.12
288.603	0.13
288.974	-0.02
289.345	0.1
289.716	0.08
290.087	0.02
290.458	0.1
290.829	0.06
291.2	-0.02
291.571	0.04
291.941	0.05
292.312	0.07
292.683	0.03
293.054	0.04
293.424	0.04
293.795	0.07
294.166	0.03
294.536	0.03
294.907	0.03
295.277	0.04
295.648	0.05
296.018	0.03
296.389	0.09
296.759	0.11
297.13	0.03
297.5	0.05
297.871	0.03
298.241	0.05
298.611	0.02
298.981	0.04
299.352	0.03
299.722	0.04
300.092	0.06
300.462	0.04
300.832	0.06
301.202	0.04
301.573	0.02
301.943	0.06
302.313	0.02
302.683	0.03
303.053	0.04
303.422	0.02
303.792	0.02
304.162	0.03
304.532	0.03
304.902	0.03
305.272	0.02
305.641	0.03
306.011	0.04
306.381	0.03
306.75	0.03
307.12	0.02
307.49	0.03
307.859	0.03
308.229	0.03
308.598	0.03
308.968	0.02
309.337	0.03
309.707	0.03
310.076	0.02
310.445	0.03
310.815	0.03
311.184	0.04
311.553	0.03
311.923	0.04
312.292	0.02
312.661	0.04
313.03	0.04
313.399	0.04
313.768	0.04
314.137	0.03
314.506	0.03
314.875	0.03
315.244	0.03
315.613	0.03
315.982	0.04
316.351	0.03
316.72	0.03
317.089	0.03
317.458	0.04
317.826	0.03
318.195	0.03
318.564	0.04
318.933	0.04
319.301	0.04
319.67	0.03
320.038	0.03
320.407	0.03
320.775	0.03
321.144	0.03
321.512	0.03
321.881	0.03
322.249	0.03
322.618	0.03
322.986	0.03
323.354	0.03
323.723	0.03
324.091	0.03
324.459	0.02
324.827	0.03
325.195	0.03
325.564	0.03
325.932	0.03
326.3	0.02
326.668	0.03
327.036	0.03
327.404	0.02
327.772	0.03
328.14	0.03
328.508	0.03
328.875	0.03
329.243	0.02
329.611	0.03
329.979	0.03
330.346	0.03
330.714	0.03
331.082	0.02
331.449	0.03
331.817	0.03
332.185	0.03
332.552	0.03
332.92	0.02
333.287	0.04
333.655	0.03
334.022	0.03
334.389	0.03
334.757	0.03
335.124	0.03
335.491	0.03
335.859	0.03
336.226	0.03
336.593	0.03
336.96	0.03
337.327	0.03
337.695	0.04
338.062	0.03
338.429	0.03
338.796	0.03
339.163	0.03
339.53	0.03
339.897	0.03
340.263	0.03
340.63	0.04
340.997	0.03
341.364	0.04
341.731	0.04
342.097	0.04
342.464	0.04
342.831	0.04
343.197	0.04
343.564	0.04
343.931	0.04
344.297	0.04
344.664	0.04
345.03	0.04
345.396	0.05
345.763	0.04
346.129	0.05
346.496	0.05
346.862	0.05
347.228	0.04
347.594	0.05
347.961	0.05
348.327	0.05
348.693	0.05
349.059	0.05
349.425	0.05
349.791	0.05
350.157	0.05
350.523	0.05
350.889	0.05
351.255	0.06
351.621	0.06
351.987	0.06
352.353	0.06
352.719	0.06
353.084	0.06
353.45	0.06
353.816	0.06
354.181	0.07
354.547	0.07
354.913	0.07
355.278	0.07
355.644	0.07
356.009	0.07
356.375	0.08
356.74	0.08
357.106	0.07
357.471	0.08
357.836	0.09
358.202	0.08
358.567	0.09
358.932	0.09
359.297	0.09
359.663	0.1
360.028	0.09
360.393	0.09
360.758	0.09
361.123	0.1
361.488	0.1
361.853	0.1
362.218	0.1
362.583	0.1
362.948	0.1
363.312	0.11
363.677	0.1
364.042	0.11
364.407	0.11
364.772	0.11
365.136	0.11
365.501	0.11
365.865	0.12
366.23	0.12
366.595	0.12
366.959	0.13
367.324	0.13
367.688	0.13
368.052	0.13
368.417	0.14
368.781	0.14
369.145	0.14
369.51	0.15
369.874	0.15
370.238	0.14
370.602	0.14
370.967	0.15
371.331	0.15
371.695	0.14
372.059	0.14
372.423	0.14
372.787	0.14
373.151	0.14
373.515	0.14
373.878	0.14
374.242	0.14
374.606	0.14
374.97	0.14
375.334	0.14
375.697	0.14
376.061	0.15
376.425	0.15
376.788	0.15
377.152	0.15
377.515	0.15
377.879	0.15
378.242	0.15
378.606	0.15
378.969	0.15
379.333	0.16
379.696	0.17
380.059	0.16
380.422	0.17
380.786	0.17
381.149	0.18
381.512	0.18
381.875	0.18
382.238	0.19
382.601	0.19
382.964	0.2
383.327	0.2
383.69	0.21
384.053	0.21
384.416	0.22
384.779	0.22
385.142	0.23
385.504	0.23
385.867	0.24
386.23	0.24
386.593	0.24
386.955	0.24
387.318	0.24
387.68	0.24
388.043	0.24
388.405	0.24
388.768	0.24
389.13	0.23
389.493	0.23
389.855	0.24
390.217	0.23
390.58	0.23
390.942	0.23
391.304	0.23
391.666	0.23
392.028	0.23
392.391	0.25
392.753	0.25
393.115	0.26
393.477	0.27
393.839	0.28
394.201	0.29
394.563	0.31
394.924	0.32
395.286	0.33
395.648	0.34
396.01	0.35
396.371	0.36
396.733	0.36
397.095	0.38
397.456	0.38
397.818	0.38
398.18	0.38
398.541	0.38
398.903	0.36
399.264	0.35
399.625	0.34
399.987	0.33
400.348	0.31
400.709	0.3
401.071	0.28
401.432	0.27
401.793	0.25
402.154	0.24
402.515	0.22
402.876	0.2
403.238	0.19
403.599	0.17
403.96	0.17
404.32	0.15
404.681	0.14
405.042	0.13
405.403	0.13
405.764	0.11
406.125	0.1
406.485	0.1
406.846	0.09
407.207	0.08
407.567	0.09
407.928	0.08
408.288	0.08
408.649	0.07
409.009	0.07
409.37	0.06
409.73	0.06
410.091	0.06
410.451	0.06
410.811	0.05
411.171	0.05
411.532	0.05
411.892	0.05
412.252	0.04
412.612	0.05
412.972	0.04
413.332	0.04
413.692	0.04
414.052	0.04
414.412	0.03
414.772	0.03
415.132	0.03
415.492	0.03
415.851	0.03
416.211	0.04
416.571	0.03
416.931	0.03
417.29	0.03
417.65	0.03
418.009	0.03
418.369	0.03
418.728	0.03
419.088	0.02
419.447	0.02
419.807	0.03
420.166	0.03
420.525	0.02
420.884	0.03
421.244	0.03
421.603	0.02
421.962	0.03
422.321	0.03
422.68	0.03
423.039	0.02
423.398	0.02
423.757	0.02
424.116	0.02
424.475	0.02
424.834	0.03
425.193	0.02
425.551	0.02
425.91	0.02
426.269	0.02
426.628	0.02
426.986	0.02
427.345	0.02
427.703	0.02
428.062	0.02
428.42	0.02
428.779	0.02
429.137	0.02
429.496	0.02
429.854	0.02
430.212	0.02
430.57	0.02
430.929	0.02
431.287	0.02
431.645	0.01
432.003	0.02
432.361	0.02
432.719	0.02
433.077	0.02
433.435	0.02
433.793	0.01
434.151	0.01
434.509	0.02
434.866	0.02
435.224	0.02
435.582	0.02
435.94	0.02
436.297	0.02
436.655	0.01
437.012	0.01
437.37	0.02
437.727	0.01
438.085	0.01
438.442	0.02
438.8	0.01
439.157	0.01
439.514	0.02
439.872	0.02
440.229	0.02
440.586	0.02
440.943	0.02
441.3	0.02
441.657	0.02
442.014	0.01
442.371	0.01
442.728	0.01
443.085	0.01
443.442	0.02
443.799	0.01
444.156	0.02
444.513	0.01
444.869	0.02
445.226	0.02
445.583	0.01
445.939	0.02
446.296	0.01
446.652	0.01
447.009	0.01
447.365	0.02
447.722	0.02
448.078	0.01
448.434	0.02
448.791	0.01
449.147	0.01
449.503	0.01
449.859	0.01
450.215	0.01
450.571	0.02
450.928	0
451.284	0.01
451.64	0.01
451.995	0.01
452.351	-0.01
452.707	0.01
453.063	0.01
453.419	0.01
453.775	0.01
454.13	0.01
454.486	0.02
454.842	-0
455.197	0.01
455.553	0.01
455.908	0
456.264	0.01
456.619	0.01
456.975	0.01
457.33	0.01
457.685	0
458.04	-0
458.396	-0.01
458.751	0
459.106	-0.01
459.461	0
459.816	-0
460.171	-0
460.526	0
460.881	-0
461.236	-0.01
461.591	-0.01
461.946	-0.01
462.301	-0.01
462.655	-0.01
463.01	-0.01
463.365	-0.01
463.719	-0.02
464.074	-0.01
464.428	-0.02
464.783	-0.01
465.137	-0.02
465.492	-0.01
465.846	-0.03
466.201	-0.02
466.555	-0.02
466.909	-0.02
467.263	-0.01
467.618	-0.02
467.972	-0.02
468.326	-0.02
468.68	-0.02
469.034	-0.02
469.388	-0.02
469.742	-0.02
470.096	-0.02
470.45	-0.02
470.804	-0.02
471.157	-0.02
471.511	-0.02
471.865	-0.02
472.218	-0.02
472.572	-0.02
472.926	-0.02
473.279	-0.02
473.633	-0.02
473.986	-0.01
474.34	-0.02
474.693	-0.01
475.046	-0.01
475.4	-0.01
475.753	-0.01
476.106	-0.01
476.459	-0
476.812	-0
477.165	-0.01
477.519	-0
477.872	0
478.224	-0
478.577	0
478.93	-0
479.283	0
479.636	0
479.989	0
480.341	-0
480.694	0.01
481.047	0
481.399	0
481.752	0.01
482.104	0.01
482.457	0
482.809	0
483.162	0
483.514	0.01
483.866	0.01
484.219	0.01
484.571	0.01
484.923	0.01
485.275	0.01
485.627	0.01
485.979	0.01
486.331	0.01
486.683	0.01
487.035	0.01
487.387	0.01
487.739	0.01
488.091	0.01
488.443	0.02
488.794	0.01
489.146	0.02
489.498	0.01
489.849	0.02
490.201	0.01
490.552	0.01
490.904	0.01
491.255	0.02
491.607	0.02
491.958	0.02
492.309	0.01
492.661	0.01
493.012	0.01
493.363	0.02
493.714	0.02
494.065	0.02
494.416	0.02
494.767	0.02
495.118	0.02
495.469	0.02
495.82	0.02
496.171	0.02
496.522	0.02
496.872	0.02
497.223	0.02
497.574	0.02
497.924	0.03
498.275	0.02
498.626	0.03
498.976	0.03
499.327	0.02
499.677	0.03
500.027	0.02
500.378	0.03
500.728	0.03
501.078	0.03
501.428	0.02
501.779	0.03
502.129	0.03
502.479	0.03
502.829	0.02
503.179	0.03
503.529	0.02
503.879	0.03
504.229	0.03
504.578	0.03
504.928	0.03
505.278	0.03
505.628	0.03
505.977	0.03
506.327	0.03
506.676	0.03
507.026	0.03
507.375	0.04
507.725	0.04
508.074	0.03
508.424	0.03
508.773	0.03
509.122	0.03
509.471	0.04
509.82	0.04
510.17	0.04
510.519	0.04
510.868	0.04
511.217	0.04
511.566	0.03
511.915	0.04
512.263	0.04
512.612	0.04
512.961	0.04
513.31	0.04
513.659	0.04
514.007	0.04
514.356	0.04
514.704	0.04
515.053	0.04
515.401	0.04
515.75	0.04
516.098	0.04
516.447	0.04
516.795	0.04
517.143	0.04
517.491	0.04
517.839	0.04
518.188	0.04
518.536	0.04
518.884	0.04
519.232	0.05
519.58	0.04
519.928	0.04
520.275	0.04
520.623	0.05
520.971	0.04
521.319	0.05
521.666	0.05
522.014	0.05
522.362	0.04
522.709	0.05
523.057	0.05
523.404	0.05
523.752	0.05
524.099	0.05
524.446	0.05
524.794	0.05
525.141	0.05
525.488	0.05
525.835	0.05
526.182	0.05
526.529	0.05
526.876	0.05
527.223	0.06
527.57	0.06
527.917	0.06
528.264	0.06
528.611	0.06
528.958	0.06
529.304	0.05
529.651	0.06
529.998	0.06
530.344	0.06
530.691	0.06
531.037	0.06
531.384	0.06
531.73	0.06
532.076	0.06
532.423	0.06
532.769	0.06
533.115	0.06
533.461	0.06
533.807	0.06
534.154	0.06
534.5	0.06
534.846	0.06
535.192	0.06
535.537	0.06
535.883	0.06
536.229	0.07
536.575	0.06
536.921	0.06
537.266	0.07
537.612	0.07
537.957	0.07
538.303	0.07
538.649	0.07
538.994	0.07
539.339	0.07
539.685	0.07
540.03	0.07
540.375	0.07
540.721	0.07
541.066	0.08
541.411	0.08
541.756	0.07
542.101	0.08
542.446	0.08
542.791	0.08
543.136	0.08
543.481	0.07
543.825	0.08
544.17	0.08
544.515	0.08
544.86	0.08
545.204	0.07
545.549	0.08
545.893	0.08
546.238	0.08
546.582	0.08
546.927	0.08
547.271	0.08
547.615	0.08
547.96	0.09
548.304	0.08
548.648	0.08
548.992	0.08
549.336	0.08
549.68	0.08
550.024	0.08
550.368	0.09
550.712	0.09
551.056	0.08
551.4	0.09
551.743	0.09
552.087	0.09
552.431	0.09
552.774	0.08
553.118	0.09
553.462	0.09
553.805	0.09
554.148	0.09
554.492	0.09
554.835	0.09
555.178	0.09
555.522	0.1
555.865	0.09
556.208	0.1
556.551	0.09
556.894	0.09
557.237	0.09
557.58	0.1
557.923	0.09
558.266	0.09
558.609	0.09
558.952	0.09
559.294	0.1
559.637	0.09
559.98	0.1
560.322	0.1
560.665	0.1
561.007	0.1
561.35	0.1
561.692	0.1
562.034	0.1
562.377	0.09
562.719	0.1
563.061	0.09
563.403	0.09
563.745	0.1
564.088	0.1
564.43	0.1
564.772	0.1
565.113	0.1
565.455	0.1
565.797	0.1
566.139	0.1
566.481	0.1
566.822	0.1
567.164	0.1
567.506	0.1
567.847	0.1
568.189	0.1
568.53	0.1
568.872	0.1
569.213	0.1
569.554	0.1
569.895	0.1
570.237	0.1
570.578	0.1
570.919	0.1
571.26	0.1
571.601	0.1
571.942	0.1
572.283	0.1
572.624	0.1
572.965	0.09
573.306	0.1
573.646	0.1
573.987	0.1
574.328	0.1
574.668	0.1
575.009	0.1
575.349	0.1
575.69	0.1
576.03	0.1
576.37	0.1
576.711	0.09
577.051	0.09
577.391	0.1
577.731	0.1
578.072	0.1
578.412	0.09
578.752	0.1
579.092	0.1
579.431	0.09
579.771	0.09
580.111	0.09
580.451	0.09
580.791	0.09
581.13	0.1
581.47	0.1
581.81	0.1
582.149	0.1
582.489	0.1
582.828	0.1
583.167	0.09
583.507	0.08
583.846	0.06
584.185	0.07
584.525	0.09
584.864	0.09
585.203	0.1
585.542	0.1
585.881	0.1
586.22	0.1
586.559	0.1
586.898	0.1
587.236	0.09
587.575	0.09
587.914	0.09
588.252	0.1
588.591	0.1
588.93	0.1
589.268	0.1
589.607	0.1
589.945	0.1
590.283	0.1
590.622	0.11
590.96	0.11
591.298	0.11
591.636	0.11
591.974	0.11
592.313	0.11
592.651	0.11
592.989	0.11
593.326	0.11
593.664	0.11
594.002	0.11
594.34	0.11
594.678	0.11
595.015	0.11
595.353	0.1
595.691	0.11
596.028	0.11
596.366	0.11
596.703	0.11
597.04	0.11
597.378	0.12
597.715	0.12
598.052	0.12
598.389	0.12
598.726	0.12
599.064	0.12
599.401	0.12
599.738	0.12
600.074	0.12
600.411	0.12
600.748	0.12
601.085	0.12
601.422	0.12
601.758	0.11
602.095	0.12
602.432	0.12
602.768	0.11
603.105	0.12
603.441	0.12
603.777	0.12
604.114	0.12
604.45	0.12
604.786	0.12
605.122	0.12
605.459	0.12
605.795	0.12
606.131	0.11
606.467	0.12
606.803	0.12
607.139	0.12
607.474	0.12
607.81	0.11
608.146	0.12
608.482	0.12
608.817	0.12
609.153	0.12
609.488	0.11
609.824	0.11
610.159	0.12
610.495	0.11
610.83	0.12
611.165	0.12
611.5	0.11
611.836	0.12
612.171	0.12
612.506	0.12
612.841	0.12
613.176	0.12
613.511	0.12
613.845	0.12
614.18	0.12
614.515	0.11
614.85	0.11
615.184	0.11
615.519	0.11
615.854	0.11
616.188	0.11
616.523	0.11
616.857	0.11
617.191	0.11
617.526	0.11
617.86	0.11
618.194	0.11
618.528	0.11
618.862	0.11
619.196	0.12
619.53	0.11
619.864	0.11
620.198	0.11
620.532	0.11
620.866	0.11
621.2	0.11
621.533	0.11
621.867	0.12
622.201	0.11
622.534	0.11
622.868	0.11
623.201	0.12
623.534	0.11
623.868	0.11
624.201	0.11
624.534	0.11
624.868	0.11
625.201	0.11
625.534	0.11
625.867	0.11
626.2	0.11
626.533	0.11
626.865	0.11
627.198	0.11
627.531	0.11
627.864	0.1
628.196	0.11
628.529	0.11
628.862	0.11
629.194	0.11
629.527	0.11
629.859	0.11
630.191	0.1
630.524	0.1
630.856	0.1
631.188	0.1
631.52	0.1
631.852	0.1
632.184	0.1
632.516	0.1
632.848	0.1
633.18	0.1
633.512	0.09
633.844	0.09
634.175	0.09
634.507	0.09
634.839	0.09
635.17	0.09
635.502	0.09
635.833	0.09
636.165	0.09
636.496	0.09
636.827	0.09
637.159	0.1
637.49	0.1
637.821	0.09
638.152	0.09
638.483	0.09
638.814	0.09
639.145	0.09
639.476	0.09
639.807	0.09
640.137	0.09
640.468	0.09
640.799	0.08
641.129	0.09
641.46	0.09
641.791	0.09
642.121	0.09
642.451	0.09
642.782	0.08
643.112	0.08
643.442	0.08
643.773	0.09
644.103	0.08
644.433	0.08
644.763	0.08
645.093	0.08
645.423	0.08
645.753	0.08
646.082	0.08
646.412	0.08
646.742	0.08
647.072	0.08
647.401	0.08
647.731	0.08
648.06	0.08
648.39	0.08
648.719	0.08
649.048	0.08
649.378	0.08
649.707	0.07
650.036	0.08
650.365	0.08
650.694	0.07
651.023	0.07
651.352	0.08
651.681	0.08
652.01	0.08
652.339	0.08
652.668	0.08
652.996	0.08
653.325	0.08
653.654	0.08
653.982	0.08
654.311	0.08
654.639	0.08
654.967	0.08
655.296	0.08
655.624	0.08
655.952	0.07
656.28	0.07
656.609	0.07
656.937	0.08
657.265	0.07
657.593	0.05
657.92	0
658.248	-0
658.576	0
658.904	0
659.231	0.03
659.559	0.06
659.887	0.07
660.214	0.07
660.542	0.07
660.869	0.07
661.196	0.07
661.524	0.07
661.851	0.07
662.178	0.07
662.505	0.07
662.832	0.07
663.159	0.07
663.486	0.07
663.813	0.07
664.14	0.08
664.467	0.08
664.794	0.08
665.12	0.07
665.447	0.07
665.774	0.07
666.1	0.07
666.427	0.07
666.753	0.07
667.079	0.07
667.406	0.07
667.732	0.07
668.058	0.07
668.384	0.07
668.71	0.07
669.036	0.07
669.362	0.07
669.688	0.07
670.014	0.07
670.34	0.07
670.666	0.07
670.991	0.07
671.317	0.07
671.643	0.07
671.968	0.07
672.294	0.07
672.619	0.07
672.945	0.07
673.27	0.07
673.595	0.06
673.92	0.06
674.246	0.06
674.571	0.06
674.896	0.07
675.221	0.07
675.546	0.07
675.87	0.07
676.195	0.07
676.52	0.07
676.845	0.07
677.169	0.07
677.494	0.07
677.819	0.07
678.143	0.07
678.468	0.06
678.792	0.06
679.116	0.06
679.44	0.06
679.765	0.06
680.089	0.06
680.413	0.06
680.737	0.06
681.061	0.06
681.385	0.06
681.709	0.05
682.033	0.06
682.356	0.05
682.68	0.05
683.004	0.05
683.327	0.06
683.651	0.05
683.974	0.05
684.298	0.05
684.621	0.06
684.944	0.05
685.268	0.06
685.591	0.05
685.914	0.05
686.237	0.05
686.56	0.05
686.883	0.05
687.206	0.05
687.529	0.05
687.852	0.05
688.175	0.05
688.497	0.05
688.82	0.05
689.142	0.05
689.465	0.05
689.787	0.05
690.11	0.05
690.432	0.04
690.755	0.05
691.077	0.04
691.399	0.05
691.721	0.04
692.043	0.05
692.365	0.04
692.687	0.05
693.009	0.05
693.331	0.04
693.653	0.04
693.974	0.04
694.296	0.04
694.618	0.04
694.939	0.04
695.261	0.04
695.582	0.04
695.904	0.04
696.225	0.04
696.546	0.04
696.868	0.04
697.189	0.04
697.51	0.04
697.831	0.04
698.152	0.04
698.473	0.04
698.794	0.04
699.114	0.03
699.435	0.04
699.756	0.03
700.077	0.04
700.397	0.04
700.718	0.04
701.038	0.04
701.359	0.04
701.679	0.05
701.999	0.05
702.32	0.04
702.64	0.04
702.96	0.04
703.28	0.04
703.6	0.03
703.92	0.03
704.24	0.03
704.56	0.03
704.879	0.03
705.199	0.03
705.519	0.03
705.838	0.03
706.158	0.03
706.478	0.03
706.797	0.04
707.116	0.04
707.436	0.03
707.755	0.04
708.074	0.03
708.393	0.03
708.712	0.03
709.031	0.03
709.35	0.03
709.669	0.03
709.988	0.03
710.307	0.03
710.626	0.03
710.944	0.03
711.263	0.03
711.582	0.03
711.9	0.03
712.219	0.03
712.537	0.03
712.855	0.03
713.174	0.03
713.492	0.03
713.81	0.03
714.128	0.03
714.446	0.03
714.764	0.03
715.082	0.03
715.4	0.03
715.718	0.03
716.035	0.03
716.353	0.03
716.671	0.03
716.988	0.03
717.306	0.03
717.623	0.03
717.941	0.04
718.258	0.03
718.575	0.04
718.893	0.04
719.21	0.03
719.527	0.03
719.844	0.04
720.161	0.04
720.478	0.04
720.795	0.04
721.112	0.04
721.428	0.04
721.745	0.04
722.062	0.04
722.378	0.04
722.695	0.04
723.011	0.04
723.328	0.04
723.644	0.04
723.96	0.04
724.276	0.04
724.593	0.04
724.909	0.04
725.225	0.04
725.541	0.04
725.857	0.04
726.173	0.04
726.488	0.04
726.804	0.04
727.12	0.03
727.435	0.04
727.751	0.04
728.067	0.04
728.382	0.04
728.697	0.04
729.013	0.04
729.328	0.04
729.643	0.04
729.958	0.04
730.273	0.04
730.588	0.04
730.903	0.04
731.218	0.04
731.533	0.03
731.848	0.04
732.163	0.03
732.477	0.03
732.792	0.03
733.107	0.03
733.421	0.03
733.736	0.03
734.05	0.03
734.364	0.03
734.678	0.04
734.993	0.04
735.307	0.04
735.621	0.03
735.935	0.04
736.249	0.03
736.563	0.04
736.877	0.04
737.19	0.04
737.504	0.04
737.818	0.04
738.131	0.04
738.445	0.03
738.758	0.03
739.072	0.03
739.385	0.03
739.698	0.03
740.012	0.03
740.325	0.03
740.638	0.03
740.951	0.03
741.264	0.03
741.577	0.03
741.89	0.03
742.203	0.03
742.515	0.04
742.828	0.04
743.141	0.03
743.453	0.03
743.766	0.03
744.078	0.03
744.391	0.03
744.703	0.03
745.015	0.03
745.327	0.03
745.639	0.03
745.952	0.03
746.264	0.03
746.575	0.03
746.887	0.03
747.199	0.03
747.511	0.03
747.823	0.03
748.134	0.03
748.446	0.03
748.757	0.03
749.069	0.03
749.38	0.04
749.692	0.04
750.003	0.03
750.314	0.03
750.625	0.04
750.936	0.04
751.248	0.04
751.559	0.04
751.869	0.04
752.18	0.04
752.491	0.04
752.802	0.04
753.112	0.03
753.423	0.03
753.734	0.03
754.044	0.03
754.355	0.02
754.665	0.02
754.975	0.02
755.285	0.02
755.596	0.02
755.906	0.02
756.216	0.02
756.526	0.02
756.836	0.03
757.146	0.03
757.455	0.03
757.765	0.02
758.075	0.02
758.385	0.02
758.694	0.02
759.004	0.02
759.313	0.02
759.622	0.02
759.932	0.03
760.241	0.03
760.55	0.03
760.859	0.03
761.168	0.03
761.477	0.03
761.786	0.02
762.095	0.03
762.404	0.03
762.713	0.02
763.021	0.02
763.33	0.02
763.639	0.02
763.947	0.02
764.256	0.02
764.564	0.03
764.872	0.02
765.181	0.02
765.489	0.02
765.797	0.02
766.105	0.02
766.413	0.03
766.721	0.02
767.029	0.03
767.337	0.02
767.644	0.03
767.952	0.03
768.26	0.03
768.567	0.03
768.875	0.03
769.182	0.03
769.49	0.03
769.797	0.02
770.104	0.02
770.411	0.02
770.718	0.02
771.026	0.02
771.333	0.02
771.639	0.02
771.946	0.02
772.253	0.02
772.56	0.02
772.867	0.02
773.173	0.02
773.48	0.02
773.786	0.02
774.093	0.02
774.399	0.02
774.705	0.02
775.012	0.02
775.318	0.02
775.624	0.02
775.93	0.02
776.236	0.02
776.542	0.02
776.848	0.03
777.154	0.03
777.459	0.03
777.765	0.02
778.071	0.02
778.376	0.03
778.682	0.03
778.987	0.03
779.292	0.03
779.598	0.03
779.903	0.02
780.208	0.02
780.513	0.02
780.818	0.03
781.123	0.02
781.428	0.02
781.733	0.02
782.038	0.02
782.343	0.03
782.647	0.03
782.952	0.03
783.256	0.03
783.561	0.03
783.865	0.03
784.17	0.03
784.474	0.02
784.778	0.02
785.082	0.02
785.386	0.03
785.69	0.02
785.994	0.03
786.298	0.03
786.602	0.03
786.906	0.02
787.209	0.02
787.513	0.02
787.817	0.02
788.12	0.02
788.424	0.02
788.727	0.02
789.03	0.03
789.333	0.03
789.637	0.03
789.94	0.03
790.243	0.03
790.546	0.03
790.849	0.02
791.152	0.02
791.454	0.02
791.757	0.02
792.06	0.02
792.362	0.02
792.665	0.03
792.967	0.03
793.27	0.02
793.572	0.02
793.874	0.03
794.177	0.02
794.479	0.03
794.781	0.03
795.083	0.03
795.385	0.03
795.687	0.02
795.989	0.03
796.29	0.02
796.592	0.03
796.894	0.03
797.195	0.03
797.497	0.03
797.798	0.03
798.1	0.03
798.401	0.03
798.702	0.03
799.003	0.03
799.304	0.03
799.605	0.03
799.906	0.03
800.207	0.02
800.508	0.03
800.809	0.03
801.11	0.03
801.41	0.03
801.711	0.03
802.011	0.03
802.312	0.03
802.612	0.03
802.913	0.03
803.213	0.03
803.513	0.03
803.813	0.04
804.113	0.03
804.413	0.03
804.713	0.03
805.013	0.03
805.313	0.03
805.613	0.03
805.912	0.03
806.212	0.03
806.511	0.03
806.811	0.03
807.11	0.03
807.41	0.03
807.709	0.03
808.008	0.02
808.307	0.03
808.606	0.02
808.905	0.03
809.204	0.03
809.503	0.03
809.802	0.03
810.101	0.04
810.399	0.04
810.698	0.04
810.997	0.04
811.295	0.04
811.593	0.04
811.892	0.04
812.19	0.04
812.488	0.03
812.786	0.04
813.084	0.04
813.383	0.03
813.68	0.03
813.978	0.04
814.276	0.04
814.574	0.04
814.872	0.04
815.169	0.04
815.467	0.03
815.764	0.03
816.062	0.04
816.359	0.03
816.656	0.03
816.954	0.03
817.251	0.03
817.548	0.03
817.845	0.04
818.142	0.04
818.439	0.03
818.735	0.03
819.032	0.03
819.329	0.04
819.626	0.04
819.922	0.04
820.219	0.04
820.515	0.04
820.811	0.04
821.108	0.04
821.404	0.03
821.7	0.03
821.996	0.03
822.292	0.03
822.588	0.04
822.884	0.04
823.18	0.03
823.475	0.03
823.771	0.03
824.067	0.03
824.362	0.03
824.658	0.04
824.953	0.03
825.249	0.03
825.544	0.03
825.839	0.04
826.134	0.04
826.429	0.03
826.724	0.04
827.019	0.04
827.314	0.04
827.609	0.04
827.904	0.04
828.198	0.04
828.493	0.04
828.787	0.04
829.082	0.03
829.376	0.04
829.671	0.03
829.965	0.04
830.259	0.04
830.553	0.04
830.847	0.03
831.141	0.04
831.435	0.04
831.729	0.04
832.023	0.04
832.317	0.04
832.61	0.04
832.904	0.04
833.197	0.04
833.491	0.04
833.784	0.05
834.077	0.05
834.371	0.05
834.664	0.04
834.957	0.04
835.25	0.04
835.543	0.04
835.836	0.04
836.129	0.04
836.421	0.03
836.714	0.04
837.007	0.04
837.299	0.04
837.592	0.04
837.884	0.05
838.177	0.04
838.469	0.03
838.761	0.04
839.053	0.04
839.345	0.04
839.637	0.03
839.929	0.03
840.221	0.03
840.513	0.04
840.805	0.03
841.096	0.04
841.388	0.04
841.68	0.04
841.971	0.04
842.262	0.03
842.554	0.03
842.845	0.03
843.136	0.02
843.427	0.03
843.718	0.03
844.009	0.04
844.3	0.03
844.591	0.04
844.882	0.04
845.173	0.03
845.463	0.03
845.754	0.05
846.044	0.04
846.335	0.04
846.625	0.04
846.915	0.04
847.206	0.03
847.496	0.03
847.786	0.04
848.076	0.04
848.366	0.05
848.656	0.04
848.945	0.04
849.235	0.04
849.525	0.04
849.814	0.05
850.104	0.04
850.393	0.04
850.683	0.05
850.972	0.04
851.261	0.03
851.551	0.04
851.84	0.05
852.129	0.04
852.418	0.05
852.707	0.04
852.995	0.05
853.284	0.05
853.573	0.06
853.862	0.05
854.15	0.05
854.439	0.03
854.727	0.05
855.015	0.05
855.304	0.03
855.592	0.03
855.88	0.03
856.168	0.04
856.456	0.03
856.744	0.04
857.032	0.04
857.32	0.06
857.607	0.05
857.895	0.03
858.183	0.05
858.47	0.04
858.757	0.04
859.045	0.05
859.332	0.04
859.619	0.02
859.907	0.03
860.194	0.04
860.481	0.03
860.768	0.03
861.054	0.03
861.341	0.05
861.628	0.06
861.915	0.04
862.201	0.04
862.488	0.03
862.774	0.03
863.061	0.03
863.347	0.03
863.633	0.06
863.919	0.02
864.205	0.04
864.491	0.04
864.777	0.03
865.063	0.04
865.349	0.04
865.635	0.01
865.92	0.01
866.206	0.04
866.492	0.04
866.777	0.04
867.062	0.04
867.348	0.02
867.633	0.04
867.918	0.05
868.203	0.04
868.488	0.01
868.773	0.02
869.058	0.02
869.343	0.01
869.628	0.03
869.912	0.03
870.197	0.01
870.482	0.01
870.766	0.07
871.05	0.05
871.335	0
871.619	0.03
871.903	-0
872.187	0.06
872.471	-0.01
872.755	0.03
873.039	0.05
873.323	0.06
873.607	0.03
873.89	0.03
874.174	0.02
874.458	0.02
874.741	0.04
875.024	-0.03
875.308	0.01
875.591	-0.02
875.874	-0.02
876.157	-0.03
876.44	0.08
876.723	0.03
877.006	0.02
877.289	0
877.572	0.05
877.854	0.02
878.137	-0.03
878.42	-0
878.702	-0.01
878.984	0.04
879.267	0
879.549	0.04
879.831	-0.02
880.113	0.03
880.395	0
880.677	0.04
880.959	0.03
