Data from Rubpy_EV_600_EDTA_Buffered_Absorbance_13-19-20-105.txt Node
Date: Tue Jun 30 13:19:20 BST 2026
User: fpm-admin
Spectrometer: OFX00224
Trigger mode: 0
Integration Time (sec): 7.000000E-2
Scans to average: 3
Nonlinearity correction enabled: false
Boxcar width: 0
Storing dark spectrum: false
XAxis mode: Wavelengths
Number of Pixels in Spectrum: 2136
>>>>>Begin Spectral Data<<<<<
154.91	-0
155.289	0.23
155.669	0.13
156.048	-0
156.428	0.64
156.807	-0.96
157.186	-0
157.566	0.6
157.945	0.25
158.325	0.12
158.704	0.2
159.083	-0.54
159.462	-0
159.842	-0.53
160.221	0.73
160.6	-0.15
160.979	-0.05
161.359	0.54
161.738	0.15
162.117	-0
162.496	-0.45
162.875	0.71
163.254	0.3
163.633	-0
164.012	-0
164.391	-0.14
164.77	-0
165.149	-0.09
165.528	-0
165.907	-0.7
166.286	-0
166.665	-0
167.044	-0
167.423	0.09
167.802	0.68
168.181	0.18
168.559	-0
168.938	0.65
169.317	-0.04
169.696	-0.43
170.074	0.32
170.453	-0.18
170.832	-0.24
171.21	0.41
171.589	0.21
171.968	-0
172.346	0.29
172.725	-0.08
173.103	-0.46
173.482	-0.22
173.861	0.03
174.239	-0.18
174.617	-0
174.996	-0
175.374	-0
175.753	-0.48
176.131	-0
176.51	-0.07
176.888	-0
177.266	-0
177.645	0.09
178.023	-0
178.401	-0.35
178.779	0.06
179.158	0.15
179.536	0.78
179.914	0.16
180.292	0.65
180.67	-0
181.048	-0
181.427	-1.15
181.805	0.36
182.183	-0.12
182.561	-0
182.939	0.08
183.317	0.07
183.695	0.27
184.073	0.7
184.451	-0
184.829	-0.7
185.206	0.16
185.584	0.63
185.962	-0
186.34	-0
186.718	0.74
187.096	-0.02
187.473	0.48
187.851	-0.07
188.229	0.23
188.607	0.08
188.984	0.1
189.362	0.2
189.74	0.17
190.117	0.14
190.495	0.21
190.872	0.09
191.25	0.11
191.627	0.14
192.005	0.2
192.382	0.25
192.76	0.36
193.137	0.25
193.515	0.36
193.892	0.25
194.269	0.1
194.647	0.26
195.024	0.12
195.401	0.16
195.779	0.19
196.156	0.17
196.533	0.23
196.91	0.2
197.288	0.15
197.665	0.1
198.042	0.11
198.419	0.17
198.796	0.16
199.173	0.19
199.55	0.1
199.927	0.1
200.304	0.11
200.681	0.18
201.058	0.19
201.435	0.12
201.812	0.18
202.189	0.17
202.566	0.17
202.943	0.16
203.32	0.16
203.697	0.22
204.073	0.12
204.45	0.14
204.827	0.21
205.204	0.26
205.58	0.14
205.957	0.17
206.334	0.11
206.71	0.2
207.087	0.27
207.464	0.07
207.84	0.17
208.217	0.11
208.593	0.23
208.97	0.16
209.346	0.12
209.723	0.17
210.099	0.26
210.476	0.28
210.852	0.18
211.228	0.23
211.605	0.18
211.981	0.21
212.357	0.04
212.733	0.2
213.11	0.18
213.486	0.19
213.862	0.05
214.238	0.31
214.614	0.23
214.991	0.14
215.367	0.3
215.743	0.18
216.119	0.15
216.495	0.18
216.871	0.14
217.247	0.16
217.623	0.12
217.999	0.18
218.375	0.21
218.751	0.15
219.127	0.22
219.502	0.18
219.878	0.24
220.254	0.14
220.63	0.24
221.006	0.2
221.381	0.12
221.757	0.13
222.133	0.29
222.508	0.14
222.884	0.17
223.26	0.25
223.635	0.17
224.011	0.1
224.386	0.24
224.762	0.14
225.137	0.19
225.513	0.25
225.888	0.13
226.264	0.25
226.639	0.21
227.014	0.26
227.39	0.2
227.765	0.23
228.14	0.19
228.516	0.27
228.891	0.09
229.266	0.35
229.641	0.35
230.017	0.19
230.392	0.36
230.767	0.23
231.142	0.18
231.517	0.15
231.892	0.22
232.267	0.2
232.642	0.2
233.017	0.15
233.392	0.28
233.767	0.19
234.142	0.18
234.517	0.13
234.892	0.29
235.267	0.12
235.641	0.17
236.016	0.18
236.391	0.21
236.766	0.14
237.14	0.26
237.515	0.23
237.89	0.24
238.264	0.19
238.639	0.13
239.014	0.17
239.388	0.15
239.763	0.21
240.137	0.11
240.512	0.3
240.886	0.14
241.261	0.23
241.635	0.15
242.009	0.22
242.384	0.11
242.758	0.19
243.132	0.25
243.507	0.22
243.881	0.3
244.255	0.12
244.629	0.31
245.004	0.14
245.378	0.15
245.752	0.2
246.126	0.27
246.5	0.11
246.874	0.16
247.248	0.26
247.622	0.12
247.996	0.2
248.37	0.28
248.744	0.14
249.118	0.11
249.492	0.25
249.866	0.17
250.24	0.15
250.613	0.12
250.987	0.2
251.361	0.24
251.735	0.19
252.108	0.23
252.482	0.19
252.856	0.1
253.229	0.12
253.603	0.21
253.977	0.19
254.35	0.12
254.724	0.18
255.097	0.22
255.471	0.1
255.844	0.2
256.218	0.2
256.591	0.17
256.964	0.13
257.338	0.16
257.711	0.19
258.084	0.21
258.458	0.19
258.831	0.29
259.204	0.26
259.577	0.2
259.95	0.22
260.323	0.16
260.697	0.16
261.07	0.23
261.443	0.18
261.816	0.17
262.189	0.21
262.562	0.21
262.935	0.18
263.308	0.12
263.68	0.2
264.053	0.18
264.426	0.15
264.799	0.14
265.172	0.21
265.545	0.24
265.917	0.26
266.29	0.23
266.663	0.21
267.035	0.19
267.408	0.15
267.781	0.15
268.153	0.2
268.526	0.24
268.898	0.24
269.271	0.21
269.643	0.23
270.016	0.24
270.388	0.24
270.76	0.18
271.133	0.23
271.505	0.2
271.877	0.17
272.25	0.14
272.622	0.17
272.994	0.2
273.366	0.25
273.739	0.23
274.111	0.13
274.483	0.13
274.855	0.25
275.227	0.2
275.599	0.1
275.971	0.17
276.343	0.2
276.715	0.19
277.087	0.27
277.459	0.17
277.831	0.14
278.203	0.24
278.574	0.18
278.946	0.26
279.318	0.2
279.69	0.32
280.061	0.2
280.433	0.27
280.805	0.27
281.176	0.11
281.548	0.2
281.92	0.18
282.291	0.21
282.663	0.19
283.034	0.17
283.406	0.29
283.777	0.16
284.148	0.2
284.52	0.15
284.891	0.23
285.262	0.21
285.634	0.22
286.005	0.14
286.376	0.17
286.747	0.26
287.119	0.26
287.49	0.18
287.861	0.22
288.232	0.21
288.603	0.18
288.974	0.08
289.345	0.18
289.716	0.16
290.087	0.11
290.458	0.19
290.829	0.1
291.2	0.18
291.571	0.18
291.941	0.19
292.312	0.24
292.683	0.19
293.054	0.17
293.424	0.14
293.795	0.17
294.166	0.24
294.536	0.15
294.907	0.18
295.277	0.18
295.648	0.16
296.018	0.15
296.389	0.19
296.759	0.16
297.13	0.15
297.5	0.2
297.871	0.13
298.241	0.18
298.611	0.15
298.981	0.18
299.352	0.16
299.722	0.15
300.092	0.17
300.462	0.15
300.832	0.14
301.202	0.14
301.573	0.12
301.943	0.17
302.313	0.14
302.683	0.13
303.053	0.13
303.422	0.13
303.792	0.14
304.162	0.14
304.532	0.14
304.902	0.14
305.272	0.14
305.641	0.16
306.011	0.16
306.381	0.15
306.75	0.15
307.12	0.16
307.49	0.15
307.859	0.17
308.229	0.16
308.598	0.15
308.968	0.17
309.337	0.16
309.707	0.17
310.076	0.18
310.445	0.16
310.815	0.17
311.184	0.18
311.553	0.18
311.923	0.17
312.292	0.18
312.661	0.18
313.03	0.18
313.399	0.19
313.768	0.18
314.137	0.18
314.506	0.18
314.875	0.18
315.244	0.18
315.613	0.18
315.982	0.19
316.351	0.18
316.72	0.18
317.089	0.17
317.458	0.18
317.826	0.18
318.195	0.18
318.564	0.17
318.933	0.17
319.301	0.17
319.67	0.17
320.038	0.17
320.407	0.16
320.775	0.16
321.144	0.16
321.512	0.16
321.881	0.16
322.249	0.16
322.618	0.15
322.986	0.16
323.354	0.16
323.723	0.15
324.091	0.16
324.459	0.15
324.827	0.15
325.195	0.15
325.564	0.15
325.932	0.15
326.3	0.15
326.668	0.15
327.036	0.15
327.404	0.14
327.772	0.15
328.14	0.15
328.508	0.15
328.875	0.15
329.243	0.15
329.611	0.15
329.979	0.15
330.346	0.14
330.714	0.15
331.082	0.14
331.449	0.15
331.817	0.15
332.185	0.15
332.552	0.15
332.92	0.15
333.287	0.16
333.655	0.16
334.022	0.16
334.389	0.16
334.757	0.16
335.124	0.16
335.491	0.17
335.859	0.17
336.226	0.17
336.593	0.17
336.96	0.18
337.327	0.17
337.695	0.18
338.062	0.18
338.429	0.18
338.796	0.18
339.163	0.19
339.53	0.19
339.897	0.19
340.263	0.2
340.63	0.2
340.997	0.2
341.364	0.21
341.731	0.21
342.097	0.21
342.464	0.22
342.831	0.22
343.197	0.22
343.564	0.23
343.931	0.23
344.297	0.24
344.664	0.24
345.03	0.24
345.396	0.25
345.763	0.24
346.129	0.26
346.496	0.26
346.862	0.26
347.228	0.26
347.594	0.26
347.961	0.27
348.327	0.27
348.693	0.27
349.059	0.28
349.425	0.29
349.791	0.29
350.157	0.29
350.523	0.3
350.889	0.31
351.255	0.32
351.621	0.32
351.987	0.33
352.353	0.33
352.719	0.34
353.084	0.34
353.45	0.35
353.816	0.36
354.181	0.37
354.547	0.38
354.913	0.38
355.278	0.38
355.644	0.4
356.009	0.4
356.375	0.41
356.74	0.42
357.106	0.43
357.471	0.45
357.836	0.45
358.202	0.46
358.567	0.47
358.932	0.47
359.297	0.48
359.663	0.49
360.028	0.51
360.393	0.5
360.758	0.51
361.123	0.52
361.488	0.53
361.853	0.53
362.218	0.53
362.583	0.54
362.948	0.55
363.312	0.55
363.677	0.56
364.042	0.57
364.407	0.58
364.772	0.6
365.136	0.6
365.501	0.61
365.865	0.62
366.23	0.64
366.595	0.65
366.959	0.67
367.324	0.67
367.688	0.69
368.052	0.71
368.417	0.72
368.781	0.73
369.145	0.74
369.51	0.74
369.874	0.75
370.238	0.74
370.602	0.75
370.967	0.75
371.331	0.74
371.695	0.75
372.059	0.74
372.423	0.74
372.787	0.73
373.151	0.73
373.515	0.72
373.878	0.73
374.242	0.73
374.606	0.73
374.97	0.73
375.334	0.73
375.697	0.73
376.061	0.73
376.425	0.74
376.788	0.74
377.152	0.75
377.515	0.75
377.879	0.76
378.242	0.77
378.606	0.77
378.969	0.78
379.333	0.8
379.696	0.8
380.059	0.82
380.422	0.84
380.786	0.85
381.149	0.87
381.512	0.88
381.875	0.89
382.238	0.92
382.601	0.94
382.964	0.96
383.327	0.99
383.69	1.01
384.053	1.03
384.416	1.06
384.779	1.08
385.142	1.11
385.504	1.13
385.867	1.15
386.23	1.15
386.593	1.17
386.955	1.17
387.318	1.17
387.68	1.17
388.043	1.16
388.405	1.15
388.768	1.14
389.13	1.15
389.493	1.14
389.855	1.12
390.217	1.12
390.58	1.11
390.942	1.12
391.304	1.13
391.666	1.14
392.028	1.16
392.391	1.17
392.753	1.21
393.115	1.23
393.477	1.28
393.839	1.33
394.201	1.38
394.563	1.42
394.924	1.46
395.286	1.54
395.648	1.57
396.01	1.59
396.371	1.63
396.733	1.67
397.095	1.69
397.456	1.7
397.818	1.69
398.18	1.7
398.541	1.67
398.903	1.63
399.264	1.59
399.625	1.56
399.987	1.51
400.348	1.47
400.709	1.41
401.071	1.33
401.432	1.26
401.793	1.2
402.154	1.12
402.515	1.04
402.876	0.97
403.238	0.91
403.599	0.85
403.96	0.79
404.32	0.73
404.681	0.67
405.042	0.63
405.403	0.58
405.764	0.54
406.125	0.51
406.485	0.48
406.846	0.45
407.207	0.41
407.567	0.39
407.928	0.37
408.288	0.35
408.649	0.33
409.009	0.31
409.37	0.3
409.73	0.28
410.091	0.27
410.451	0.25
410.811	0.25
411.171	0.23
411.532	0.22
411.892	0.21
412.252	0.2
412.612	0.2
412.972	0.19
413.332	0.18
413.692	0.18
414.052	0.17
414.412	0.16
414.772	0.16
415.132	0.15
415.492	0.15
415.851	0.15
416.211	0.14
416.571	0.14
416.931	0.13
417.29	0.14
417.65	0.12
418.009	0.13
418.369	0.12
418.728	0.12
419.088	0.12
419.447	0.11
419.807	0.11
420.166	0.11
420.525	0.11
420.884	0.11
421.244	0.1
421.603	0.1
421.962	0.1
422.321	0.1
422.68	0.1
423.039	0.09
423.398	0.1
423.757	0.1
424.116	0.1
424.475	0.09
424.834	0.09
425.193	0.09
425.551	0.09
425.91	0.09
426.269	0.09
426.628	0.08
426.986	0.08
427.345	0.08
427.703	0.08
428.062	0.07
428.42	0.08
428.779	0.08
429.137	0.08
429.496	0.08
429.854	0.08
430.212	0.08
430.57	0.07
430.929	0.08
431.287	0.08
431.645	0.06
432.003	0.08
432.361	0.07
432.719	0.06
433.077	0.07
433.435	0.07
433.793	0.07
434.151	0.07
434.509	0.06
434.866	0.07
435.224	0.07
435.582	0.07
435.94	0.06
436.297	0.06
436.655	0.06
437.012	0.06
437.37	0.07
437.727	0.06
438.085	0.06
438.442	0.06
438.8	0.06
439.157	0.06
439.514	0.06
439.872	0.07
440.229	0.06
440.586	0.06
440.943	0.06
441.3	0.06
441.657	0.05
442.014	0.05
442.371	0.06
442.728	0.05
443.085	0.06
443.442	0.06
443.799	0.05
444.156	0.05
444.513	0.05
444.869	0.07
445.226	0.05
445.583	0.06
445.939	0.05
446.296	0.05
446.652	0.05
447.009	0.05
447.365	0.05
447.722	0.06
448.078	0.05
448.434	0.05
448.791	0.05
449.147	0.05
449.503	0.05
449.859	0.05
450.215	0.04
450.571	0.05
450.928	0.05
451.284	0.05
451.64	0.04
451.995	0.05
452.351	0.04
452.707	0.04
453.063	0.04
453.419	0.04
453.775	0.03
454.13	0.05
454.486	0.05
454.842	0.04
455.197	0.04
455.553	0.04
455.908	0.04
456.264	0.04
456.619	0.04
456.975	0.04
457.33	0.03
457.685	0.03
458.04	0.03
458.396	0.03
458.751	0.03
459.106	0.03
459.461	0.03
459.816	0.03
460.171	0.03
460.526	0.03
460.881	0.03
461.236	0.02
461.591	0.02
461.946	0.02
462.301	0.03
462.655	0.02
463.01	0.02
463.365	0.02
463.719	0.02
464.074	0.02
464.428	0.02
464.783	0.02
465.137	0.01
465.492	0.01
465.846	0.01
466.201	0.02
466.555	0.02
466.909	0.01
467.263	0.02
467.618	0.02
467.972	0.02
468.326	0.01
468.68	0.01
469.034	0.02
469.388	0.02
469.742	0.01
470.096	0.02
470.45	0.02
470.804	0.01
471.157	0.02
471.511	0.02
471.865	0.02
472.218	0.02
472.572	0.02
472.926	0.02
473.279	0.02
473.633	0.03
473.986	0.03
474.34	0.03
474.693	0.04
475.046	0.03
475.4	0.03
475.753	0.03
476.106	0.04
476.459	0.04
476.812	0.04
477.165	0.05
477.519	0.04
477.872	0.04
478.224	0.05
478.577	0.05
478.93	0.05
479.283	0.05
479.636	0.05
479.989	0.06
480.341	0.06
480.694	0.06
481.047	0.06
481.399	0.06
481.752	0.07
482.104	0.06
482.457	0.06
482.809	0.06
483.162	0.07
483.514	0.07
483.866	0.06
484.219	0.07
484.571	0.07
484.923	0.07
485.275	0.07
485.627	0.07
485.979	0.08
486.331	0.07
486.683	0.08
487.035	0.07
487.387	0.09
487.739	0.08
488.091	0.08
488.443	0.08
488.794	0.08
489.146	0.09
489.498	0.08
489.849	0.08
490.201	0.08
490.552	0.09
490.904	0.09
491.255	0.09
491.607	0.09
491.958	0.1
492.309	0.09
492.661	0.09
493.012	0.09
493.363	0.1
493.714	0.09
494.065	0.1
494.416	0.1
494.767	0.1
495.118	0.11
495.469	0.11
495.82	0.11
496.171	0.11
496.522	0.11
496.872	0.11
497.223	0.11
497.574	0.11
497.924	0.12
498.275	0.11
498.626	0.12
498.976	0.12
499.327	0.12
499.677	0.12
500.027	0.12
500.378	0.12
500.728	0.12
501.078	0.13
501.428	0.13
501.779	0.13
502.129	0.14
502.479	0.13
502.829	0.13
503.179	0.14
503.529	0.13
503.879	0.14
504.229	0.14
504.578	0.14
504.928	0.14
505.278	0.14
505.628	0.15
505.977	0.15
506.327	0.15
506.676	0.16
507.026	0.15
507.375	0.16
507.725	0.16
508.074	0.15
508.424	0.16
508.773	0.16
509.122	0.16
509.471	0.16
509.82	0.17
510.17	0.17
510.519	0.17
510.868	0.17
511.217	0.17
511.566	0.16
511.915	0.17
512.263	0.18
512.612	0.17
512.961	0.18
513.31	0.18
513.659	0.18
514.007	0.18
514.356	0.19
514.704	0.18
515.053	0.19
515.401	0.19
515.75	0.19
516.098	0.19
516.447	0.2
516.795	0.19
517.143	0.2
517.491	0.2
517.839	0.2
518.188	0.2
518.536	0.21
518.884	0.2
519.232	0.21
519.58	0.21
519.928	0.21
520.275	0.21
520.623	0.21
520.971	0.21
521.319	0.22
521.666	0.22
522.014	0.22
522.362	0.22
522.709	0.22
523.057	0.23
523.404	0.23
523.752	0.22
524.099	0.23
524.446	0.23
524.794	0.24
525.141	0.24
525.488	0.23
525.835	0.24
526.182	0.24
526.529	0.24
526.876	0.25
527.223	0.25
527.57	0.25
527.917	0.25
528.264	0.25
528.611	0.25
528.958	0.26
529.304	0.25
529.651	0.26
529.998	0.26
530.344	0.26
530.691	0.27
531.037	0.27
531.384	0.27
531.73	0.27
532.076	0.27
532.423	0.27
532.769	0.27
533.115	0.28
533.461	0.28
533.807	0.28
534.154	0.28
534.5	0.28
534.846	0.29
535.192	0.28
535.537	0.29
535.883	0.29
536.229	0.29
536.575	0.29
536.921	0.3
537.266	0.3
537.612	0.3
537.957	0.31
538.303	0.31
538.649	0.31
538.994	0.31
539.339	0.32
539.685	0.32
540.03	0.32
540.375	0.33
540.721	0.33
541.066	0.33
541.411	0.33
541.756	0.33
542.101	0.33
542.446	0.34
542.791	0.34
543.136	0.34
543.481	0.34
543.825	0.35
544.17	0.35
544.515	0.35
544.86	0.35
545.204	0.35
545.549	0.36
545.893	0.36
546.238	0.36
546.582	0.37
546.927	0.37
547.271	0.37
547.615	0.37
547.96	0.37
548.304	0.38
548.648	0.38
548.992	0.38
549.336	0.39
549.68	0.39
550.024	0.39
550.368	0.39
550.712	0.39
551.056	0.39
551.4	0.4
551.743	0.4
552.087	0.4
552.431	0.4
552.774	0.4
553.118	0.4
553.462	0.41
553.805	0.41
554.148	0.41
554.492	0.42
554.835	0.42
555.178	0.42
555.522	0.42
555.865	0.42
556.208	0.42
556.551	0.42
556.894	0.43
557.237	0.43
557.58	0.43
557.923	0.43
558.266	0.43
558.609	0.43
558.952	0.43
559.294	0.44
559.637	0.44
559.98	0.44
560.322	0.44
560.665	0.44
561.007	0.44
561.35	0.44
561.692	0.44
562.034	0.45
562.377	0.44
562.719	0.44
563.061	0.44
563.403	0.44
563.745	0.44
564.088	0.45
564.43	0.45
564.772	0.45
565.113	0.45
565.455	0.45
565.797	0.45
566.139	0.46
566.481	0.45
566.822	0.45
567.164	0.46
567.506	0.45
567.847	0.46
568.189	0.46
568.53	0.46
568.872	0.46
569.213	0.46
569.554	0.46
569.895	0.46
570.237	0.46
570.578	0.46
570.919	0.46
571.26	0.46
571.601	0.46
571.942	0.47
572.283	0.46
572.624	0.46
572.965	0.46
573.306	0.46
573.646	0.46
573.987	0.46
574.328	0.47
574.668	0.46
575.009	0.46
575.349	0.46
575.69	0.46
576.03	0.46
576.37	0.46
576.711	0.46
577.051	0.46
577.391	0.46
577.731	0.47
578.072	0.47
578.412	0.47
578.752	0.47
579.092	0.47
579.431	0.47
579.771	0.46
580.111	0.46
580.451	0.45
580.791	0.46
581.13	0.47
581.47	0.47
581.81	0.47
582.149	0.47
582.489	0.47
582.828	0.47
583.167	0.47
583.507	0.45
583.846	0.43
584.185	0.44
584.525	0.46
584.864	0.47
585.203	0.47
585.542	0.48
585.881	0.48
586.22	0.49
586.559	0.49
586.898	0.48
587.236	0.48
587.575	0.48
587.914	0.48
588.252	0.49
588.591	0.49
588.93	0.5
589.268	0.5
589.607	0.5
589.945	0.5
590.283	0.5
590.622	0.5
590.96	0.51
591.298	0.51
591.636	0.51
591.974	0.52
592.313	0.52
592.651	0.52
592.989	0.52
593.326	0.53
593.664	0.53
594.002	0.53
594.34	0.54
594.678	0.53
595.015	0.54
595.353	0.53
595.691	0.53
596.028	0.54
596.366	0.54
596.703	0.54
597.04	0.55
597.378	0.55
597.715	0.55
598.052	0.56
598.389	0.56
598.726	0.56
599.064	0.57
599.401	0.56
599.738	0.57
600.074	0.57
600.411	0.57
600.748	0.57
601.085	0.57
601.422	0.57
601.758	0.56
602.095	0.57
602.432	0.56
602.768	0.56
603.105	0.57
603.441	0.57
603.777	0.57
604.114	0.57
604.45	0.57
604.786	0.58
605.122	0.57
605.459	0.57
605.795	0.57
606.131	0.57
606.467	0.57
606.803	0.57
607.139	0.57
607.474	0.57
607.81	0.57
608.146	0.56
608.482	0.57
608.817	0.56
609.153	0.56
609.488	0.56
609.824	0.56
610.159	0.56
610.495	0.56
610.83	0.56
611.165	0.56
611.5	0.56
611.836	0.56
612.171	0.56
612.506	0.55
612.841	0.55
613.176	0.55
613.511	0.55
613.845	0.55
614.18	0.55
614.515	0.55
614.85	0.55
615.184	0.54
615.519	0.55
615.854	0.54
616.188	0.54
616.523	0.54
616.857	0.54
617.191	0.53
617.526	0.53
617.86	0.53
618.194	0.52
618.528	0.53
618.862	0.53
619.196	0.53
619.53	0.53
619.864	0.53
620.198	0.52
620.532	0.52
620.866	0.52
621.2	0.52
621.533	0.52
621.867	0.52
622.201	0.52
622.534	0.51
622.868	0.51
623.201	0.51
623.534	0.51
623.868	0.51
624.201	0.51
624.534	0.5
624.868	0.5
625.201	0.5
625.534	0.5
625.867	0.49
626.2	0.5
626.533	0.5
626.865	0.49
627.198	0.49
627.531	0.48
627.864	0.48
628.196	0.48
628.529	0.48
628.862	0.48
629.194	0.47
629.527	0.48
629.859	0.47
630.191	0.46
630.524	0.46
630.856	0.46
631.188	0.46
631.52	0.46
631.852	0.45
632.184	0.45
632.516	0.45
632.848	0.44
633.18	0.44
633.512	0.44
633.844	0.44
634.175	0.43
634.507	0.43
634.839	0.43
635.17	0.42
635.502	0.42
635.833	0.41
636.165	0.41
636.496	0.41
636.827	0.41
637.159	0.41
637.49	0.41
637.821	0.4
638.152	0.4
638.483	0.39
638.814	0.39
639.145	0.39
639.476	0.39
639.807	0.38
640.137	0.38
640.468	0.38
640.799	0.37
641.129	0.38
641.46	0.38
641.791	0.37
642.121	0.37
642.451	0.36
642.782	0.36
643.112	0.36
643.442	0.36
643.773	0.35
644.103	0.35
644.433	0.35
644.763	0.34
645.093	0.34
645.423	0.34
645.753	0.34
646.082	0.34
646.412	0.33
646.742	0.34
647.072	0.33
647.401	0.33
647.731	0.33
648.06	0.33
648.39	0.33
648.719	0.33
649.048	0.33
649.378	0.33
649.707	0.33
650.036	0.32
650.365	0.32
650.694	0.32
651.023	0.32
651.352	0.32
651.681	0.32
652.01	0.32
652.339	0.32
652.668	0.32
652.996	0.31
653.325	0.32
653.654	0.32
653.982	0.32
654.311	0.31
654.639	0.32
654.967	0.32
655.296	0.31
655.624	0.31
655.952	0.31
656.28	0.31
656.609	0.31
656.937	0.31
657.265	0.32
657.593	0.31
657.92	0.18
658.248	0.11
658.576	0.09
658.904	0.15
659.231	0.24
659.559	0.29
659.887	0.29
660.214	0.3
660.542	0.31
660.869	0.31
661.196	0.3
661.524	0.31
661.851	0.31
662.178	0.31
662.505	0.3
662.832	0.31
663.159	0.31
663.486	0.31
663.813	0.31
664.14	0.31
664.467	0.3
664.794	0.3
665.12	0.3
665.447	0.3
665.774	0.3
666.1	0.3
666.427	0.3
666.753	0.3
667.079	0.3
667.406	0.3
667.732	0.3
668.058	0.3
668.384	0.29
668.71	0.3
669.036	0.29
669.362	0.29
669.688	0.29
670.014	0.29
670.34	0.3
670.666	0.29
670.991	0.29
671.317	0.29
671.643	0.29
671.968	0.28
672.294	0.28
672.619	0.28
672.945	0.27
673.27	0.28
673.595	0.27
673.92	0.26
674.246	0.26
674.571	0.27
674.896	0.27
675.221	0.26
675.546	0.27
675.87	0.26
676.195	0.26
676.52	0.26
676.845	0.26
677.169	0.26
677.494	0.26
677.819	0.26
678.143	0.25
678.468	0.25
678.792	0.25
679.116	0.25
679.44	0.25
679.765	0.24
680.089	0.24
680.413	0.24
680.737	0.24
681.061	0.23
681.385	0.23
681.709	0.23
682.033	0.23
682.356	0.22
682.68	0.22
683.004	0.22
683.327	0.22
683.651	0.21
683.974	0.21
684.298	0.21
684.621	0.21
684.944	0.21
685.268	0.21
685.591	0.2
685.914	0.2
686.237	0.2
686.56	0.2
686.883	0.2
687.206	0.19
687.529	0.19
687.852	0.19
688.175	0.19
688.497	0.18
688.82	0.19
689.142	0.18
689.465	0.18
689.787	0.18
690.11	0.17
690.432	0.17
690.755	0.17
691.077	0.17
691.399	0.16
691.721	0.16
692.043	0.16
692.365	0.16
692.687	0.16
693.009	0.16
693.331	0.16
693.653	0.16
693.974	0.15
694.296	0.16
694.618	0.15
694.939	0.15
695.261	0.15
695.582	0.15
695.904	0.15
696.225	0.15
696.546	0.15
696.868	0.15
697.189	0.15
697.51	0.15
697.831	0.14
698.152	0.14
698.473	0.14
698.794	0.13
699.114	0.13
699.435	0.13
699.756	0.13
700.077	0.13
700.397	0.13
700.718	0.13
701.038	0.13
701.359	0.13
701.679	0.13
701.999	0.13
702.32	0.13
702.64	0.13
702.96	0.12
703.28	0.12
703.6	0.12
703.92	0.12
704.24	0.12
704.56	0.12
704.879	0.12
705.199	0.12
705.519	0.12
705.838	0.12
706.158	0.11
706.478	0.12
706.797	0.12
707.116	0.12
707.436	0.11
707.755	0.11
708.074	0.11
708.393	0.11
708.712	0.11
709.031	0.11
709.35	0.11
709.669	0.11
709.988	0.11
710.307	0.11
710.626	0.11
710.944	0.11
711.263	0.11
711.582	0.11
711.9	0.11
712.219	0.11
712.537	0.11
712.855	0.11
713.174	0.11
713.492	0.11
713.81	0.11
714.128	0.11
714.446	0.11
714.764	0.11
715.082	0.11
715.4	0.11
715.718	0.11
716.035	0.11
716.353	0.11
716.671	0.11
716.988	0.11
717.306	0.11
717.623	0.11
717.941	0.11
718.258	0.11
718.575	0.12
718.893	0.12
719.21	0.12
719.527	0.12
719.844	0.12
720.161	0.12
720.478	0.12
720.795	0.12
721.112	0.11
721.428	0.12
721.745	0.12
722.062	0.12
722.378	0.12
722.695	0.12
723.011	0.12
723.328	0.12
723.644	0.12
723.96	0.12
724.276	0.12
724.593	0.12
724.909	0.12
725.225	0.12
725.541	0.12
725.857	0.12
726.173	0.12
726.488	0.12
726.804	0.12
727.12	0.12
727.435	0.12
727.751	0.12
728.067	0.12
728.382	0.12
728.697	0.12
729.013	0.12
729.328	0.13
729.643	0.13
729.958	0.12
730.273	0.13
730.588	0.12
730.903	0.13
731.218	0.12
731.533	0.13
731.848	0.12
732.163	0.12
732.477	0.12
732.792	0.12
733.107	0.12
733.421	0.12
733.736	0.12
734.05	0.12
734.364	0.12
734.678	0.12
734.993	0.12
735.307	0.12
735.621	0.12
735.935	0.12
736.249	0.12
736.563	0.12
736.877	0.12
737.19	0.12
737.504	0.12
737.818	0.12
738.131	0.12
738.445	0.12
738.758	0.12
739.072	0.11
739.385	0.11
739.698	0.11
740.012	0.11
740.325	0.11
740.638	0.11
740.951	0.11
741.264	0.11
741.577	0.11
741.89	0.11
742.203	0.11
742.515	0.12
742.828	0.12
743.141	0.11
743.453	0.11
743.766	0.1
744.078	0.11
744.391	0.11
744.703	0.1
745.015	0.1
745.327	0.1
745.639	0.1
745.952	0.09
746.264	0.09
746.575	0.09
746.887	0.1
747.199	0.1
747.511	0.1
747.823	0.09
748.134	0.1
748.446	0.09
748.757	0.09
749.069	0.09
749.38	0.09
749.692	0.09
750.003	0.09
750.314	0.09
750.625	0.09
750.936	0.09
751.248	0.09
751.559	0.09
751.869	0.09
752.18	0.09
752.491	0.08
752.802	0.08
753.112	0.08
753.423	0.08
753.734	0.08
754.044	0.08
754.355	0.07
754.665	0.07
754.975	0.07
755.285	0.08
755.596	0.07
755.906	0.07
756.216	0.07
756.526	0.07
756.836	0.07
757.146	0.07
757.455	0.07
757.765	0.07
758.075	0.07
758.385	0.07
758.694	0.07
759.004	0.07
759.313	0.06
759.622	0.06
759.932	0.06
760.241	0.06
760.55	0.07
760.859	0.07
761.168	0.07
761.477	0.06
761.786	0.07
762.095	0.06
762.404	0.06
762.713	0.06
763.021	0.06
763.33	0.06
763.639	0.06
763.947	0.06
764.256	0.06
764.564	0.06
764.872	0.06
765.181	0.06
765.489	0.06
765.797	0.06
766.105	0.06
766.413	0.05
766.721	0.05
767.029	0.05
767.337	0.05
767.644	0.05
767.952	0.05
768.26	0.05
768.567	0.05
768.875	0.05
769.182	0.05
769.49	0.05
769.797	0.05
770.104	0.05
770.411	0.05
770.718	0.05
771.026	0.05
771.333	0.05
771.639	0.05
771.946	0.05
772.253	0.05
772.56	0.05
772.867	0.05
773.173	0.05
773.48	0.05
773.786	0.05
774.093	0.05
774.399	0.04
774.705	0.04
775.012	0.04
775.318	0.04
775.624	0.04
775.93	0.04
776.236	0.04
776.542	0.04
776.848	0.04
777.154	0.04
777.459	0.04
777.765	0.04
778.071	0.04
778.376	0.04
778.682	0.04
778.987	0.05
779.292	0.04
779.598	0.05
779.903	0.05
780.208	0.05
780.513	0.05
780.818	0.04
781.123	0.04
781.428	0.05
781.733	0.05
782.038	0.05
782.343	0.05
782.647	0.05
782.952	0.05
783.256	0.05
783.561	0.05
783.865	0.04
784.17	0.04
784.474	0.04
784.778	0.04
785.082	0.04
785.386	0.04
785.69	0.04
785.994	0.04
786.298	0.04
786.602	0.04
786.906	0.04
787.209	0.04
787.513	0.04
787.817	0.04
788.12	0.03
788.424	0.03
788.727	0.03
789.03	0.04
789.333	0.04
789.637	0.04
789.94	0.05
790.243	0.04
790.546	0.04
790.849	0.04
791.152	0.04
791.454	0.04
791.757	0.03
792.06	0.04
792.362	0.04
792.665	0.04
792.967	0.04
793.27	0.04
793.572	0.04
793.874	0.04
794.177	0.04
794.479	0.04
794.781	0.04
795.083	0.04
795.385	0.04
795.687	0.04
795.989	0.04
796.29	0.04
796.592	0.04
796.894	0.04
797.195	0.04
797.497	0.04
797.798	0.04
798.1	0.04
798.401	0.04
798.702	0.05
799.003	0.04
799.304	0.04
799.605	0.04
799.906	0.04
800.207	0.04
800.508	0.04
800.809	0.04
801.11	0.04
801.41	0.04
801.711	0.04
802.011	0.05
802.312	0.04
802.612	0.04
802.913	0.05
803.213	0.05
803.513	0.05
803.813	0.05
804.113	0.04
804.413	0.05
804.713	0.04
805.013	0.04
805.313	0.04
805.613	0.04
805.912	0.04
806.212	0.04
806.511	0.04
806.811	0.04
807.11	0.04
807.41	0.03
807.709	0.03
808.008	0.03
808.307	0.04
808.606	0.03
808.905	0.04
809.204	0.04
809.503	0.04
809.802	0.04
810.101	0.04
810.399	0.04
810.698	0.04
810.997	0.04
811.295	0.04
811.593	0.05
811.892	0.05
812.19	0.05
812.488	0.04
812.786	0.05
813.084	0.05
813.383	0.04
813.68	0.05
813.978	0.05
814.276	0.05
814.574	0.05
814.872	0.05
815.169	0.05
815.467	0.05
815.764	0.05
816.062	0.05
816.359	0.04
816.656	0.05
816.954	0.04
817.251	0.04
817.548	0.05
817.845	0.05
818.142	0.05
818.439	0.04
818.735	0.04
819.032	0.04
819.329	0.04
819.626	0.04
819.922	0.04
820.219	0.05
820.515	0.05
820.811	0.05
821.108	0.04
821.404	0.04
821.7	0.04
821.996	0.04
822.292	0.04
822.588	0.05
822.884	0.05
823.18	0.04
823.475	0.04
823.771	0.04
824.067	0.05
824.362	0.04
824.658	0.04
824.953	0.04
825.249	0.04
825.544	0.04
825.839	0.05
826.134	0.05
826.429	0.04
826.724	0.05
827.019	0.05
827.314	0.05
827.609	0.05
827.904	0.05
828.198	0.05
828.493	0.05
828.787	0.04
829.082	0.04
829.376	0.05
829.671	0.05
829.965	0.05
830.259	0.06
830.553	0.05
830.847	0.05
831.141	0.05
831.435	0.05
831.729	0.05
832.023	0.05
832.317	0.06
832.61	0.06
832.904	0.06
833.197	0.06
833.491	0.06
833.784	0.06
834.077	0.06
834.371	0.06
834.664	0.06
834.957	0.07
835.25	0.07
835.543	0.06
835.836	0.06
836.129	0.06
836.421	0.05
836.714	0.06
837.007	0.06
837.299	0.05
837.592	0.06
837.884	0.06
838.177	0.05
838.469	0.05
838.761	0.05
839.053	0.05
839.345	0.05
839.637	0.05
839.929	0.05
840.221	0.04
840.513	0.05
840.805	0.05
841.096	0.05
841.388	0.05
841.68	0.05
841.971	0.06
842.262	0.04
842.554	0.05
842.845	0.05
843.136	0.05
843.427	0.05
843.718	0.05
844.009	0.06
844.3	0.06
844.591	0.06
844.882	0.06
845.173	0.06
845.463	0.06
845.754	0.07
846.044	0.07
846.335	0.07
846.625	0.06
846.915	0.07
847.206	0.06
847.496	0.06
847.786	0.06
848.076	0.06
848.366	0.06
848.656	0.04
848.945	0.06
849.235	0.05
849.525	0.04
849.814	0.06
850.104	0.05
850.393	0.04
850.683	0.05
850.972	0.05
851.261	0.05
851.551	0.05
851.84	0.05
852.129	0.05
852.418	0.04
852.707	0.04
852.995	0.03
853.284	0.06
853.573	0.06
853.862	0.06
854.15	0.06
854.439	0.06
854.727	0.06
855.015	0.06
855.304	0.05
855.592	0.06
855.88	0.04
856.168	0.05
856.456	0.06
856.744	0.05
857.032	0.05
857.32	0.06
857.607	0.06
857.895	0.05
858.183	0.06
858.47	0.05
858.757	0.05
859.045	0.07
859.332	0.05
859.619	0.04
859.907	0.06
860.194	0.04
860.481	0.05
860.768	0.05
861.054	0.05
861.341	0.05
861.628	0.07
861.915	0.05
862.201	0.05
862.488	0.05
862.774	0.05
863.061	0.04
863.347	0.03
863.633	0.06
863.919	0.06
864.205	0.05
864.491	0.04
864.777	0.03
865.063	0.04
865.349	0.05
865.635	0.04
865.92	0.02
866.206	0.07
866.492	0.05
866.777	0.06
867.062	0.05
867.348	0.06
867.633	0.06
867.918	0.06
868.203	0.06
868.488	0.05
868.773	0.02
869.058	0.01
869.343	0
869.628	0.03
869.912	0.02
870.197	0.02
870.482	0.02
870.766	0.04
871.05	0.05
871.335	0.01
871.619	0.01
871.903	0.03
872.187	0.07
872.471	0
872.755	0.06
873.039	0.05
873.323	0.04
873.607	0.03
873.89	0.01
874.174	0.04
874.458	0.03
874.741	0.02
875.024	0.02
875.308	0.02
875.591	0.04
875.874	-0.03
876.157	0.02
876.44	0.05
876.723	0.1
877.006	0.05
877.289	0.02
877.572	0.08
877.854	0.02
878.137	0.04
878.42	-0.02
878.702	-0
878.984	-0.05
879.267	-0.01
879.549	0.05
879.831	0.01
880.113	0.07
880.395	0.02
880.677	0.01
880.959	0.08
