Data from Rubpy_EV_600_EDTA_Buffered_Absorbance_12-56-03-101.txt Node
Date: Tue Jun 30 12:56:03 BST 2026
User: fpm-admin
Spectrometer: OFX00224
Trigger mode: 0
Integration Time (sec): 7.000000E-2
Scans to average: 3
Nonlinearity correction enabled: false
Boxcar width: 0
Storing dark spectrum: false
XAxis mode: Wavelengths
Number of Pixels in Spectrum: 2136
>>>>>Begin Spectral Data<<<<<
154.91	-1.03
155.289	0.03
155.669	0.9
156.048	-0.29
156.428	-0
156.807	-0.58
157.186	1.1
157.566	-0.27
157.945	0.04
158.325	-0
158.704	-0.19
159.083	-0
159.462	-0
159.842	0.18
160.221	-0
160.6	0.19
160.979	0.7
161.359	-0
161.738	0.78
162.117	-0
162.496	-0.2
162.875	-0
163.254	-0.26
163.633	-0
164.012	-0.56
164.391	-0
164.77	-0.04
165.149	0.39
165.528	0.31
165.907	-0
166.286	-0
166.665	0.87
167.044	-0
167.423	-0
167.802	0.1
168.181	0.64
168.559	-0
168.938	0.48
169.317	-0.17
169.696	-0.46
170.074	0.98
170.453	0.18
170.832	0.7
171.21	0.24
171.589	0.31
171.968	-0
172.346	-0
172.725	1.28
173.103	-0.3
173.482	-0
173.861	-0.45
174.239	0.18
174.617	-0
174.996	0.78
175.374	-0
175.753	-0.9
176.131	-0
176.51	-0.26
176.888	0.82
177.266	-0
177.645	-0.01
178.023	0.68
178.401	-0.27
178.779	0.02
179.158	0.21
179.536	0.18
179.914	-0.01
180.292	0.48
180.67	-0
181.048	-0
181.427	-0.9
181.805	-0.05
182.183	-0
182.561	-0
182.939	-0.01
183.317	0.48
183.695	0.22
184.073	-0.08
184.451	-0
184.829	-0
185.206	-0.24
185.584	-0
185.962	-0
186.34	-0
186.718	-0.34
187.096	0.06
187.473	0.1
187.851	-0.16
188.229	-0
188.607	0.1
188.984	0.18
189.362	0.13
189.74	0.12
190.117	0.11
190.495	0.05
190.872	0.05
191.25	0.18
191.627	0.1
192.005	0.08
192.382	0.2
192.76	0.06
193.137	0.14
193.515	0.22
193.892	0.11
194.269	0
194.647	0.04
195.024	0.07
195.401	0.14
195.779	0.12
196.156	0.09
196.533	0.12
196.91	0.11
197.288	0.14
197.665	0.02
198.042	0.1
198.419	0.12
198.796	0.09
199.173	0.17
199.55	0.08
199.927	0.17
200.304	0.18
200.681	0.19
201.058	0.09
201.435	0.06
201.812	0.05
202.189	0.15
202.566	0.15
202.943	0.07
203.32	0.14
203.697	0.18
204.073	0.03
204.45	0.05
204.827	0.08
205.204	0.15
205.58	0.25
205.957	0.14
206.334	0.06
206.71	0.07
207.087	0.1
207.464	0.14
207.84	0.15
208.217	0.02
208.593	0.3
208.97	0.17
209.346	0.05
209.723	0.2
210.099	0.11
210.476	0.09
210.852	0.15
211.228	0.06
211.605	0.01
211.981	0.22
212.357	0.04
212.733	0.07
213.11	0.09
213.486	0.11
213.862	0.06
214.238	0.08
214.614	0.11
214.991	0.13
215.367	0.18
215.743	0.06
216.119	0.18
216.495	0.03
216.871	0.1
217.247	0.23
217.623	0.11
217.999	0.14
218.375	0.07
218.751	0.16
219.127	0.15
219.502	0.09
219.878	0.12
220.254	0.17
220.63	0.24
221.006	0.03
221.381	0.1
221.757	0.16
222.133	0.18
222.508	0.12
222.884	0.11
223.26	0.18
223.635	0.07
224.011	0.03
224.386	0.15
224.762	0.03
225.137	0.12
225.513	0.09
225.888	0.12
226.264	0.1
226.639	0.1
227.014	0.1
227.39	0.02
227.765	0.09
228.14	0.09
228.516	0.14
228.891	0.14
229.266	0.21
229.641	0.14
230.017	0.15
230.392	0.23
230.767	0.09
231.142	0.03
231.517	0.09
231.892	0.12
232.267	0.16
232.642	0.07
233.017	0.12
233.392	0.08
233.767	0.11
234.142	0.1
234.517	0.11
234.892	0.09
235.267	0.03
235.641	0.13
236.016	0.1
236.391	0.1
236.766	-0.03
237.14	0.07
237.515	0.16
237.89	0.22
238.264	0.1
238.639	0.21
239.014	0.06
239.388	0.1
239.763	0.13
240.137	0.05
240.512	0.14
240.886	0.03
241.261	0.09
241.635	0.18
242.009	0.18
242.384	0.13
242.758	0.15
243.132	0.26
243.507	0.14
243.881	0.1
244.255	0.07
244.629	0.17
245.004	0.16
245.378	0.08
245.752	0.19
246.126	0.03
246.5	0.17
246.874	0.15
247.248	0.1
247.622	0
247.996	0.15
248.37	0.15
248.744	-0
249.118	0.19
249.492	0.08
249.866	0.08
250.24	0.05
250.613	0.09
250.987	0.05
251.361	0.15
251.735	0.18
252.108	0.07
252.482	0.14
252.856	-0.02
253.229	0.25
253.603	0.05
253.977	0.11
254.35	0.12
254.724	0.11
255.097	0.13
255.471	0.07
255.844	0.12
256.218	0.08
256.591	0.08
256.964	0.07
257.338	0.14
257.711	0.15
258.084	0.1
258.458	0.16
258.831	0.23
259.204	0.14
259.577	0.1
259.95	0.14
260.323	0
260.697	0.15
261.07	0.16
261.443	0.13
261.816	0.07
262.189	0.09
262.562	0.1
262.935	0.19
263.308	0.05
263.68	0.07
264.053	0.09
264.426	0.14
264.799	0.08
265.172	0.15
265.545	0.07
265.917	0.16
266.29	0.09
266.663	0.09
267.035	0.18
267.408	0.11
267.781	0.11
268.153	0.1
268.526	0.1
268.898	0.1
269.271	0.12
269.643	0.15
270.016	0.13
270.388	0.18
270.76	0.12
271.133	0.15
271.505	0.08
271.877	0.12
272.25	0.04
272.622	0.11
272.994	0.1
273.366	0.16
273.739	0.07
274.111	0.06
274.483	0.04
274.855	0.08
275.227	0.12
275.599	0.14
275.971	0.02
276.343	0.08
276.715	0.06
277.087	0.1
277.459	0.09
277.831	0.07
278.203	0.16
278.574	0.19
278.946	0.09
279.318	0.14
279.69	0.13
280.061	0.18
280.433	0.07
280.805	0.14
281.176	0.03
281.548	0.14
281.92	0.08
282.291	0.12
282.663	0.09
283.034	0.12
283.406	0.18
283.777	0.1
284.148	0.07
284.52	0.1
284.891	0.06
285.262	0.07
285.634	0.13
286.005	0.13
286.376	0.08
286.747	0.14
287.119	0.1
287.49	0.03
287.861	0.11
288.232	0.14
288.603	0.08
288.974	0.02
289.345	0.1
289.716	0.05
290.087	0.05
290.458	0.11
290.829	0.1
291.2	0.04
291.571	0.07
291.941	0.1
292.312	0.11
292.683	0.11
293.054	0.1
293.424	0.08
293.795	0.09
294.166	0.07
294.536	0.09
294.907	0.15
295.277	0.13
295.648	0.04
296.018	0.13
296.389	0.08
296.759	0.09
297.13	0.09
297.5	0.07
297.871	0.07
298.241	0.03
298.611	0.07
298.981	0.08
299.352	0.07
299.722	0.12
300.092	0.09
300.462	0.08
300.832	0.06
301.202	0.05
301.573	0.08
301.943	0.08
302.313	0.06
302.683	0.06
303.053	0.04
303.422	0.05
303.792	0.05
304.162	0.06
304.532	0.05
304.902	0.06
305.272	0.06
305.641	0.05
306.011	0.07
306.381	0.06
306.75	0.06
307.12	0.06
307.49	0.06
307.859	0.07
308.229	0.07
308.598	0.07
308.968	0.06
309.337	0.06
309.707	0.07
310.076	0.06
310.445	0.07
310.815	0.07
311.184	0.07
311.553	0.07
311.923	0.07
312.292	0.07
312.661	0.07
313.03	0.07
313.399	0.07
313.768	0.08
314.137	0.07
314.506	0.07
314.875	0.07
315.244	0.07
315.613	0.07
315.982	0.07
316.351	0.07
316.72	0.07
317.089	0.07
317.458	0.07
317.826	0.07
318.195	0.06
318.564	0.07
318.933	0.07
319.301	0.07
319.67	0.07
320.038	0.06
320.407	0.07
320.775	0.07
321.144	0.07
321.512	0.06
321.881	0.06
322.249	0.06
322.618	0.06
322.986	0.06
323.354	0.06
323.723	0.06
324.091	0.06
324.459	0.05
324.827	0.06
325.195	0.06
325.564	0.06
325.932	0.06
326.3	0.05
326.668	0.06
327.036	0.06
327.404	0.06
327.772	0.06
328.14	0.06
328.508	0.06
328.875	0.06
329.243	0.05
329.611	0.06
329.979	0.06
330.346	0.06
330.714	0.06
331.082	0.05
331.449	0.06
331.817	0.06
332.185	0.06
332.552	0.06
332.92	0.06
333.287	0.06
333.655	0.06
334.022	0.06
334.389	0.06
334.757	0.06
335.124	0.06
335.491	0.06
335.859	0.06
336.226	0.06
336.593	0.07
336.96	0.07
337.327	0.07
337.695	0.07
338.062	0.07
338.429	0.07
338.796	0.07
339.163	0.07
339.53	0.07
339.897	0.07
340.263	0.08
340.63	0.08
340.997	0.08
341.364	0.08
341.731	0.08
342.097	0.08
342.464	0.08
342.831	0.08
343.197	0.08
343.564	0.09
343.931	0.09
344.297	0.09
344.664	0.09
345.03	0.09
345.396	0.09
345.763	0.09
346.129	0.1
346.496	0.1
346.862	0.1
347.228	0.1
347.594	0.1
347.961	0.11
348.327	0.1
348.693	0.1
349.059	0.1
349.425	0.11
349.791	0.11
350.157	0.11
350.523	0.11
350.889	0.11
351.255	0.12
351.621	0.12
351.987	0.12
352.353	0.13
352.719	0.13
353.084	0.14
353.45	0.14
353.816	0.13
354.181	0.14
354.547	0.15
354.913	0.14
355.278	0.15
355.644	0.15
356.009	0.15
356.375	0.16
356.74	0.16
357.106	0.16
357.471	0.17
357.836	0.17
358.202	0.18
358.567	0.18
358.932	0.19
359.297	0.18
359.663	0.19
360.028	0.19
360.393	0.2
360.758	0.2
361.123	0.2
361.488	0.2
361.853	0.21
362.218	0.21
362.583	0.21
362.948	0.21
363.312	0.22
363.677	0.22
364.042	0.22
364.407	0.23
364.772	0.23
365.136	0.24
365.501	0.24
365.865	0.24
366.23	0.25
366.595	0.26
366.959	0.26
367.324	0.27
367.688	0.27
368.052	0.28
368.417	0.29
368.781	0.29
369.145	0.29
369.51	0.3
369.874	0.3
370.238	0.3
370.602	0.29
370.967	0.3
371.331	0.3
371.695	0.29
372.059	0.29
372.423	0.29
372.787	0.29
373.151	0.29
373.515	0.29
373.878	0.29
374.242	0.29
374.606	0.3
374.97	0.29
375.334	0.29
375.697	0.29
376.061	0.29
376.425	0.3
376.788	0.3
377.152	0.3
377.515	0.3
377.879	0.31
378.242	0.31
378.606	0.31
378.969	0.32
379.333	0.32
379.696	0.33
380.059	0.33
380.422	0.34
380.786	0.34
381.149	0.35
381.512	0.36
381.875	0.37
382.238	0.38
382.601	0.39
382.964	0.4
383.327	0.4
383.69	0.42
384.053	0.43
384.416	0.44
384.779	0.45
385.142	0.46
385.504	0.47
385.867	0.47
386.23	0.48
386.593	0.48
386.955	0.49
387.318	0.49
387.68	0.48
388.043	0.48
388.405	0.48
388.768	0.48
389.13	0.47
389.493	0.47
389.855	0.47
390.217	0.47
390.58	0.46
390.942	0.46
391.304	0.47
391.666	0.47
392.028	0.48
392.391	0.5
392.753	0.51
393.115	0.52
393.477	0.55
393.839	0.56
394.201	0.58
394.563	0.61
394.924	0.64
395.286	0.66
395.648	0.68
396.01	0.7
396.371	0.72
396.733	0.74
397.095	0.75
397.456	0.76
397.818	0.76
398.18	0.75
398.541	0.74
398.903	0.73
399.264	0.71
399.625	0.69
399.987	0.66
400.348	0.63
400.709	0.6
401.071	0.57
401.432	0.53
401.793	0.5
402.154	0.47
402.515	0.44
402.876	0.4
403.238	0.38
403.599	0.35
403.96	0.32
404.32	0.3
404.681	0.28
405.042	0.26
405.403	0.24
405.764	0.23
406.125	0.21
406.485	0.19
406.846	0.18
407.207	0.17
407.567	0.16
407.928	0.15
408.288	0.14
408.649	0.13
409.009	0.13
409.37	0.12
409.73	0.11
410.091	0.11
410.451	0.11
410.811	0.1
411.171	0.1
411.532	0.09
411.892	0.09
412.252	0.09
412.612	0.08
412.972	0.08
413.332	0.08
413.692	0.08
414.052	0.07
414.412	0.07
414.772	0.07
415.132	0.06
415.492	0.06
415.851	0.06
416.211	0.07
416.571	0.06
416.931	0.06
417.29	0.06
417.65	0.05
418.009	0.05
418.369	0.05
418.728	0.05
419.088	0.05
419.447	0.05
419.807	0.05
420.166	0.05
420.525	0.05
420.884	0.05
421.244	0.05
421.603	0.05
421.962	0.05
422.321	0.04
422.68	0.05
423.039	0.04
423.398	0.04
423.757	0.05
424.116	0.05
424.475	0.04
424.834	0.04
425.193	0.04
425.551	0.04
425.91	0.04
426.269	0.04
426.628	0.04
426.986	0.04
427.345	0.03
427.703	0.04
428.062	0.03
428.42	0.04
428.779	0.04
429.137	0.04
429.496	0.03
429.854	0.03
430.212	0.04
430.57	0.03
430.929	0.04
431.287	0.04
431.645	0.03
432.003	0.04
432.361	0.03
432.719	0.03
433.077	0.04
433.435	0.03
433.793	0.03
434.151	0.03
434.509	0.03
434.866	0.03
435.224	0.03
435.582	0.02
435.94	0.03
436.297	0.03
436.655	0.03
437.012	0.03
437.37	0.04
437.727	0.03
438.085	0.03
438.442	0.02
438.8	0.03
439.157	0.03
439.514	0.03
439.872	0.03
440.229	0.03
440.586	0.03
440.943	0.03
441.3	0.03
441.657	0.02
442.014	0.02
442.371	0.03
442.728	0.02
443.085	0.03
443.442	0.03
443.799	0.02
444.156	0.03
444.513	0.02
444.869	0.03
445.226	0.03
445.583	0.02
445.939	0.03
446.296	0.03
446.652	0.03
447.009	0.02
447.365	0.03
447.722	0.02
448.078	0.02
448.434	0.03
448.791	0.02
449.147	0.02
449.503	0.02
449.859	0.03
450.215	0.02
450.571	0.03
450.928	0.03
451.284	0.02
451.64	0.01
451.995	0.02
452.351	0.01
452.707	0.02
453.063	0.02
453.419	0.02
453.775	0.01
454.13	0.02
454.486	0.02
454.842	0.01
455.197	0.02
455.553	0.01
455.908	0.01
456.264	0.01
456.619	0.01
456.975	0.01
457.33	0.01
457.685	0.01
458.04	0
458.396	0
458.751	0.01
459.106	0
459.461	0.01
459.816	0.01
460.171	0
460.526	0.01
460.881	0
461.236	0
461.591	0
461.946	-0
462.301	0
462.655	-0
463.01	-0
463.365	-0
463.719	-0.01
464.074	0
464.428	-0.01
464.783	-0
465.137	-0.02
465.492	-0.01
465.846	-0.01
466.201	-0
466.555	-0
466.909	-0.01
467.263	-0
467.618	-0.01
467.972	-0.01
468.326	-0.01
468.68	-0.01
469.034	-0.01
469.388	-0.01
469.742	-0.02
470.096	-0.01
470.45	-0.01
470.804	-0.01
471.157	-0.01
471.511	-0.01
471.865	-0.01
472.218	-0.01
472.572	-0.02
472.926	-0.01
473.279	-0.01
473.633	-0.01
473.986	-0.01
474.34	-0.01
474.693	-0
475.046	0
475.4	-0
475.753	-0
476.106	0
476.459	0.01
476.812	0.01
477.165	0.01
477.519	0.01
477.872	0.01
478.224	0.01
478.577	0.02
478.93	0.01
479.283	0.02
479.636	0.01
479.989	0.02
480.341	0.01
480.694	0.01
481.047	0.02
481.399	0.01
481.752	0.02
482.104	0.02
482.457	0.02
482.809	0.02
483.162	0.02
483.514	0.02
483.866	0.02
484.219	0.02
484.571	0.02
484.923	0.02
485.275	0.02
485.627	0.02
485.979	0.02
486.331	0.03
486.683	0.03
487.035	0.02
487.387	0.03
487.739	0.03
488.091	0.03
488.443	0.03
488.794	0.03
489.146	0.03
489.498	0.03
489.849	0.03
490.201	0.03
490.552	0.03
490.904	0.03
491.255	0.03
491.607	0.03
491.958	0.03
492.309	0.03
492.661	0.03
493.012	0.03
493.363	0.03
493.714	0.03
494.065	0.04
494.416	0.04
494.767	0.04
495.118	0.04
495.469	0.04
495.82	0.04
496.171	0.04
496.522	0.04
496.872	0.04
497.223	0.05
497.574	0.05
497.924	0.05
498.275	0.04
498.626	0.05
498.976	0.05
499.327	0.05
499.677	0.05
500.027	0.05
500.378	0.05
500.728	0.05
501.078	0.05
501.428	0.05
501.779	0.05
502.129	0.06
502.479	0.05
502.829	0.05
503.179	0.05
503.529	0.05
503.879	0.05
504.229	0.06
504.578	0.05
504.928	0.06
505.278	0.06
505.628	0.06
505.977	0.06
506.327	0.06
506.676	0.06
507.026	0.06
507.375	0.06
507.725	0.06
508.074	0.06
508.424	0.06
508.773	0.06
509.122	0.06
509.471	0.07
509.82	0.06
510.17	0.07
510.519	0.07
510.868	0.06
511.217	0.07
511.566	0.06
511.915	0.07
512.263	0.07
512.612	0.07
512.961	0.07
513.31	0.07
513.659	0.07
514.007	0.07
514.356	0.08
514.704	0.08
515.053	0.08
515.401	0.08
515.75	0.08
516.098	0.08
516.447	0.08
516.795	0.08
517.143	0.08
517.491	0.08
517.839	0.08
518.188	0.08
518.536	0.08
518.884	0.08
519.232	0.09
519.58	0.08
519.928	0.09
520.275	0.08
520.623	0.09
520.971	0.09
521.319	0.1
521.666	0.09
522.014	0.09
522.362	0.09
522.709	0.09
523.057	0.1
523.404	0.09
523.752	0.09
524.099	0.1
524.446	0.1
524.794	0.1
525.141	0.1
525.488	0.1
525.835	0.1
526.182	0.1
526.529	0.1
526.876	0.1
527.223	0.1
527.57	0.1
527.917	0.1
528.264	0.1
528.611	0.11
528.958	0.11
529.304	0.11
529.651	0.11
529.998	0.11
530.344	0.11
530.691	0.11
531.037	0.11
531.384	0.11
531.73	0.11
532.076	0.11
532.423	0.11
532.769	0.11
533.115	0.11
533.461	0.11
533.807	0.11
534.154	0.11
534.5	0.12
534.846	0.12
535.192	0.12
535.537	0.12
535.883	0.12
536.229	0.12
536.575	0.12
536.921	0.12
537.266	0.12
537.612	0.13
537.957	0.13
538.303	0.13
538.649	0.13
538.994	0.13
539.339	0.13
539.685	0.13
540.03	0.13
540.375	0.13
540.721	0.14
541.066	0.14
541.411	0.14
541.756	0.14
542.101	0.14
542.446	0.14
542.791	0.14
543.136	0.14
543.481	0.14
543.825	0.14
544.17	0.15
544.515	0.14
544.86	0.15
545.204	0.14
545.549	0.15
545.893	0.15
546.238	0.15
546.582	0.15
546.927	0.15
547.271	0.15
547.615	0.15
547.96	0.16
548.304	0.16
548.648	0.16
548.992	0.16
549.336	0.16
549.68	0.16
550.024	0.16
550.368	0.16
550.712	0.16
551.056	0.16
551.4	0.16
551.743	0.17
552.087	0.17
552.431	0.17
552.774	0.17
553.118	0.17
553.462	0.17
553.805	0.17
554.148	0.17
554.492	0.17
554.835	0.18
555.178	0.18
555.522	0.18
555.865	0.17
556.208	0.18
556.551	0.17
556.894	0.18
557.237	0.17
557.58	0.18
557.923	0.18
558.266	0.18
558.609	0.18
558.952	0.18
559.294	0.18
559.637	0.18
559.98	0.18
560.322	0.18
560.665	0.18
561.007	0.18
561.35	0.18
561.692	0.18
562.034	0.18
562.377	0.19
562.719	0.18
563.061	0.18
563.403	0.18
563.745	0.18
564.088	0.18
564.43	0.19
564.772	0.18
565.113	0.19
565.455	0.19
565.797	0.19
566.139	0.19
566.481	0.19
566.822	0.19
567.164	0.19
567.506	0.19
567.847	0.19
568.189	0.19
568.53	0.19
568.872	0.19
569.213	0.19
569.554	0.19
569.895	0.19
570.237	0.19
570.578	0.19
570.919	0.19
571.26	0.19
571.601	0.19
571.942	0.19
572.283	0.19
572.624	0.19
572.965	0.19
573.306	0.19
573.646	0.19
573.987	0.19
574.328	0.19
574.668	0.19
575.009	0.19
575.349	0.19
575.69	0.19
576.03	0.19
576.37	0.19
576.711	0.18
577.051	0.19
577.391	0.19
577.731	0.19
578.072	0.19
578.412	0.19
578.752	0.19
579.092	0.19
579.431	0.19
579.771	0.18
580.111	0.18
580.451	0.18
580.791	0.18
581.13	0.19
581.47	0.19
581.81	0.19
582.149	0.19
582.489	0.19
582.828	0.19
583.167	0.18
583.507	0.17
583.846	0.15
584.185	0.16
584.525	0.18
584.864	0.19
585.203	0.19
585.542	0.2
585.881	0.2
586.22	0.2
586.559	0.2
586.898	0.19
587.236	0.19
587.575	0.19
587.914	0.19
588.252	0.19
588.591	0.2
588.93	0.2
589.268	0.2
589.607	0.2
589.945	0.2
590.283	0.2
590.622	0.21
590.96	0.21
591.298	0.21
591.636	0.21
591.974	0.21
592.313	0.21
592.651	0.21
592.989	0.21
593.326	0.22
593.664	0.22
594.002	0.22
594.34	0.22
594.678	0.22
595.015	0.22
595.353	0.21
595.691	0.21
596.028	0.22
596.366	0.22
596.703	0.22
597.04	0.22
597.378	0.22
597.715	0.23
598.052	0.23
598.389	0.23
598.726	0.23
599.064	0.23
599.401	0.23
599.738	0.23
600.074	0.24
600.411	0.23
600.748	0.23
601.085	0.23
601.422	0.23
601.758	0.23
602.095	0.23
602.432	0.23
602.768	0.23
603.105	0.23
603.441	0.24
603.777	0.23
604.114	0.24
604.45	0.24
604.786	0.24
605.122	0.23
605.459	0.23
605.795	0.24
606.131	0.23
606.467	0.23
606.803	0.24
607.139	0.24
607.474	0.23
607.81	0.23
608.146	0.23
608.482	0.23
608.817	0.23
609.153	0.23
609.488	0.23
609.824	0.23
610.159	0.23
610.495	0.23
610.83	0.23
611.165	0.23
611.5	0.23
611.836	0.23
612.171	0.23
612.506	0.23
612.841	0.22
613.176	0.23
613.511	0.22
613.845	0.22
614.18	0.23
614.515	0.22
614.85	0.23
615.184	0.22
615.519	0.22
615.854	0.22
616.188	0.22
616.523	0.22
616.857	0.22
617.191	0.22
617.526	0.22
617.86	0.22
618.194	0.22
618.528	0.22
618.862	0.22
619.196	0.22
619.53	0.22
619.864	0.22
620.198	0.22
620.532	0.22
620.866	0.22
621.2	0.22
621.533	0.22
621.867	0.22
622.201	0.22
622.534	0.22
622.868	0.22
623.201	0.22
623.534	0.21
623.868	0.21
624.201	0.21
624.534	0.21
624.868	0.21
625.201	0.21
625.534	0.21
625.867	0.21
626.2	0.21
626.533	0.21
626.865	0.21
627.198	0.21
627.531	0.21
627.864	0.2
628.196	0.2
628.529	0.2
628.862	0.2
629.194	0.2
629.527	0.2
629.859	0.2
630.191	0.19
630.524	0.19
630.856	0.19
631.188	0.19
631.52	0.19
631.852	0.19
632.184	0.19
632.516	0.19
632.848	0.19
633.18	0.19
633.512	0.18
633.844	0.18
634.175	0.18
634.507	0.18
634.839	0.18
635.17	0.17
635.502	0.17
635.833	0.17
636.165	0.17
636.496	0.18
636.827	0.18
637.159	0.18
637.49	0.18
637.821	0.17
638.152	0.17
638.483	0.17
638.814	0.17
639.145	0.17
639.476	0.17
639.807	0.16
640.137	0.16
640.468	0.16
640.799	0.16
641.129	0.16
641.46	0.16
641.791	0.16
642.121	0.16
642.451	0.15
642.782	0.15
643.112	0.15
643.442	0.15
643.773	0.15
644.103	0.15
644.433	0.15
644.763	0.14
645.093	0.15
645.423	0.14
645.753	0.15
646.082	0.14
646.412	0.14
646.742	0.14
647.072	0.14
647.401	0.14
647.731	0.14
648.06	0.14
648.39	0.14
648.719	0.14
649.048	0.14
649.378	0.14
649.707	0.14
650.036	0.14
650.365	0.14
650.694	0.14
651.023	0.14
651.352	0.14
651.681	0.14
652.01	0.14
652.339	0.14
652.668	0.14
652.996	0.14
653.325	0.14
653.654	0.14
653.982	0.14
654.311	0.14
654.639	0.14
654.967	0.14
655.296	0.14
655.624	0.14
655.952	0.13
656.28	0.13
656.609	0.13
656.937	0.14
657.265	0.13
657.593	0.12
657.92	0.01
658.248	-0
658.576	0
658.904	0.01
659.231	0.08
659.559	0.12
659.887	0.13
660.214	0.13
660.542	0.13
660.869	0.13
661.196	0.13
661.524	0.13
661.851	0.13
662.178	0.13
662.505	0.13
662.832	0.13
663.159	0.13
663.486	0.13
663.813	0.13
664.14	0.14
664.467	0.13
664.794	0.13
665.12	0.14
665.447	0.13
665.774	0.13
666.1	0.14
666.427	0.13
666.753	0.13
667.079	0.13
667.406	0.13
667.732	0.13
668.058	0.13
668.384	0.13
668.71	0.13
669.036	0.13
669.362	0.13
669.688	0.13
670.014	0.13
670.34	0.13
670.666	0.12
670.991	0.13
671.317	0.12
671.643	0.12
671.968	0.12
672.294	0.12
672.619	0.12
672.945	0.12
673.27	0.12
673.595	0.12
673.92	0.11
674.246	0.11
674.571	0.11
674.896	0.12
675.221	0.12
675.546	0.12
675.87	0.12
676.195	0.12
676.52	0.12
676.845	0.12
677.169	0.12
677.494	0.12
677.819	0.12
678.143	0.11
678.468	0.11
678.792	0.11
679.116	0.11
679.44	0.11
679.765	0.11
680.089	0.11
680.413	0.11
680.737	0.11
681.061	0.1
681.385	0.1
681.709	0.1
682.033	0.1
682.356	0.1
682.68	0.1
683.004	0.1
683.327	0.09
683.651	0.09
683.974	0.09
684.298	0.09
684.621	0.09
684.944	0.09
685.268	0.09
685.591	0.09
685.914	0.09
686.237	0.09
686.56	0.09
686.883	0.08
687.206	0.09
687.529	0.08
687.852	0.08
688.175	0.08
688.497	0.08
688.82	0.08
689.142	0.08
689.465	0.08
689.787	0.08
690.11	0.08
690.432	0.07
690.755	0.08
691.077	0.08
691.399	0.08
691.721	0.07
692.043	0.08
692.365	0.08
692.687	0.07
693.009	0.08
693.331	0.08
693.653	0.07
693.974	0.07
694.296	0.07
694.618	0.07
694.939	0.07
695.261	0.07
695.582	0.07
695.904	0.07
696.225	0.07
696.546	0.07
696.868	0.06
697.189	0.07
697.51	0.07
697.831	0.07
698.152	0.06
698.473	0.06
698.794	0.06
699.114	0.06
699.435	0.06
699.756	0.06
700.077	0.06
700.397	0.06
700.718	0.06
701.038	0.06
701.359	0.06
701.679	0.07
701.999	0.07
702.32	0.06
702.64	0.06
702.96	0.06
703.28	0.06
703.6	0.06
703.92	0.05
704.24	0.06
704.56	0.05
704.879	0.05
705.199	0.05
705.519	0.06
705.838	0.05
706.158	0.05
706.478	0.05
706.797	0.05
707.116	0.05
707.436	0.05
707.755	0.05
708.074	0.05
708.393	0.05
708.712	0.05
709.031	0.05
709.35	0.05
709.669	0.05
709.988	0.05
710.307	0.05
710.626	0.05
710.944	0.05
711.263	0.05
711.582	0.05
711.9	0.05
712.219	0.05
712.537	0.05
712.855	0.05
713.174	0.05
713.492	0.05
713.81	0.05
714.128	0.05
714.446	0.05
714.764	0.05
715.082	0.05
715.4	0.05
715.718	0.05
716.035	0.05
716.353	0.05
716.671	0.05
716.988	0.05
717.306	0.05
717.623	0.05
717.941	0.06
718.258	0.06
718.575	0.06
718.893	0.06
719.21	0.06
719.527	0.06
719.844	0.06
720.161	0.06
720.478	0.06
720.795	0.06
721.112	0.06
721.428	0.06
721.745	0.06
722.062	0.06
722.378	0.06
722.695	0.06
723.011	0.06
723.328	0.06
723.644	0.06
723.96	0.06
724.276	0.06
724.593	0.06
724.909	0.06
725.225	0.06
725.541	0.06
725.857	0.06
726.173	0.06
726.488	0.06
726.804	0.06
727.12	0.06
727.435	0.06
727.751	0.06
728.067	0.06
728.382	0.06
728.697	0.06
729.013	0.06
729.328	0.06
729.643	0.06
729.958	0.06
730.273	0.06
730.588	0.06
730.903	0.07
731.218	0.06
731.533	0.06
731.848	0.06
732.163	0.06
732.477	0.06
732.792	0.06
733.107	0.05
733.421	0.05
733.736	0.05
734.05	0.05
734.364	0.05
734.678	0.06
734.993	0.06
735.307	0.06
735.621	0.05
735.935	0.06
736.249	0.06
736.563	0.06
736.877	0.06
737.19	0.06
737.504	0.06
737.818	0.06
738.131	0.05
738.445	0.05
738.758	0.05
739.072	0.05
739.385	0.05
739.698	0.05
740.012	0.05
740.325	0.05
740.638	0.05
740.951	0.05
741.264	0.05
741.577	0.05
741.89	0.05
742.203	0.05
742.515	0.06
742.828	0.06
743.141	0.05
743.453	0.05
743.766	0.05
744.078	0.05
744.391	0.05
744.703	0.05
745.015	0.05
745.327	0.04
745.639	0.04
745.952	0.04
746.264	0.04
746.575	0.04
746.887	0.04
747.199	0.05
747.511	0.05
747.823	0.05
748.134	0.04
748.446	0.04
748.757	0.04
749.069	0.04
749.38	0.05
749.692	0.05
750.003	0.05
750.314	0.05
750.625	0.05
750.936	0.05
751.248	0.05
751.559	0.05
751.869	0.05
752.18	0.05
752.491	0.05
752.802	0.05
753.112	0.05
753.423	0.04
753.734	0.04
754.044	0.04
754.355	0.04
754.665	0.04
754.975	0.04
755.285	0.04
755.596	0.04
755.906	0.03
756.216	0.03
756.526	0.04
756.836	0.04
757.146	0.04
757.455	0.03
757.765	0.03
758.075	0.03
758.385	0.03
758.694	0.03
759.004	0.03
759.313	0.03
759.622	0.03
759.932	0.03
760.241	0.03
760.55	0.03
760.859	0.04
761.168	0.04
761.477	0.04
761.786	0.04
762.095	0.04
762.404	0.04
762.713	0.03
763.021	0.04
763.33	0.03
763.639	0.03
763.947	0.04
764.256	0.03
764.564	0.04
764.872	0.04
765.181	0.03
765.489	0.03
765.797	0.03
766.105	0.03
766.413	0.03
766.721	0.03
767.029	0.03
767.337	0.03
767.644	0.03
767.952	0.03
768.26	0.03
768.567	0.03
768.875	0.03
769.182	0.03
769.49	0.03
769.797	0.03
770.104	0.03
770.411	0.03
770.718	0.03
771.026	0.03
771.333	0.03
771.639	0.02
771.946	0.02
772.253	0.02
772.56	0.02
772.867	0.03
773.173	0.03
773.48	0.03
773.786	0.03
774.093	0.03
774.399	0.02
774.705	0.03
775.012	0.03
775.318	0.03
775.624	0.02
775.93	0.02
776.236	0.03
776.542	0.03
776.848	0.03
777.154	0.02
777.459	0.02
777.765	0.02
778.071	0.02
778.376	0.03
778.682	0.03
778.987	0.03
779.292	0.03
779.598	0.03
779.903	0.03
780.208	0.03
780.513	0.03
780.818	0.03
781.123	0.03
781.428	0.03
781.733	0.03
782.038	0.03
782.343	0.03
782.647	0.04
782.952	0.04
783.256	0.04
783.561	0.04
783.865	0.03
784.17	0.03
784.474	0.03
784.778	0.03
785.082	0.03
785.386	0.03
785.69	0.03
785.994	0.04
786.298	0.03
786.602	0.03
786.906	0.03
787.209	0.03
787.513	0.03
787.817	0.03
788.12	0.02
788.424	0.03
788.727	0.03
789.03	0.03
789.333	0.03
789.637	0.03
789.94	0.03
790.243	0.03
790.546	0.03
790.849	0.02
791.152	0.02
791.454	0.02
791.757	0.02
792.06	0.02
792.362	0.02
792.665	0.02
792.967	0.03
793.27	0.03
793.572	0.03
793.874	0.03
794.177	0.03
794.479	0.03
794.781	0.03
795.083	0.03
795.385	0.03
795.687	0.03
795.989	0.03
796.29	0.03
796.592	0.03
796.894	0.03
797.195	0.03
797.497	0.03
797.798	0.03
798.1	0.03
798.401	0.03
798.702	0.04
799.003	0.03
799.304	0.03
799.605	0.03
799.906	0.03
800.207	0.03
800.508	0.03
800.809	0.03
801.11	0.03
801.41	0.03
801.711	0.03
802.011	0.03
802.312	0.03
802.612	0.03
802.913	0.04
803.213	0.04
803.513	0.03
803.813	0.03
804.113	0.03
804.413	0.03
804.713	0.03
805.013	0.03
805.313	0.03
805.613	0.03
805.912	0.03
806.212	0.03
806.511	0.02
806.811	0.03
807.11	0.02
807.41	0.02
807.709	0.02
808.008	0.02
808.307	0.02
808.606	0.03
808.905	0.03
809.204	0.03
809.503	0.03
809.802	0.03
810.101	0.03
810.399	0.04
810.698	0.04
810.997	0.04
811.295	0.04
811.593	0.04
811.892	0.04
812.19	0.03
812.488	0.03
812.786	0.04
813.084	0.04
813.383	0.03
813.68	0.04
813.978	0.04
814.276	0.04
814.574	0.05
814.872	0.05
815.169	0.04
815.467	0.04
815.764	0.04
816.062	0.04
816.359	0.04
816.656	0.04
816.954	0.04
817.251	0.04
817.548	0.05
817.845	0.04
818.142	0.04
818.439	0.04
818.735	0.04
819.032	0.04
819.329	0.04
819.626	0.04
819.922	0.04
820.219	0.04
820.515	0.04
820.811	0.04
821.108	0.04
821.404	0.03
821.7	0.04
821.996	0.03
822.292	0.03
822.588	0.04
822.884	0.04
823.18	0.03
823.475	0.03
823.771	0.03
824.067	0.03
824.362	0.03
824.658	0.03
824.953	0.03
825.249	0.03
825.544	0.03
825.839	0.04
826.134	0.04
826.429	0.04
826.724	0.04
827.019	0.04
827.314	0.04
827.609	0.04
827.904	0.04
828.198	0.04
828.493	0.03
828.787	0.04
829.082	0.03
829.376	0.04
829.671	0.04
829.965	0.04
830.259	0.04
830.553	0.04
830.847	0.04
831.141	0.04
831.435	0.04
831.729	0.03
832.023	0.04
832.317	0.04
832.61	0.04
832.904	0.04
833.197	0.04
833.491	0.05
833.784	0.05
834.077	0.05
834.371	0.04
834.664	0.05
834.957	0.04
835.25	0.05
835.543	0.05
835.836	0.04
836.129	0.04
836.421	0.04
836.714	0.04
837.007	0.05
837.299	0.04
837.592	0.05
837.884	0.04
838.177	0.04
838.469	0.03
838.761	0.04
839.053	0.03
839.345	0.03
839.637	0.03
839.929	0.03
840.221	0.03
840.513	0.03
840.805	0.03
841.096	0.04
841.388	0.04
841.68	0.03
841.971	0.04
842.262	0.04
842.554	0.03
842.845	0.04
843.136	0.03
843.427	0.04
843.718	0.04
844.009	0.04
844.3	0.04
844.591	0.05
844.882	0.05
845.173	0.03
845.463	0.05
845.754	0.06
846.044	0.05
846.335	0.06
846.625	0.05
846.915	0.05
847.206	0.05
847.496	0.04
847.786	0.04
848.076	0.05
848.366	0.05
848.656	0.04
848.945	0.05
849.235	0.05
849.525	0.04
849.814	0.05
850.104	0.04
850.393	0.04
850.683	0.04
850.972	0.04
851.261	0.05
851.551	0.05
851.84	0.05
852.129	0.05
852.418	0.04
852.707	0.04
852.995	0.05
853.284	0.05
853.573	0.05
853.862	0.04
854.15	0.05
854.439	0.04
854.727	0.06
855.015	0.06
855.304	0.04
855.592	0.04
855.88	0.03
856.168	0.04
856.456	0.03
856.744	0.05
857.032	0.05
857.32	0.04
857.607	0.05
857.895	0.04
858.183	0.06
858.47	0.05
858.757	0.03
859.045	0.05
859.332	0.04
859.619	0.03
859.907	0.03
860.194	0.02
860.481	0.04
860.768	0.03
861.054	0.03
861.341	0.04
861.628	0.04
861.915	0.03
862.201	0.03
862.488	0.02
862.774	0.04
863.061	0.03
863.347	0.03
863.633	0.05
863.919	0.04
864.205	0.02
864.491	0.03
864.777	0.03
865.063	0.02
865.349	0.05
865.635	0.04
865.92	0
866.206	0.04
866.492	0.03
866.777	0.02
867.062	0.02
867.348	0.03
867.633	0.05
867.918	0.03
868.203	0.05
868.488	0.04
868.773	0.02
869.058	0.04
869.343	0.03
869.628	0.05
869.912	-0
870.197	0.02
870.482	0.01
870.766	0.05
871.05	0.04
871.335	0.06
871.619	-0
871.903	-0
872.187	0.03
872.471	0.01
872.755	0.03
873.039	0.04
873.323	0.06
873.607	0.03
873.89	0.04
874.174	0.04
874.458	0.03
874.741	0.02
875.024	-0.01
875.308	0.03
875.591	-0.02
875.874	-0.03
876.157	0.06
876.44	0.08
876.723	0.1
877.006	0.03
877.289	0.04
877.572	0.09
877.854	0.04
878.137	-0.01
878.42	0.01
878.702	-0.01
878.984	0.04
879.267	0.08
879.549	-0.01
879.831	-0.05
880.113	0.05
880.395	-0
880.677	0.02
880.959	0.03
