Data from Rubpy_EV_600_EDTA_Buffered_Absorbance_12-56-50-160.txt Node
Date: Tue Jun 30 12:56:50 BST 2026
User: fpm-admin
Spectrometer: OFX00224
Trigger mode: 0
Integration Time (sec): 7.000000E-2
Scans to average: 3
Nonlinearity correction enabled: false
Boxcar width: 0
Storing dark spectrum: false
XAxis mode: Wavelengths
Number of Pixels in Spectrum: 2136
>>>>>Begin Spectral Data<<<<<
154.91	-0.67
155.289	0.45
155.669	0.52
156.048	-0.15
156.428	-0.09
156.807	-0.78
157.186	-0.05
157.566	-0
157.945	-0.12
158.325	0.82
158.704	0.36
159.083	-0.41
159.462	-0.93
159.842	-0.2
160.221	-0
160.6	0.17
160.979	-0.05
161.359	-0
161.738	-0
162.117	-0.19
162.496	-0.27
162.875	-0
163.254	0.26
163.633	-1.28
164.012	-0.65
164.391	-0.62
164.77	-0
165.149	-0
165.528	0.05
165.907	-0
166.286	-0.05
166.665	0.04
167.044	-0
167.423	0.7
167.802	-0.21
168.181	-0
168.559	-0.35
168.938	0.2
169.317	0.04
169.696	-0.32
170.074	-0
170.453	-0.48
170.832	-0
171.21	-0
171.589	0.5
171.968	-0
172.346	-0
172.725	0.32
173.103	-0.35
173.482	0.03
173.861	-0.2
174.239	-0.11
174.617	-0
174.996	-0
175.374	-0
175.753	-1.23
176.131	-0
176.51	-0.45
176.888	0.03
177.266	-0
177.645	-0.06
178.023	-0
178.401	-0.21
178.779	-0.12
179.158	0.08
179.536	-0
179.914	-0
180.292	-0
180.67	-0
181.048	-0
181.427	-0
181.805	0.52
182.183	-0
182.561	-0
182.939	0.5
183.317	-0
183.695	0.21
184.073	-0.15
184.451	-0
184.829	-0.6
185.206	0.21
185.584	0.75
185.962	0.18
186.34	0.32
186.718	-0
187.096	-0
187.473	0.31
187.851	-0
188.229	0.12
188.607	0.05
188.984	0.25
189.362	0.09
189.74	0.15
190.117	0.09
190.495	0.08
190.872	0.16
191.25	0.19
191.627	0.1
192.005	0.15
192.382	0.25
192.76	0.15
193.137	0.3
193.515	0.25
193.892	0.22
194.269	-0.03
194.647	0.1
195.024	0.07
195.401	0.19
195.779	0.15
196.156	0.03
196.533	0.08
196.91	0.17
197.288	0.1
197.665	0.14
198.042	0.06
198.419	0.16
198.796	0.12
199.173	0.15
199.55	0.13
199.927	0.09
200.304	0.16
200.681	0.06
201.058	0.05
201.435	0.12
201.812	0.06
202.189	0.11
202.566	0.24
202.943	0.06
203.32	0.23
203.697	0.15
204.073	0.09
204.45	0.13
204.827	0.16
205.204	0.15
205.58	0.18
205.957	0.11
206.334	0.16
206.71	0.11
207.087	0.14
207.464	0.03
207.84	0.17
208.217	0.13
208.593	0.14
208.97	0.27
209.346	0.1
209.723	0.14
210.099	0.13
210.476	0.12
210.852	0.1
211.228	0.16
211.605	0.12
211.981	0.24
212.357	0.2
212.733	0.1
213.11	0.09
213.486	0.14
213.862	0.03
214.238	0.19
214.614	0.09
214.991	0.09
215.367	0.31
215.743	0.18
216.119	0.06
216.495	0.02
216.871	0.1
217.247	0.12
217.623	0.1
217.999	0.14
218.375	0.14
218.751	0.14
219.127	0.15
219.502	0.22
219.878	0.16
220.254	0.23
220.63	0.11
221.006	0.17
221.381	0.07
221.757	0.27
222.133	0.12
222.508	0.14
222.884	0.1
223.26	0.15
223.635	0.09
224.011	0.09
224.386	0.1
224.762	0.1
225.137	0.22
225.513	0.11
225.888	0.18
226.264	0.17
226.639	0.14
227.014	0.2
227.39	0.14
227.765	0.2
228.14	0.06
228.516	0.21
228.891	0.19
229.266	0.2
229.641	0.19
230.017	0.14
230.392	0.22
230.767	0.17
231.142	0.16
231.517	0.06
231.892	0.17
232.267	0.13
232.642	0.19
233.017	0.14
233.392	0.26
233.767	0.21
234.142	0.16
234.517	0.11
234.892	0.11
235.267	0.09
235.641	0.15
236.016	0.1
236.391	0.17
236.766	0.07
237.14	0.04
237.515	0.22
237.89	0.18
238.264	0.12
238.639	0.23
239.014	0.18
239.388	0.09
239.763	0.17
240.137	0.18
240.512	0.16
240.886	0.03
241.261	0.13
241.635	0.06
242.009	0.22
242.384	0.17
242.758	0.12
243.132	0.18
243.507	0.15
243.881	0.13
244.255	0.13
244.629	0.25
245.004	0.11
245.378	0.13
245.752	0.15
246.126	0.13
246.5	0.14
246.874	0.16
247.248	0.18
247.622	0.05
247.996	0.09
248.37	0.12
248.744	0.06
249.118	0.14
249.492	0.23
249.866	0.22
250.24	0.05
250.613	0.08
250.987	0.11
251.361	0.14
251.735	0.09
252.108	0.12
252.482	0.17
252.856	-0.07
253.229	0.07
253.603	0.09
253.977	0.13
254.35	0.19
254.724	0.12
255.097	0.1
255.471	0.04
255.844	0.12
256.218	0.12
256.591	0.12
256.964	0.13
257.338	0.12
257.711	0.06
258.084	0.07
258.458	0.18
258.831	0.12
259.204	0.11
259.577	0.11
259.95	0.12
260.323	0.14
260.697	0.03
261.07	0.14
261.443	0.09
261.816	0.11
262.189	0.13
262.562	0.1
262.935	0.15
263.308	0.14
263.68	0
264.053	0.1
264.426	0.11
264.799	0.1
265.172	0.11
265.545	0.08
265.917	0.14
266.29	0.1
266.663	0.14
267.035	0.18
267.408	0.06
267.781	0.16
268.153	0.06
268.526	0.08
268.898	0.15
269.271	0.14
269.643	0.17
270.016	0.1
270.388	0.12
270.76	0.14
271.133	0.14
271.505	0.11
271.877	0.22
272.25	0.08
272.622	0.08
272.994	0.12
273.366	0.18
273.739	0.13
274.111	0.11
274.483	0.09
274.855	0.11
275.227	0.19
275.599	0.06
275.971	0.2
276.343	0.11
276.715	0.16
277.087	0.14
277.459	0.19
277.831	0.17
278.203	0.17
278.574	0.12
278.946	0.13
279.318	0.16
279.69	0.19
280.061	0.23
280.433	0.12
280.805	0.17
281.176	0.1
281.548	0.12
281.92	0.14
282.291	0.06
282.663	0.17
283.034	0.15
283.406	0.21
283.777	0.12
284.148	0.14
284.52	0.16
284.891	0.13
285.262	0.13
285.634	0.17
286.005	0.09
286.376	0.07
286.747	0.11
287.119	0.16
287.49	0.1
287.861	0.1
288.232	0.12
288.603	0.06
288.974	0.02
289.345	0.12
289.716	0.11
290.087	0.05
290.458	0.16
290.829	0.03
291.2	0.07
291.571	0.07
291.941	0.12
292.312	0.17
292.683	0.14
293.054	0.08
293.424	0.1
293.795	0.14
294.166	0.09
294.536	0.11
294.907	0.09
295.277	0.16
295.648	0.11
296.018	0.1
296.389	0.16
296.759	0.09
297.13	0.09
297.5	0.12
297.871	0.12
298.241	0.1
298.611	0.08
298.981	0.15
299.352	0.1
299.722	0.1
300.092	0.09
300.462	0.08
300.832	0.09
301.202	0.05
301.573	0.07
301.943	0.09
302.313	0.04
302.683	0.06
303.053	0.07
303.422	0.06
303.792	0.05
304.162	0.07
304.532	0.07
304.902	0.07
305.272	0.06
305.641	0.08
306.011	0.08
306.381	0.07
306.75	0.06
307.12	0.07
307.49	0.07
307.859	0.07
308.229	0.08
308.598	0.06
308.968	0.07
309.337	0.07
309.707	0.07
310.076	0.07
310.445	0.08
310.815	0.08
311.184	0.09
311.553	0.08
311.923	0.08
312.292	0.07
312.661	0.09
313.03	0.08
313.399	0.09
313.768	0.09
314.137	0.08
314.506	0.09
314.875	0.08
315.244	0.08
315.613	0.08
315.982	0.08
316.351	0.08
316.72	0.08
317.089	0.08
317.458	0.08
317.826	0.08
318.195	0.08
318.564	0.08
318.933	0.07
319.301	0.08
319.67	0.08
320.038	0.07
320.407	0.08
320.775	0.07
321.144	0.08
321.512	0.07
321.881	0.07
322.249	0.08
322.618	0.07
322.986	0.07
323.354	0.07
323.723	0.07
324.091	0.07
324.459	0.07
324.827	0.07
325.195	0.07
325.564	0.07
325.932	0.07
326.3	0.06
326.668	0.07
327.036	0.06
327.404	0.06
327.772	0.06
328.14	0.07
328.508	0.06
328.875	0.06
329.243	0.07
329.611	0.06
329.979	0.06
330.346	0.07
330.714	0.07
331.082	0.06
331.449	0.06
331.817	0.06
332.185	0.06
332.552	0.06
332.92	0.06
333.287	0.07
333.655	0.07
334.022	0.07
334.389	0.07
334.757	0.07
335.124	0.07
335.491	0.07
335.859	0.07
336.226	0.07
336.593	0.07
336.96	0.08
337.327	0.08
337.695	0.08
338.062	0.08
338.429	0.08
338.796	0.08
339.163	0.09
339.53	0.08
339.897	0.08
340.263	0.09
340.63	0.09
340.997	0.09
341.364	0.09
341.731	0.09
342.097	0.09
342.464	0.1
342.831	0.09
343.197	0.1
343.564	0.1
343.931	0.1
344.297	0.1
344.664	0.1
345.03	0.11
345.396	0.1
345.763	0.11
346.129	0.11
346.496	0.11
346.862	0.12
347.228	0.12
347.594	0.12
347.961	0.12
348.327	0.12
348.693	0.12
349.059	0.12
349.425	0.12
349.791	0.13
350.157	0.13
350.523	0.13
350.889	0.13
351.255	0.14
351.621	0.14
351.987	0.14
352.353	0.14
352.719	0.15
353.084	0.15
353.45	0.16
353.816	0.16
354.181	0.16
354.547	0.17
354.913	0.17
355.278	0.17
355.644	0.18
356.009	0.18
356.375	0.18
356.74	0.19
357.106	0.19
357.471	0.2
357.836	0.2
358.202	0.2
358.567	0.21
358.932	0.21
359.297	0.21
359.663	0.22
360.028	0.22
360.393	0.23
360.758	0.23
361.123	0.23
361.488	0.23
361.853	0.24
362.218	0.24
362.583	0.24
362.948	0.25
363.312	0.25
363.677	0.25
364.042	0.26
364.407	0.26
364.772	0.27
365.136	0.27
365.501	0.28
365.865	0.28
366.23	0.29
366.595	0.3
366.959	0.3
367.324	0.31
367.688	0.31
368.052	0.32
368.417	0.33
368.781	0.33
369.145	0.34
369.51	0.34
369.874	0.34
370.238	0.33
370.602	0.34
370.967	0.34
371.331	0.34
371.695	0.34
372.059	0.34
372.423	0.34
372.787	0.33
373.151	0.33
373.515	0.33
373.878	0.33
374.242	0.33
374.606	0.33
374.97	0.33
375.334	0.33
375.697	0.33
376.061	0.34
376.425	0.34
376.788	0.34
377.152	0.34
377.515	0.35
377.879	0.35
378.242	0.36
378.606	0.36
378.969	0.36
379.333	0.37
379.696	0.38
380.059	0.38
380.422	0.39
380.786	0.39
381.149	0.4
381.512	0.41
381.875	0.42
382.238	0.43
382.601	0.44
382.964	0.45
383.327	0.47
383.69	0.48
384.053	0.49
384.416	0.5
384.779	0.51
385.142	0.53
385.504	0.53
385.867	0.54
386.23	0.55
386.593	0.56
386.955	0.55
387.318	0.55
387.68	0.55
388.043	0.55
388.405	0.55
388.768	0.55
389.13	0.54
389.493	0.54
389.855	0.53
390.217	0.53
390.58	0.53
390.942	0.53
391.304	0.53
391.666	0.54
392.028	0.55
392.391	0.56
392.753	0.58
393.115	0.6
393.477	0.62
393.839	0.64
394.201	0.66
394.563	0.69
394.924	0.72
395.286	0.75
395.648	0.77
396.01	0.8
396.371	0.83
396.733	0.84
397.095	0.86
397.456	0.87
397.818	0.87
398.18	0.85
398.541	0.84
398.903	0.83
399.264	0.8
399.625	0.78
399.987	0.75
400.348	0.72
400.709	0.68
401.071	0.65
401.432	0.6
401.793	0.57
402.154	0.54
402.515	0.5
402.876	0.46
403.238	0.43
403.599	0.4
403.96	0.37
404.32	0.34
404.681	0.32
405.042	0.3
405.403	0.28
405.764	0.26
406.125	0.23
406.485	0.22
406.846	0.21
407.207	0.19
407.567	0.18
407.928	0.18
408.288	0.16
408.649	0.15
409.009	0.15
409.37	0.14
409.73	0.13
410.091	0.13
410.451	0.12
410.811	0.11
411.171	0.11
411.532	0.1
411.892	0.1
412.252	0.1
412.612	0.1
412.972	0.09
413.332	0.09
413.692	0.08
414.052	0.08
414.412	0.08
414.772	0.08
415.132	0.07
415.492	0.07
415.851	0.07
416.211	0.07
416.571	0.06
416.931	0.06
417.29	0.06
417.65	0.06
418.009	0.06
418.369	0.06
418.728	0.06
419.088	0.05
419.447	0.06
419.807	0.06
420.166	0.05
420.525	0.05
420.884	0.06
421.244	0.05
421.603	0.06
421.962	0.05
422.321	0.05
422.68	0.05
423.039	0.05
423.398	0.05
423.757	0.05
424.116	0.05
424.475	0.05
424.834	0.05
425.193	0.05
425.551	0.04
425.91	0.04
426.269	0.04
426.628	0.05
426.986	0.04
427.345	0.04
427.703	0.04
428.062	0.03
428.42	0.04
428.779	0.04
429.137	0.04
429.496	0.03
429.854	0.04
430.212	0.04
430.57	0.03
430.929	0.04
431.287	0.05
431.645	0.03
432.003	0.04
432.361	0.04
432.719	0.04
433.077	0.04
433.435	0.04
433.793	0.03
434.151	0.03
434.509	0.03
434.866	0.03
435.224	0.04
435.582	0.03
435.94	0.03
436.297	0.03
436.655	0.03
437.012	0.03
437.37	0.04
437.727	0.03
438.085	0.03
438.442	0.03
438.8	0.03
439.157	0.03
439.514	0.03
439.872	0.04
440.229	0.03
440.586	0.03
440.943	0.03
441.3	0.03
441.657	0.03
442.014	0.02
442.371	0.03
442.728	0.03
443.085	0.02
443.442	0.04
443.799	0.02
444.156	0.02
444.513	0.02
444.869	0.04
445.226	0.03
445.583	0.02
445.939	0.03
446.296	0.02
446.652	0.03
447.009	0.02
447.365	0.03
447.722	0.03
448.078	0.03
448.434	0.03
448.791	0.03
449.147	0.02
449.503	0.02
449.859	0.02
450.215	0.02
450.571	0.03
450.928	0.03
451.284	0.02
451.64	0.02
451.995	0.02
452.351	0.01
452.707	0.03
453.063	0.02
453.419	0.02
453.775	0.01
454.13	0.02
454.486	0.03
454.842	0.02
455.197	0.01
455.553	0.02
455.908	0.01
456.264	0.01
456.619	0.02
456.975	0.01
457.33	0.01
457.685	0
458.04	0.01
458.396	0.01
458.751	0.02
459.106	0.01
459.461	0.01
459.816	0.01
460.171	0.01
460.526	0.01
460.881	0.01
461.236	-0
461.591	0
461.946	-0
462.301	0
462.655	0.01
463.01	0
463.365	-0
463.719	-0.01
464.074	0
464.428	-0.01
464.783	-0
465.137	-0.01
465.492	-0
465.846	-0.01
466.201	-0.01
466.555	-0
466.909	-0.01
467.263	-0
467.618	-0.01
467.972	-0.01
468.326	-0.01
468.68	-0.01
469.034	-0.01
469.388	-0.01
469.742	-0.01
470.096	-0.01
470.45	-0.01
470.804	-0.01
471.157	-0.01
471.511	-0.01
471.865	-0
472.218	-0.01
472.572	-0.01
472.926	-0.01
473.279	-0.01
473.633	-0
473.986	-0
474.34	0
474.693	0
475.046	0
475.4	0
475.753	-0
476.106	0.01
476.459	0.01
476.812	0.01
477.165	0.01
477.519	0.01
477.872	0.01
478.224	0.01
478.577	0.02
478.93	0.01
479.283	0.02
479.636	0.02
479.989	0.02
480.341	0.02
480.694	0.02
481.047	0.02
481.399	0.02
481.752	0.02
482.104	0.02
482.457	0.02
482.809	0.02
483.162	0.03
483.514	0.02
483.866	0.02
484.219	0.02
484.571	0.03
484.923	0.03
485.275	0.03
485.627	0.03
485.979	0.03
486.331	0.03
486.683	0.04
487.035	0.03
487.387	0.03
487.739	0.03
488.091	0.03
488.443	0.04
488.794	0.04
489.146	0.04
489.498	0.04
489.849	0.04
490.201	0.03
490.552	0.03
490.904	0.03
491.255	0.04
491.607	0.04
491.958	0.04
492.309	0.04
492.661	0.04
493.012	0.04
493.363	0.04
493.714	0.04
494.065	0.04
494.416	0.05
494.767	0.05
495.118	0.05
495.469	0.05
495.82	0.05
496.171	0.05
496.522	0.05
496.872	0.05
497.223	0.05
497.574	0.05
497.924	0.05
498.275	0.05
498.626	0.06
498.976	0.05
499.327	0.06
499.677	0.06
500.027	0.06
500.378	0.06
500.728	0.06
501.078	0.06
501.428	0.05
501.779	0.06
502.129	0.06
502.479	0.06
502.829	0.06
503.179	0.06
503.529	0.06
503.879	0.06
504.229	0.06
504.578	0.06
504.928	0.06
505.278	0.07
505.628	0.07
505.977	0.07
506.327	0.06
506.676	0.07
507.026	0.07
507.375	0.07
507.725	0.07
508.074	0.07
508.424	0.07
508.773	0.07
509.122	0.08
509.471	0.08
509.82	0.08
510.17	0.08
510.519	0.08
510.868	0.08
511.217	0.07
511.566	0.07
511.915	0.08
512.263	0.08
512.612	0.08
512.961	0.08
513.31	0.08
513.659	0.08
514.007	0.08
514.356	0.09
514.704	0.09
515.053	0.09
515.401	0.09
515.75	0.09
516.098	0.09
516.447	0.09
516.795	0.09
517.143	0.09
517.491	0.09
517.839	0.09
518.188	0.09
518.536	0.09
518.884	0.09
519.232	0.1
519.58	0.1
519.928	0.1
520.275	0.09
520.623	0.1
520.971	0.1
521.319	0.1
521.666	0.1
522.014	0.1
522.362	0.1
522.709	0.1
523.057	0.11
523.404	0.11
523.752	0.11
524.099	0.1
524.446	0.11
524.794	0.11
525.141	0.11
525.488	0.11
525.835	0.11
526.182	0.11
526.529	0.12
526.876	0.12
527.223	0.11
527.57	0.12
527.917	0.12
528.264	0.12
528.611	0.12
528.958	0.12
529.304	0.12
529.651	0.12
529.998	0.13
530.344	0.12
530.691	0.13
531.037	0.13
531.384	0.13
531.73	0.13
532.076	0.13
532.423	0.13
532.769	0.13
533.115	0.13
533.461	0.13
533.807	0.13
534.154	0.13
534.5	0.13
534.846	0.14
535.192	0.13
535.537	0.14
535.883	0.14
536.229	0.14
536.575	0.14
536.921	0.14
537.266	0.14
537.612	0.14
537.957	0.15
538.303	0.15
538.649	0.15
538.994	0.15
539.339	0.14
539.685	0.15
540.03	0.15
540.375	0.15
540.721	0.15
541.066	0.15
541.411	0.16
541.756	0.15
542.101	0.16
542.446	0.16
542.791	0.16
543.136	0.16
543.481	0.16
543.825	0.16
544.17	0.17
544.515	0.16
544.86	0.16
545.204	0.16
545.549	0.17
545.893	0.17
546.238	0.17
546.582	0.17
546.927	0.17
547.271	0.17
547.615	0.17
547.96	0.18
548.304	0.18
548.648	0.18
548.992	0.18
549.336	0.18
549.68	0.18
550.024	0.18
550.368	0.18
550.712	0.19
551.056	0.18
551.4	0.19
551.743	0.19
552.087	0.19
552.431	0.19
552.774	0.19
553.118	0.19
553.462	0.19
553.805	0.2
554.148	0.2
554.492	0.2
554.835	0.2
555.178	0.2
555.522	0.2
555.865	0.2
556.208	0.2
556.551	0.2
556.894	0.2
557.237	0.2
557.58	0.2
557.923	0.2
558.266	0.2
558.609	0.2
558.952	0.21
559.294	0.21
559.637	0.21
559.98	0.21
560.322	0.21
560.665	0.21
561.007	0.21
561.35	0.2
561.692	0.21
562.034	0.21
562.377	0.21
562.719	0.21
563.061	0.2
563.403	0.21
563.745	0.21
564.088	0.21
564.43	0.21
564.772	0.21
565.113	0.22
565.455	0.21
565.797	0.21
566.139	0.21
566.481	0.21
566.822	0.21
567.164	0.21
567.506	0.21
567.847	0.21
568.189	0.22
568.53	0.21
568.872	0.22
569.213	0.22
569.554	0.22
569.895	0.22
570.237	0.22
570.578	0.22
570.919	0.22
571.26	0.22
571.601	0.22
571.942	0.22
572.283	0.22
572.624	0.22
572.965	0.21
573.306	0.21
573.646	0.21
573.987	0.21
574.328	0.22
574.668	0.22
575.009	0.21
575.349	0.22
575.69	0.22
576.03	0.22
576.37	0.21
576.711	0.21
577.051	0.21
577.391	0.21
577.731	0.22
578.072	0.22
578.412	0.21
578.752	0.22
579.092	0.22
579.431	0.21
579.771	0.21
580.111	0.2
580.451	0.2
580.791	0.21
581.13	0.21
581.47	0.22
581.81	0.22
582.149	0.22
582.489	0.22
582.828	0.22
583.167	0.21
583.507	0.19
583.846	0.17
584.185	0.18
584.525	0.2
584.864	0.21
585.203	0.22
585.542	0.22
585.881	0.23
586.22	0.23
586.559	0.22
586.898	0.22
587.236	0.22
587.575	0.22
587.914	0.22
588.252	0.22
588.591	0.23
588.93	0.23
589.268	0.23
589.607	0.23
589.945	0.23
590.283	0.23
590.622	0.23
590.96	0.23
591.298	0.24
591.636	0.24
591.974	0.24
592.313	0.24
592.651	0.24
592.989	0.24
593.326	0.24
593.664	0.25
594.002	0.24
594.34	0.25
594.678	0.25
595.015	0.25
595.353	0.24
595.691	0.25
596.028	0.25
596.366	0.25
596.703	0.25
597.04	0.25
597.378	0.26
597.715	0.26
598.052	0.26
598.389	0.26
598.726	0.27
599.064	0.27
599.401	0.27
599.738	0.26
600.074	0.27
600.411	0.27
600.748	0.26
601.085	0.26
601.422	0.26
601.758	0.26
602.095	0.26
602.432	0.26
602.768	0.26
603.105	0.26
603.441	0.27
603.777	0.27
604.114	0.27
604.45	0.27
604.786	0.27
605.122	0.27
605.459	0.27
605.795	0.27
606.131	0.26
606.467	0.26
606.803	0.27
607.139	0.27
607.474	0.26
607.81	0.26
608.146	0.26
608.482	0.26
608.817	0.26
609.153	0.26
609.488	0.26
609.824	0.26
610.159	0.26
610.495	0.26
610.83	0.26
611.165	0.26
611.5	0.26
611.836	0.26
612.171	0.26
612.506	0.26
612.841	0.26
613.176	0.26
613.511	0.26
613.845	0.26
614.18	0.26
614.515	0.26
614.85	0.26
615.184	0.26
615.519	0.26
615.854	0.25
616.188	0.25
616.523	0.25
616.857	0.25
617.191	0.25
617.526	0.25
617.86	0.25
618.194	0.25
618.528	0.25
618.862	0.25
619.196	0.25
619.53	0.25
619.864	0.25
620.198	0.25
620.532	0.25
620.866	0.25
621.2	0.25
621.533	0.25
621.867	0.25
622.201	0.25
622.534	0.24
622.868	0.24
623.201	0.24
623.534	0.24
623.868	0.24
624.201	0.24
624.534	0.24
624.868	0.24
625.201	0.24
625.534	0.24
625.867	0.24
626.2	0.24
626.533	0.24
626.865	0.24
627.198	0.24
627.531	0.23
627.864	0.23
628.196	0.23
628.529	0.23
628.862	0.23
629.194	0.23
629.527	0.23
629.859	0.23
630.191	0.22
630.524	0.22
630.856	0.22
631.188	0.22
631.52	0.21
631.852	0.22
632.184	0.21
632.516	0.21
632.848	0.21
633.18	0.21
633.512	0.21
633.844	0.21
634.175	0.21
634.507	0.2
634.839	0.2
635.17	0.2
635.502	0.2
635.833	0.2
636.165	0.2
636.496	0.2
636.827	0.2
637.159	0.2
637.49	0.2
637.821	0.2
638.152	0.19
638.483	0.19
638.814	0.19
639.145	0.19
639.476	0.19
639.807	0.19
640.137	0.19
640.468	0.18
640.799	0.18
641.129	0.19
641.46	0.19
641.791	0.18
642.121	0.18
642.451	0.18
642.782	0.17
643.112	0.17
643.442	0.17
643.773	0.17
644.103	0.17
644.433	0.17
644.763	0.16
645.093	0.16
645.423	0.16
645.753	0.16
646.082	0.16
646.412	0.16
646.742	0.16
647.072	0.16
647.401	0.16
647.731	0.16
648.06	0.16
648.39	0.16
648.719	0.16
649.048	0.16
649.378	0.16
649.707	0.16
650.036	0.16
650.365	0.16
650.694	0.15
651.023	0.15
651.352	0.16
651.681	0.16
652.01	0.15
652.339	0.16
652.668	0.16
652.996	0.15
653.325	0.16
653.654	0.15
653.982	0.15
654.311	0.15
654.639	0.15
654.967	0.15
655.296	0.15
655.624	0.15
655.952	0.15
656.28	0.15
656.609	0.15
656.937	0.15
657.265	0.15
657.593	0.14
657.92	0.02
658.248	0
658.576	0
658.904	0.02
659.231	0.09
659.559	0.14
659.887	0.14
660.214	0.15
660.542	0.15
660.869	0.15
661.196	0.15
661.524	0.15
661.851	0.15
662.178	0.15
662.505	0.15
662.832	0.15
663.159	0.15
663.486	0.15
663.813	0.15
664.14	0.15
664.467	0.15
664.794	0.15
665.12	0.15
665.447	0.15
665.774	0.15
666.1	0.15
666.427	0.15
666.753	0.15
667.079	0.15
667.406	0.15
667.732	0.15
668.058	0.15
668.384	0.15
668.71	0.15
669.036	0.14
669.362	0.14
669.688	0.14
670.014	0.14
670.34	0.14
670.666	0.14
670.991	0.14
671.317	0.14
671.643	0.14
671.968	0.14
672.294	0.14
672.619	0.13
672.945	0.13
673.27	0.13
673.595	0.13
673.92	0.13
674.246	0.13
674.571	0.13
674.896	0.13
675.221	0.13
675.546	0.13
675.87	0.13
676.195	0.13
676.52	0.13
676.845	0.13
677.169	0.13
677.494	0.13
677.819	0.13
678.143	0.13
678.468	0.13
678.792	0.13
679.116	0.13
679.44	0.13
679.765	0.12
680.089	0.12
680.413	0.12
680.737	0.12
681.061	0.12
681.385	0.11
681.709	0.11
682.033	0.11
682.356	0.11
682.68	0.11
683.004	0.11
683.327	0.11
683.651	0.1
683.974	0.1
684.298	0.1
684.621	0.1
684.944	0.1
685.268	0.1
685.591	0.1
685.914	0.1
686.237	0.1
686.56	0.1
686.883	0.09
687.206	0.1
687.529	0.1
687.852	0.09
688.175	0.09
688.497	0.09
688.82	0.1
689.142	0.09
689.465	0.09
689.787	0.09
690.11	0.09
690.432	0.08
690.755	0.09
691.077	0.09
691.399	0.08
691.721	0.08
692.043	0.09
692.365	0.09
692.687	0.08
693.009	0.08
693.331	0.08
693.653	0.08
693.974	0.08
694.296	0.08
694.618	0.08
694.939	0.07
695.261	0.08
695.582	0.07
695.904	0.07
696.225	0.08
696.546	0.07
696.868	0.07
697.189	0.07
697.51	0.07
697.831	0.07
698.152	0.07
698.473	0.07
698.794	0.06
699.114	0.06
699.435	0.06
699.756	0.07
700.077	0.07
700.397	0.07
700.718	0.07
701.038	0.07
701.359	0.07
701.679	0.07
701.999	0.07
702.32	0.07
702.64	0.07
702.96	0.07
703.28	0.06
703.6	0.06
703.92	0.06
704.24	0.06
704.56	0.06
704.879	0.06
705.199	0.06
705.519	0.06
705.838	0.06
706.158	0.06
706.478	0.06
706.797	0.06
707.116	0.06
707.436	0.06
707.755	0.06
708.074	0.06
708.393	0.06
708.712	0.06
709.031	0.06
709.35	0.06
709.669	0.06
709.988	0.05
710.307	0.05
710.626	0.06
710.944	0.06
711.263	0.05
711.582	0.05
711.9	0.05
712.219	0.06
712.537	0.05
712.855	0.06
713.174	0.05
713.492	0.05
713.81	0.06
714.128	0.06
714.446	0.05
714.764	0.06
715.082	0.05
715.4	0.06
715.718	0.05
716.035	0.05
716.353	0.06
716.671	0.06
716.988	0.05
717.306	0.06
717.623	0.06
717.941	0.06
718.258	0.06
718.575	0.06
718.893	0.06
719.21	0.06
719.527	0.06
719.844	0.06
720.161	0.06
720.478	0.07
720.795	0.07
721.112	0.06
721.428	0.07
721.745	0.06
722.062	0.06
722.378	0.06
722.695	0.07
723.011	0.07
723.328	0.06
723.644	0.07
723.96	0.06
724.276	0.06
724.593	0.07
724.909	0.06
725.225	0.06
725.541	0.07
725.857	0.07
726.173	0.07
726.488	0.07
726.804	0.06
727.12	0.06
727.435	0.06
727.751	0.06
728.067	0.07
728.382	0.06
728.697	0.07
729.013	0.07
729.328	0.07
729.643	0.07
729.958	0.07
730.273	0.07
730.588	0.07
730.903	0.07
731.218	0.07
731.533	0.07
731.848	0.07
732.163	0.06
732.477	0.06
732.792	0.06
733.107	0.06
733.421	0.06
733.736	0.06
734.05	0.06
734.364	0.06
734.678	0.06
734.993	0.06
735.307	0.06
735.621	0.06
735.935	0.06
736.249	0.06
736.563	0.06
736.877	0.06
737.19	0.06
737.504	0.06
737.818	0.06
738.131	0.06
738.445	0.06
738.758	0.06
739.072	0.06
739.385	0.06
739.698	0.06
740.012	0.06
740.325	0.06
740.638	0.05
740.951	0.05
741.264	0.05
741.577	0.05
741.89	0.06
742.203	0.06
742.515	0.06
742.828	0.06
743.141	0.06
743.453	0.06
743.766	0.05
744.078	0.05
744.391	0.05
744.703	0.05
745.015	0.05
745.327	0.05
745.639	0.05
745.952	0.04
746.264	0.05
746.575	0.05
746.887	0.05
747.199	0.05
747.511	0.05
747.823	0.05
748.134	0.05
748.446	0.05
748.757	0.05
749.069	0.05
749.38	0.05
749.692	0.05
750.003	0.05
750.314	0.05
750.625	0.05
750.936	0.06
751.248	0.05
751.559	0.05
751.869	0.06
752.18	0.06
752.491	0.06
752.802	0.05
753.112	0.05
753.423	0.05
753.734	0.05
754.044	0.04
754.355	0.04
754.665	0.04
754.975	0.04
755.285	0.04
755.596	0.04
755.906	0.04
756.216	0.04
756.526	0.04
756.836	0.04
757.146	0.04
757.455	0.04
757.765	0.03
758.075	0.03
758.385	0.03
758.694	0.03
759.004	0.03
759.313	0.03
759.622	0.03
759.932	0.04
760.241	0.04
760.55	0.04
760.859	0.04
761.168	0.04
761.477	0.04
761.786	0.04
762.095	0.04
762.404	0.04
762.713	0.03
763.021	0.04
763.33	0.03
763.639	0.04
763.947	0.04
764.256	0.04
764.564	0.04
764.872	0.04
765.181	0.04
765.489	0.03
765.797	0.04
766.105	0.03
766.413	0.03
766.721	0.03
767.029	0.03
767.337	0.03
767.644	0.03
767.952	0.04
768.26	0.04
768.567	0.04
768.875	0.03
769.182	0.03
769.49	0.03
769.797	0.03
770.104	0.03
770.411	0.03
770.718	0.03
771.026	0.03
771.333	0.03
771.639	0.03
771.946	0.02
772.253	0.02
772.56	0.03
772.867	0.03
773.173	0.03
773.48	0.03
773.786	0.03
774.093	0.03
774.399	0.03
774.705	0.03
775.012	0.03
775.318	0.03
775.624	0.03
775.93	0.02
776.236	0.03
776.542	0.03
776.848	0.03
777.154	0.03
777.459	0.03
777.765	0.03
778.071	0.03
778.376	0.03
778.682	0.03
778.987	0.03
779.292	0.03
779.598	0.03
779.903	0.03
780.208	0.03
780.513	0.03
780.818	0.03
781.123	0.03
781.428	0.03
781.733	0.03
782.038	0.03
782.343	0.03
782.647	0.04
782.952	0.04
783.256	0.04
783.561	0.04
783.865	0.03
784.17	0.03
784.474	0.03
784.778	0.03
785.082	0.03
785.386	0.03
785.69	0.03
785.994	0.03
786.298	0.03
786.602	0.03
786.906	0.04
787.209	0.03
787.513	0.03
787.817	0.03
788.12	0.02
788.424	0.03
788.727	0.03
789.03	0.03
789.333	0.03
789.637	0.04
789.94	0.03
790.243	0.03
790.546	0.03
790.849	0.02
791.152	0.02
791.454	0.02
791.757	0.02
792.06	0.02
792.362	0.02
792.665	0.02
792.967	0.02
793.27	0.03
793.572	0.03
793.874	0.03
794.177	0.03
794.479	0.03
794.781	0.03
795.083	0.03
795.385	0.03
795.687	0.03
795.989	0.03
796.29	0.03
796.592	0.03
796.894	0.03
797.195	0.03
797.497	0.03
797.798	0.03
798.1	0.03
798.401	0.03
798.702	0.03
799.003	0.04
799.304	0.04
799.605	0.04
799.906	0.03
800.207	0.03
800.508	0.03
800.809	0.03
801.11	0.03
801.41	0.03
801.711	0.03
802.011	0.03
802.312	0.03
802.612	0.03
802.913	0.03
803.213	0.04
803.513	0.04
803.813	0.03
804.113	0.04
804.413	0.04
804.713	0.03
805.013	0.03
805.313	0.03
805.613	0.03
805.912	0.03
806.212	0.03
806.511	0.02
806.811	0.03
807.11	0.02
807.41	0.02
807.709	0.02
808.008	0.02
808.307	0.02
808.606	0.02
808.905	0.03
809.204	0.03
809.503	0.03
809.802	0.03
810.101	0.03
810.399	0.03
810.698	0.04
810.997	0.03
811.295	0.03
811.593	0.04
811.892	0.04
812.19	0.04
812.488	0.03
812.786	0.04
813.084	0.04
813.383	0.03
813.68	0.04
813.978	0.04
814.276	0.04
814.574	0.04
814.872	0.04
815.169	0.04
815.467	0.04
815.764	0.04
816.062	0.04
816.359	0.04
816.656	0.04
816.954	0.04
817.251	0.04
817.548	0.04
817.845	0.04
818.142	0.04
818.439	0.04
818.735	0.03
819.032	0.04
819.329	0.04
819.626	0.04
819.922	0.04
820.219	0.04
820.515	0.05
820.811	0.04
821.108	0.04
821.404	0.04
821.7	0.03
821.996	0.04
822.292	0.04
822.588	0.04
822.884	0.04
823.18	0.03
823.475	0.03
823.771	0.03
824.067	0.03
824.362	0.03
824.658	0.04
824.953	0.03
825.249	0.04
825.544	0.04
825.839	0.04
826.134	0.04
826.429	0.04
826.724	0.04
827.019	0.04
827.314	0.04
827.609	0.05
827.904	0.04
828.198	0.04
828.493	0.04
828.787	0.03
829.082	0.03
829.376	0.04
829.671	0.03
829.965	0.03
830.259	0.04
830.553	0.04
830.847	0.04
831.141	0.04
831.435	0.04
831.729	0.04
832.023	0.04
832.317	0.05
832.61	0.04
832.904	0.04
833.197	0.04
833.491	0.04
833.784	0.05
834.077	0.04
834.371	0.04
834.664	0.05
834.957	0.05
835.25	0.05
835.543	0.04
835.836	0.04
836.129	0.05
836.421	0.03
836.714	0.04
837.007	0.04
837.299	0.03
837.592	0.04
837.884	0.05
838.177	0.04
838.469	0.04
838.761	0.03
839.053	0.03
839.345	0.04
839.637	0.03
839.929	0.04
840.221	0.03
840.513	0.03
840.805	0.03
841.096	0.04
841.388	0.04
841.68	0.04
841.971	0.04
842.262	0.03
842.554	0.03
842.845	0.03
843.136	0.03
843.427	0.04
843.718	0.04
844.009	0.05
844.3	0.04
844.591	0.05
844.882	0.05
845.173	0.03
845.463	0.04
845.754	0.05
846.044	0.05
846.335	0.05
846.625	0.05
846.915	0.05
847.206	0.05
847.496	0.05
847.786	0.05
848.076	0.05
848.366	0.05
848.656	0.04
848.945	0.05
849.235	0.04
849.525	0.04
849.814	0.05
850.104	0.05
850.393	0.04
850.683	0.04
850.972	0.05
851.261	0.05
851.551	0.04
851.84	0.05
852.129	0.05
852.418	0.04
852.707	0.04
852.995	0.04
853.284	0.05
853.573	0.05
853.862	0.06
854.15	0.04
854.439	0.04
854.727	0.06
855.015	0.05
855.304	0.03
855.592	0.04
855.88	0.03
856.168	0.03
856.456	0.04
856.744	0.04
857.032	0.04
857.32	0.05
857.607	0.05
857.895	0.03
858.183	0.05
858.47	0.05
858.757	0.04
859.045	0.05
859.332	0.05
859.619	0.03
859.907	0.04
860.194	0.04
860.481	0.04
860.768	0.05
861.054	0.03
861.341	0.03
861.628	0.03
861.915	0.04
862.201	0.04
862.488	0.03
862.774	0.03
863.061	0.02
863.347	0.03
863.633	0.04
863.919	0.05
864.205	0.04
864.491	0.04
864.777	0.04
865.063	0.04
865.349	0.05
865.635	0.02
865.92	0.02
866.206	0.05
866.492	0.04
866.777	0.04
867.062	0.05
867.348	0.04
867.633	0.06
867.918	0.06
868.203	0.06
868.488	0.04
868.773	0.02
869.058	0.06
869.343	0.01
869.628	0.02
869.912	0.02
870.197	0.03
870.482	0
870.766	0.03
871.05	0.04
871.335	0.01
871.619	0.01
871.903	0.04
872.187	0.06
872.471	0.03
872.755	0.05
873.039	0.04
873.323	0.06
873.607	0.05
873.89	0.03
874.174	0.07
874.458	0.02
874.741	0.06
875.024	0.01
875.308	0.01
875.591	-0.02
875.874	-0.02
876.157	0.01
876.44	0.01
876.723	0.06
877.006	0.05
877.289	0.06
877.572	-0.01
877.854	-0.02
878.137	0.02
878.42	-0.03
878.702	-0.02
878.984	0.04
879.267	0.05
879.549	0.03
879.831	0.07
880.113	0.02
880.395	0.01
880.677	0.02
880.959	0.05
