Data from Rubpy_EV_600_EDTA_Buffered_Absorbance_12-52-09-997.txt Node
Date: Tue Jun 30 12:52:09 BST 2026
User: fpm-admin
Spectrometer: OFX00224
Trigger mode: 0
Integration Time (sec): 7.000000E-2
Scans to average: 3
Nonlinearity correction enabled: false
Boxcar width: 0
Storing dark spectrum: false
XAxis mode: Wavelengths
Number of Pixels in Spectrum: 2136
>>>>>Begin Spectral Data<<<<<
154.91	-1.21
155.289	0.98
155.669	0.62
156.048	-0.42
156.428	-0
156.807	-0.64
157.186	-0
157.566	-0
157.945	1.23
158.325	-0
158.704	-0
159.083	-0.62
159.462	-1.08
159.842	-0
160.221	-0
160.6	0.47
160.979	-0.18
161.359	-0
161.738	1.15
162.117	-0.73
162.496	-0.05
162.875	-0
163.254	0.47
163.633	-0
164.012	-0
164.391	-0.51
164.77	-0
165.149	-0.1
165.528	0.94
165.907	-0
166.286	-0
166.665	0.56
167.044	-0
167.423	0.32
167.802	-0.15
168.181	-0
168.559	-0
168.938	0.2
169.317	0.32
169.696	-0.4
170.074	0.43
170.453	-0
170.832	0.1
171.21	-0
171.589	0.5
171.968	-0
172.346	-0
172.725	0.8
173.103	-0
173.482	0.27
173.861	-0
174.239	-0.18
174.617	-0
174.996	-0
175.374	-0
175.753	-1.37
176.131	-0
176.51	0.08
176.888	0.23
177.266	-0
177.645	0
178.023	1.45
178.401	-0.01
178.779	-0.08
179.158	0.75
179.536	-0
179.914	0.23
180.292	0.35
180.67	-0
181.048	-0
181.427	-1.43
181.805	-0
182.183	-0.85
182.561	-0
182.939	-0
183.317	0.44
183.695	0.09
184.073	0.07
184.451	-0
184.829	-1.2
185.206	-0.13
185.584	0.23
185.962	-0.78
186.34	-0.12
186.718	-0
187.096	0.18
187.473	-0
187.851	-0.16
188.229	0.18
188.607	0.11
188.984	0.01
189.362	-0.03
189.74	0.08
190.117	-0.03
190.495	0.04
190.872	0.01
191.25	0.12
191.627	0.04
192.005	0.07
192.382	0.09
192.76	0.13
193.137	0.05
193.515	0.04
193.892	0.13
194.269	0.06
194.647	0.09
195.024	0.01
195.401	0.03
195.779	0.03
196.156	0.01
196.533	0.05
196.91	0.08
197.288	0.02
197.665	-0.03
198.042	0.04
198.419	0.02
198.796	0.11
199.173	0.01
199.55	-0.02
199.927	0.04
200.304	-0.01
200.681	0.07
201.058	0.03
201.435	0.04
201.812	0.09
202.189	0.09
202.566	0.01
202.943	0.06
203.32	0.04
203.697	0.05
204.073	0.05
204.45	0.04
204.827	0.16
205.204	0.07
205.58	0.06
205.957	0.08
206.334	0
206.71	0.07
207.087	0.02
207.464	-0
207.84	0.04
208.217	0.05
208.593	0.1
208.97	0.05
209.346	0.08
209.723	0.11
210.099	0.05
210.476	0.06
210.852	0.12
211.228	-0.02
211.605	0.03
211.981	0.07
212.357	0.01
212.733	0.04
213.11	0
213.486	0.06
213.862	-0.02
214.238	-0
214.614	0.02
214.991	-0.06
215.367	0.03
215.743	-0.02
216.119	0.04
216.495	-0.08
216.871	0.03
217.247	0.06
217.623	0.01
217.999	0.04
218.375	0.13
218.751	-0.01
219.127	0.14
219.502	0.07
219.878	0.06
220.254	0.08
220.63	0.04
221.006	-0.04
221.381	0.01
221.757	0.07
222.133	0.08
222.508	0
222.884	0.06
223.26	0.06
223.635	0.1
224.011	-0.01
224.386	0.07
224.762	0.03
225.137	0.02
225.513	0.06
225.888	0.06
226.264	0.06
226.639	0.09
227.014	0.12
227.39	0.03
227.765	0.11
228.14	0.07
228.516	-0.05
228.891	0.05
229.266	0.08
229.641	0.03
230.017	0.12
230.392	0.12
230.767	0.11
231.142	0
231.517	-0
231.892	0.06
232.267	0.06
232.642	0.02
233.017	0.06
233.392	0.07
233.767	0.05
234.142	0.1
234.517	0.03
234.892	0.06
235.267	0.03
235.641	0.07
236.016	0.02
236.391	0.06
236.766	0.03
237.14	0.01
237.515	0.05
237.89	0.1
238.264	0.03
238.639	0.17
239.014	0
239.388	0.06
239.763	-0.01
240.137	0.01
240.512	0.02
240.886	-0.02
241.261	0.06
241.635	0.05
242.009	0.15
242.384	0.03
242.758	0.12
243.132	0.02
243.507	0.02
243.881	0.1
244.255	0.03
244.629	0.1
245.004	0.1
245.378	0.04
245.752	0.1
246.126	0.12
246.5	0.04
246.874	0.06
247.248	0.04
247.622	0.07
247.996	0.09
248.37	0.03
248.744	-0.01
249.118	0.1
249.492	0.07
249.866	0.05
250.24	0.02
250.613	0.02
250.987	-0.01
251.361	0.1
251.735	0.04
252.108	-0.04
252.482	0.07
252.856	-0.08
253.229	-0.03
253.603	-0.02
253.977	0
254.35	0.06
254.724	0.08
255.097	0.02
255.471	-0.06
255.844	0.06
256.218	0.06
256.591	0.05
256.964	-0
257.338	0.05
257.711	0.05
258.084	0.02
258.458	0.09
258.831	0.08
259.204	0.05
259.577	0.09
259.95	0.06
260.323	-0
260.697	0.06
261.07	0.03
261.443	0.03
261.816	0.03
262.189	0.04
262.562	0.07
262.935	0.04
263.308	0.03
263.68	0
264.053	0.04
264.426	0.04
264.799	-0.05
265.172	-0.03
265.545	0.03
265.917	0.04
266.29	0.08
266.663	0.02
267.035	0.07
267.408	0.07
267.781	0.03
268.153	0.04
268.526	0.11
268.898	0.04
269.271	0.06
269.643	0.05
270.016	0.04
270.388	0.01
270.76	0.02
271.133	0.02
271.505	0.05
271.877	0.01
272.25	-0.02
272.622	0.04
272.994	0.04
273.366	0.14
273.739	0.07
274.111	-0.01
274.483	-0
274.855	0.05
275.227	0.08
275.599	-0.02
275.971	0.05
276.343	0.05
276.715	0.05
277.087	0.01
277.459	0.03
277.831	0.04
278.203	0.08
278.574	0.06
278.946	0.1
279.318	0.06
279.69	0.11
280.061	0.02
280.433	0.03
280.805	0.09
281.176	0.02
281.548	0.05
281.92	0.03
282.291	0.03
282.663	0.01
283.034	0.02
283.406	0.06
283.777	0.05
284.148	0.05
284.52	0.02
284.891	0.06
285.262	0.04
285.634	0.07
286.005	0.05
286.376	-0
286.747	0.02
287.119	0.01
287.49	0.05
287.861	0.02
288.232	0.08
288.603	0.03
288.974	-0.01
289.345	0.02
289.716	0.02
290.087	-0.04
290.458	0.04
290.829	0.03
291.2	-0.02
291.571	0.03
291.941	0.05
292.312	0.07
292.683	0.05
293.054	-0
293.424	0.02
293.795	0.06
294.166	0.01
294.536	0.04
294.907	0.03
295.277	0.06
295.648	-0.03
296.018	0.07
296.389	0.04
296.759	0.01
297.13	-0.01
297.5	0.04
297.871	0.05
298.241	0
298.611	0.02
298.981	0.04
299.352	0.04
299.722	0.02
300.092	0.02
300.462	0.02
300.832	0.03
301.202	0.01
301.573	0.01
301.943	0.02
302.313	0
302.683	-0
303.053	0.01
303.422	0.01
303.792	0.01
304.162	0.02
304.532	0
304.902	0.01
305.272	0
305.641	0.01
306.011	0.01
306.381	0
306.75	0
307.12	0.01
307.49	0.01
307.859	-0
308.229	0.01
308.598	0.01
308.968	0
309.337	0
309.707	0.01
310.076	0
310.445	0
310.815	0.01
311.184	0.01
311.553	0.01
311.923	0
312.292	0
312.661	0.01
313.03	0
313.399	0.01
313.768	0.01
314.137	0
314.506	0.01
314.875	0.01
315.244	0.01
315.613	0
315.982	0.01
316.351	0
316.72	0.01
317.089	0.01
317.458	0.01
317.826	0
318.195	0.01
318.564	0.01
318.933	0.01
319.301	0.01
319.67	0.01
320.038	0.01
320.407	0.01
320.775	0
321.144	0.01
321.512	0.01
321.881	0.01
322.249	0.01
322.618	0.01
322.986	0.01
323.354	0.01
323.723	0.01
324.091	0
324.459	0
324.827	0.01
325.195	0
325.564	0.01
325.932	0.01
326.3	0.01
326.668	0.01
327.036	0.01
327.404	0
327.772	0.01
328.14	0.01
328.508	0.01
328.875	0
329.243	0.01
329.611	-0
329.979	0.01
330.346	0.01
330.714	0.01
331.082	0
331.449	0.01
331.817	0
332.185	0
332.552	0.01
332.92	0
333.287	0.01
333.655	0
334.022	0.01
334.389	0.01
334.757	0.01
335.124	0.01
335.491	0
335.859	0.01
336.226	0.01
336.593	0.01
336.96	0.01
337.327	0.01
337.695	0.01
338.062	0.01
338.429	0.01
338.796	0.01
339.163	0.01
339.53	0.01
339.897	0.01
340.263	0.01
340.63	0.01
340.997	0.01
341.364	0.01
341.731	0.01
342.097	0.01
342.464	0.01
342.831	0.01
343.197	0.01
343.564	0.01
343.931	0.01
344.297	0.01
344.664	0.01
345.03	0.01
345.396	0.01
345.763	0.01
346.129	0.01
346.496	0.01
346.862	0.01
347.228	0.01
347.594	0.01
347.961	0.01
348.327	0.01
348.693	0.01
349.059	0.01
349.425	0.01
349.791	0.01
350.157	0.01
350.523	0.01
350.889	0.01
351.255	0.02
351.621	0.01
351.987	0.01
352.353	0.02
352.719	0.02
353.084	0.02
353.45	0.01
353.816	0.01
354.181	0.02
354.547	0.02
354.913	0.01
355.278	0.02
355.644	0.01
356.009	0.01
356.375	0.02
356.74	0.02
357.106	0.02
357.471	0.02
357.836	0.02
358.202	0.02
358.567	0.02
358.932	0.02
359.297	0.02
359.663	0.03
360.028	0.02
360.393	0.02
360.758	0.02
361.123	0.02
361.488	0.02
361.853	0.03
362.218	0.02
362.583	0.02
362.948	0.02
363.312	0.02
363.677	0.02
364.042	0.02
364.407	0.02
364.772	0.03
365.136	0.03
365.501	0.03
365.865	0.03
366.23	0.03
366.595	0.03
366.959	0.03
367.324	0.03
367.688	0.03
368.052	0.03
368.417	0.03
368.781	0.03
369.145	0.03
369.51	0.03
369.874	0.04
370.238	0.03
370.602	0.03
370.967	0.03
371.331	0.03
371.695	0.03
372.059	0.03
372.423	0.04
372.787	0.03
373.151	0.03
373.515	0.04
373.878	0.03
374.242	0.03
374.606	0.04
374.97	0.03
375.334	0.03
375.697	0.03
376.061	0.03
376.425	0.04
376.788	0.03
377.152	0.03
377.515	0.03
377.879	0.04
378.242	0.03
378.606	0.03
378.969	0.03
379.333	0.04
379.696	0.04
380.059	0.04
380.422	0.04
380.786	0.04
381.149	0.04
381.512	0.04
381.875	0.04
382.238	0.04
382.601	0.05
382.964	0.05
383.327	0.05
383.69	0.05
384.053	0.05
384.416	0.05
384.779	0.05
385.142	0.06
385.504	0.05
385.867	0.05
386.23	0.05
386.593	0.06
386.955	0.05
387.318	0.06
387.68	0.06
388.043	0.05
388.405	0.06
388.768	0.06
389.13	0.05
389.493	0.05
389.855	0.06
390.217	0.05
390.58	0.05
390.942	0.05
391.304	0.05
391.666	0.05
392.028	0.06
392.391	0.06
392.753	0.06
393.115	0.06
393.477	0.07
393.839	0.06
394.201	0.07
394.563	0.07
394.924	0.07
395.286	0.08
395.648	0.08
396.01	0.08
396.371	0.09
396.733	0.08
397.095	0.09
397.456	0.09
397.818	0.09
398.18	0.09
398.541	0.09
398.903	0.09
399.264	0.08
399.625	0.08
399.987	0.08
400.348	0.08
400.709	0.07
401.071	0.07
401.432	0.06
401.793	0.06
402.154	0.06
402.515	0.05
402.876	0.05
403.238	0.04
403.599	0.04
403.96	0.04
404.32	0.04
404.681	0.04
405.042	0.04
405.403	0.03
405.764	0.03
406.125	0.02
406.485	0.02
406.846	0.02
407.207	0.02
407.567	0.02
407.928	0.02
408.288	0.02
408.649	0.02
409.009	0.02
409.37	0.02
409.73	0.01
410.091	0.01
410.451	0.02
410.811	0.01
411.171	0.02
411.532	0.01
411.892	0.02
412.252	0.01
412.612	0.01
412.972	0.01
413.332	0.01
413.692	0.01
414.052	0.01
414.412	0.01
414.772	0.01
415.132	0.01
415.492	0.01
415.851	0.01
416.211	0.02
416.571	0.01
416.931	0.01
417.29	0.01
417.65	0.01
418.009	0
418.369	0.01
418.728	0.01
419.088	0.01
419.447	0.01
419.807	0
420.166	0.01
420.525	0.01
420.884	0.01
421.244	0.01
421.603	0.01
421.962	0.01
422.321	0.01
422.68	0.01
423.039	0.01
423.398	0.01
423.757	0.01
424.116	0.01
424.475	0.01
424.834	0.01
425.193	0.02
425.551	0.01
425.91	0.01
426.269	0.01
426.628	0.01
426.986	0.01
427.345	0
427.703	0.01
428.062	0.01
428.42	0.01
428.779	0.01
429.137	0.01
429.496	0
429.854	0.01
430.212	0.01
430.57	0.01
430.929	0.01
431.287	0.01
431.645	-0
432.003	0.01
432.361	0.01
432.719	0.01
433.077	0.02
433.435	0.01
433.793	0.01
434.151	0
434.509	0.01
434.866	0.01
435.224	0.01
435.582	0
435.94	0.01
436.297	0.01
436.655	0.01
437.012	0.01
437.37	0.01
437.727	0
438.085	0
438.442	0.01
438.8	0
439.157	0.01
439.514	0.01
439.872	0.01
440.229	0.01
440.586	0
440.943	0
441.3	0.01
441.657	0
442.014	0.01
442.371	0.01
442.728	0
443.085	0.01
443.442	0.01
443.799	0
444.156	0
444.513	0
444.869	0.01
445.226	0.01
445.583	0
445.939	0
446.296	0.01
446.652	0.01
447.009	0
447.365	0.01
447.722	0
448.078	0
448.434	0
448.791	-0
449.147	0.01
449.503	-0
449.859	-0
450.215	0.01
450.571	0.01
450.928	0.01
451.284	0.01
451.64	-0
451.995	-0
452.351	-0.01
452.707	0
453.063	-0
453.419	0.01
453.775	-0
454.13	-0
454.486	0.01
454.842	-0
455.197	0
455.553	0
455.908	-0
456.264	-0.01
456.619	-0
456.975	-0
457.33	-0.01
457.685	-0.01
458.04	-0.01
458.396	-0.01
458.751	-0
459.106	-0.01
459.461	-0.01
459.816	-0.01
460.171	-0.01
460.526	-0.01
460.881	-0.01
461.236	-0.02
461.591	-0.01
461.946	-0.02
462.301	-0.01
462.655	-0.01
463.01	-0.03
463.365	-0.02
463.719	-0.02
464.074	-0.01
464.428	-0.02
464.783	-0.02
465.137	-0.03
465.492	-0.02
465.846	-0.02
466.201	-0.03
466.555	-0.02
466.909	-0.03
467.263	-0.02
467.618	-0.03
467.972	-0.02
468.326	-0.03
468.68	-0.03
469.034	-0.03
469.388	-0.03
469.742	-0.03
470.096	-0.03
470.45	-0.03
470.804	-0.03
471.157	-0.02
471.511	-0.02
471.865	-0.03
472.218	-0.02
472.572	-0.03
472.926	-0.02
473.279	-0.03
473.633	-0.03
473.986	-0.02
474.34	-0.02
474.693	-0.02
475.046	-0.02
475.4	-0.02
475.753	-0.03
476.106	-0.02
476.459	-0.01
476.812	-0.01
477.165	-0.01
477.519	-0.01
477.872	-0.01
478.224	-0.01
478.577	-0.01
478.93	-0.01
479.283	-0.01
479.636	-0.01
479.989	-0.01
480.341	-0.01
480.694	-0.01
481.047	-0.01
481.399	-0.01
481.752	-0
482.104	-0
482.457	-0.01
482.809	-0
483.162	-0
483.514	0
483.866	-0
484.219	-0
484.571	-0
484.923	-0
485.275	0
485.627	-0
485.979	0
486.331	-0
486.683	0
487.035	0
487.387	0
487.739	0
488.091	0
488.443	0
488.794	0
489.146	0.01
489.498	0
489.849	0
490.201	-0
490.552	0
490.904	-0
491.255	0
491.607	0
491.958	0
492.309	0
492.661	0
493.012	0
493.363	0
493.714	0
494.065	0
494.416	0.01
494.767	0.01
495.118	0.01
495.469	0.01
495.82	0.01
496.171	0.01
496.522	0.01
496.872	0.01
497.223	0.01
497.574	0.01
497.924	0.01
498.275	0.01
498.626	0.01
498.976	0.01
499.327	0.01
499.677	0.01
500.027	0.01
500.378	0.01
500.728	0.01
501.078	0.01
501.428	0
501.779	0.01
502.129	0.01
502.479	0.01
502.829	0.01
503.179	0.01
503.529	0.01
503.879	0.01
504.229	0.01
504.578	0.01
504.928	0.01
505.278	0.01
505.628	0.01
505.977	0.01
506.327	0.01
506.676	0.01
507.026	0.01
507.375	0.01
507.725	0.01
508.074	0.01
508.424	0.01
508.773	0.01
509.122	0.01
509.471	0.02
509.82	0.01
510.17	0.02
510.519	0.02
510.868	0.01
511.217	0.01
511.566	0.01
511.915	0.01
512.263	0.01
512.612	0.01
512.961	0.01
513.31	0.01
513.659	0.01
514.007	0.01
514.356	0.02
514.704	0.02
515.053	0.01
515.401	0.02
515.75	0.02
516.098	0.01
516.447	0.02
516.795	0.01
517.143	0.02
517.491	0.02
517.839	0.02
518.188	0.02
518.536	0.02
518.884	0.01
519.232	0.02
519.58	0.02
519.928	0.02
520.275	0.01
520.623	0.02
520.971	0.02
521.319	0.02
521.666	0.02
522.014	0.02
522.362	0.02
522.709	0.02
523.057	0.02
523.404	0.02
523.752	0.02
524.099	0.02
524.446	0.02
524.794	0.02
525.141	0.02
525.488	0.02
525.835	0.02
526.182	0.02
526.529	0.02
526.876	0.02
527.223	0.02
527.57	0.03
527.917	0.02
528.264	0.02
528.611	0.02
528.958	0.02
529.304	0.02
529.651	0.02
529.998	0.03
530.344	0.02
530.691	0.03
531.037	0.02
531.384	0.02
531.73	0.03
532.076	0.03
532.423	0.02
532.769	0.02
533.115	0.02
533.461	0.02
533.807	0.02
534.154	0.02
534.5	0.02
534.846	0.03
535.192	0.02
535.537	0.02
535.883	0.02
536.229	0.02
536.575	0.02
536.921	0.02
537.266	0.02
537.612	0.02
537.957	0.03
538.303	0.02
538.649	0.03
538.994	0.03
539.339	0.03
539.685	0.02
540.03	0.02
540.375	0.03
540.721	0.03
541.066	0.03
541.411	0.03
541.756	0.03
542.101	0.03
542.446	0.03
542.791	0.03
543.136	0.03
543.481	0.02
543.825	0.03
544.17	0.03
544.515	0.02
544.86	0.03
545.204	0.02
545.549	0.03
545.893	0.03
546.238	0.03
546.582	0.03
546.927	0.03
547.271	0.03
547.615	0.02
547.96	0.03
548.304	0.03
548.648	0.02
548.992	0.03
549.336	0.03
549.68	0.03
550.024	0.03
550.368	0.03
550.712	0.03
551.056	0.03
551.4	0.03
551.743	0.03
552.087	0.03
552.431	0.03
552.774	0.03
553.118	0.03
553.462	0.03
553.805	0.03
554.148	0.03
554.492	0.03
554.835	0.03
555.178	0.03
555.522	0.04
555.865	0.03
556.208	0.03
556.551	0.03
556.894	0.03
557.237	0.03
557.58	0.03
557.923	0.03
558.266	0.03
558.609	0.03
558.952	0.03
559.294	0.04
559.637	0.03
559.98	0.03
560.322	0.03
560.665	0.03
561.007	0.03
561.35	0.03
561.692	0.03
562.034	0.03
562.377	0.03
562.719	0.03
563.061	0.03
563.403	0.03
563.745	0.03
564.088	0.03
564.43	0.03
564.772	0.03
565.113	0.03
565.455	0.03
565.797	0.03
566.139	0.03
566.481	0.03
566.822	0.03
567.164	0.03
567.506	0.03
567.847	0.03
568.189	0.03
568.53	0.03
568.872	0.03
569.213	0.03
569.554	0.03
569.895	0.03
570.237	0.03
570.578	0.03
570.919	0.03
571.26	0.03
571.601	0.03
571.942	0.03
572.283	0.03
572.624	0.03
572.965	0.03
573.306	0.03
573.646	0.03
573.987	0.03
574.328	0.03
574.668	0.03
575.009	0.03
575.349	0.03
575.69	0.03
576.03	0.03
576.37	0.03
576.711	0.03
577.051	0.03
577.391	0.03
577.731	0.03
578.072	0.03
578.412	0.03
578.752	0.03
579.092	0.03
579.431	0.03
579.771	0.03
580.111	0.02
580.451	0.02
580.791	0.03
581.13	0.03
581.47	0.03
581.81	0.03
582.149	0.03
582.489	0.03
582.828	0.03
583.167	0.02
583.507	0.02
583.846	0.01
584.185	0.01
584.525	0.02
584.864	0.03
585.203	0.03
585.542	0.03
585.881	0.03
586.22	0.03
586.559	0.03
586.898	0.03
587.236	0.02
587.575	0.03
587.914	0.03
588.252	0.03
588.591	0.03
588.93	0.03
589.268	0.03
589.607	0.03
589.945	0.03
590.283	0.03
590.622	0.03
590.96	0.03
591.298	0.03
591.636	0.03
591.974	0.03
592.313	0.03
592.651	0.03
592.989	0.03
593.326	0.03
593.664	0.03
594.002	0.03
594.34	0.03
594.678	0.03
595.015	0.03
595.353	0.03
595.691	0.03
596.028	0.03
596.366	0.03
596.703	0.03
597.04	0.03
597.378	0.03
597.715	0.03
598.052	0.03
598.389	0.04
598.726	0.04
599.064	0.04
599.401	0.04
599.738	0.04
600.074	0.04
600.411	0.04
600.748	0.03
601.085	0.03
601.422	0.03
601.758	0.03
602.095	0.03
602.432	0.03
602.768	0.03
603.105	0.03
603.441	0.04
603.777	0.04
604.114	0.03
604.45	0.03
604.786	0.04
605.122	0.03
605.459	0.03
605.795	0.03
606.131	0.03
606.467	0.03
606.803	0.03
607.139	0.03
607.474	0.03
607.81	0.03
608.146	0.03
608.482	0.03
608.817	0.03
609.153	0.03
609.488	0.03
609.824	0.03
610.159	0.03
610.495	0.03
610.83	0.03
611.165	0.03
611.5	0.03
611.836	0.04
612.171	0.03
612.506	0.04
612.841	0.04
613.176	0.03
613.511	0.03
613.845	0.03
614.18	0.04
614.515	0.03
614.85	0.03
615.184	0.03
615.519	0.03
615.854	0.03
616.188	0.03
616.523	0.03
616.857	0.03
617.191	0.03
617.526	0.03
617.86	0.03
618.194	0.03
618.528	0.03
618.862	0.03
619.196	0.04
619.53	0.03
619.864	0.03
620.198	0.03
620.532	0.03
620.866	0.04
621.2	0.03
621.533	0.03
621.867	0.04
622.201	0.04
622.534	0.04
622.868	0.03
623.201	0.04
623.534	0.03
623.868	0.04
624.201	0.04
624.534	0.03
624.868	0.03
625.201	0.04
625.534	0.04
625.867	0.04
626.2	0.04
626.533	0.04
626.865	0.04
627.198	0.04
627.531	0.03
627.864	0.03
628.196	0.03
628.529	0.03
628.862	0.03
629.194	0.03
629.527	0.04
629.859	0.04
630.191	0.03
630.524	0.03
630.856	0.03
631.188	0.03
631.52	0.03
631.852	0.03
632.184	0.03
632.516	0.03
632.848	0.03
633.18	0.03
633.512	0.03
633.844	0.03
634.175	0.03
634.507	0.03
634.839	0.03
635.17	0.03
635.502	0.03
635.833	0.03
636.165	0.03
636.496	0.03
636.827	0.03
637.159	0.03
637.49	0.04
637.821	0.03
638.152	0.03
638.483	0.03
638.814	0.03
639.145	0.03
639.476	0.03
639.807	0.03
640.137	0.03
640.468	0.03
640.799	0.03
641.129	0.03
641.46	0.03
641.791	0.04
642.121	0.03
642.451	0.03
642.782	0.03
643.112	0.03
643.442	0.03
643.773	0.04
644.103	0.03
644.433	0.04
644.763	0.03
645.093	0.03
645.423	0.03
645.753	0.03
646.082	0.03
646.412	0.03
646.742	0.03
647.072	0.03
647.401	0.03
647.731	0.03
648.06	0.03
648.39	0.03
648.719	0.03
649.048	0.03
649.378	0.03
649.707	0.03
650.036	0.03
650.365	0.03
650.694	0.02
651.023	0.03
651.352	0.03
651.681	0.03
652.01	0.03
652.339	0.03
652.668	0.03
652.996	0.03
653.325	0.03
653.654	0.03
653.982	0.03
654.311	0.03
654.639	0.03
654.967	0.03
655.296	0.03
655.624	0.03
655.952	0.03
656.28	0.03
656.609	0.03
656.937	0.03
657.265	0.03
657.593	0.01
657.92	0
658.248	0
658.576	0
658.904	0
659.231	0
659.559	0.02
659.887	0.02
660.214	0.03
660.542	0.03
660.869	0.03
661.196	0.03
661.524	0.03
661.851	0.03
662.178	0.03
662.505	0.03
662.832	0.03
663.159	0.03
663.486	0.03
663.813	0.03
664.14	0.04
664.467	0.03
664.794	0.03
665.12	0.03
665.447	0.03
665.774	0.03
666.1	0.03
666.427	0.03
666.753	0.03
667.079	0.03
667.406	0.03
667.732	0.03
668.058	0.03
668.384	0.03
668.71	0.03
669.036	0.03
669.362	0.03
669.688	0.03
670.014	0.03
670.34	0.03
670.666	0.03
670.991	0.03
671.317	0.03
671.643	0.03
671.968	0.03
672.294	0.03
672.619	0.03
672.945	0.03
673.27	0.03
673.595	0.03
673.92	0.02
674.246	0.03
674.571	0.03
674.896	0.03
675.221	0.03
675.546	0.03
675.87	0.03
676.195	0.03
676.52	0.03
676.845	0.03
677.169	0.03
677.494	0.03
677.819	0.03
678.143	0.03
678.468	0.03
678.792	0.03
679.116	0.03
679.44	0.03
679.765	0.03
680.089	0.03
680.413	0.03
680.737	0.03
681.061	0.02
681.385	0.02
681.709	0.02
682.033	0.02
682.356	0.02
682.68	0.02
683.004	0.02
683.327	0.02
683.651	0.02
683.974	0.02
684.298	0.02
684.621	0.02
684.944	0.02
685.268	0.02
685.591	0.02
685.914	0.02
686.237	0.02
686.56	0.03
686.883	0.02
687.206	0.03
687.529	0.02
687.852	0.02
688.175	0.02
688.497	0.03
688.82	0.03
689.142	0.03
689.465	0.02
689.787	0.02
690.11	0.03
690.432	0.02
690.755	0.02
691.077	0.02
691.399	0.02
691.721	0.02
692.043	0.02
692.365	0.03
692.687	0.02
693.009	0.02
693.331	0.02
693.653	0.02
693.974	0.02
694.296	0.02
694.618	0.02
694.939	0.02
695.261	0.02
695.582	0.02
695.904	0.02
696.225	0.02
696.546	0.02
696.868	0.02
697.189	0.02
697.51	0.02
697.831	0.02
698.152	0.02
698.473	0.02
698.794	0.02
699.114	0.02
699.435	0.02
699.756	0.02
700.077	0.02
700.397	0.02
700.718	0.02
701.038	0.02
701.359	0.02
701.679	0.03
701.999	0.03
702.32	0.03
702.64	0.02
702.96	0.02
703.28	0.02
703.6	0.02
703.92	0.02
704.24	0.02
704.56	0.02
704.879	0.02
705.199	0.02
705.519	0.02
705.838	0.02
706.158	0.02
706.478	0.02
706.797	0.02
707.116	0.02
707.436	0.02
707.755	0.02
708.074	0.02
708.393	0.02
708.712	0.02
709.031	0.02
709.35	0.02
709.669	0.02
709.988	0.02
710.307	0.02
710.626	0.02
710.944	0.02
711.263	0.02
711.582	0.02
711.9	0.02
712.219	0.02
712.537	0.02
712.855	0.02
713.174	0.02
713.492	0.02
713.81	0.02
714.128	0.02
714.446	0.02
714.764	0.02
715.082	0.02
715.4	0.02
715.718	0.02
716.035	0.02
716.353	0.02
716.671	0.02
716.988	0.02
717.306	0.02
717.623	0.02
717.941	0.02
718.258	0.02
718.575	0.02
718.893	0.02
719.21	0.02
719.527	0.02
719.844	0.02
720.161	0.02
720.478	0.02
720.795	0.02
721.112	0.02
721.428	0.02
721.745	0.02
722.062	0.02
722.378	0.02
722.695	0.03
723.011	0.03
723.328	0.02
723.644	0.03
723.96	0.03
724.276	0.02
724.593	0.02
724.909	0.02
725.225	0.02
725.541	0.02
725.857	0.02
726.173	0.02
726.488	0.02
726.804	0.02
727.12	0.02
727.435	0.02
727.751	0.02
728.067	0.02
728.382	0.02
728.697	0.02
729.013	0.02
729.328	0.02
729.643	0.02
729.958	0.02
730.273	0.02
730.588	0.02
730.903	0.02
731.218	0.02
731.533	0.02
731.848	0.02
732.163	0.02
732.477	0.02
732.792	0.02
733.107	0.02
733.421	0.02
733.736	0.02
734.05	0.02
734.364	0.02
734.678	0.02
734.993	0.02
735.307	0.02
735.621	0.02
735.935	0.02
736.249	0.02
736.563	0.02
736.877	0.02
737.19	0.02
737.504	0.02
737.818	0.02
738.131	0.02
738.445	0.02
738.758	0.02
739.072	0.01
739.385	0.02
739.698	0.01
740.012	0.02
740.325	0.02
740.638	0.02
740.951	0.02
741.264	0.02
741.577	0.02
741.89	0.02
742.203	0.03
742.515	0.03
742.828	0.03
743.141	0.02
743.453	0.02
743.766	0.02
744.078	0.02
744.391	0.02
744.703	0.02
745.015	0.02
745.327	0.02
745.639	0.02
745.952	0.02
746.264	0.02
746.575	0.02
746.887	0.02
747.199	0.02
747.511	0.02
747.823	0.02
748.134	0.02
748.446	0.02
748.757	0.02
749.069	0.02
749.38	0.03
749.692	0.03
750.003	0.03
750.314	0.02
750.625	0.03
750.936	0.03
751.248	0.03
751.559	0.03
751.869	0.03
752.18	0.03
752.491	0.02
752.802	0.02
753.112	0.02
753.423	0.02
753.734	0.02
754.044	0.02
754.355	0.01
754.665	0.01
754.975	0.02
755.285	0.02
755.596	0.02
755.906	0.02
756.216	0.02
756.526	0.02
756.836	0.02
757.146	0.02
757.455	0.02
757.765	0.02
758.075	0.02
758.385	0.02
758.694	0.02
759.004	0.02
759.313	0.02
759.622	0.02
759.932	0.02
760.241	0.02
760.55	0.02
760.859	0.02
761.168	0.03
761.477	0.02
761.786	0.02
762.095	0.02
762.404	0.02
762.713	0.02
763.021	0.02
763.33	0.02
763.639	0.02
763.947	0.02
764.256	0.02
764.564	0.02
764.872	0.02
765.181	0.02
765.489	0.02
765.797	0.02
766.105	0.02
766.413	0.02
766.721	0.02
767.029	0.02
767.337	0.02
767.644	0.02
767.952	0.03
768.26	0.03
768.567	0.03
768.875	0.02
769.182	0.02
769.49	0.02
769.797	0.02
770.104	0.02
770.411	0.02
770.718	0.02
771.026	0.02
771.333	0.02
771.639	0.02
771.946	0.02
772.253	0.02
772.56	0.02
772.867	0.02
773.173	0.02
773.48	0.03
773.786	0.02
774.093	0.02
774.399	0.02
774.705	0.02
775.012	0.02
775.318	0.02
775.624	0.02
775.93	0.02
776.236	0.02
776.542	0.02
776.848	0.02
777.154	0.02
777.459	0.02
777.765	0.02
778.071	0.02
778.376	0.02
778.682	0.03
778.987	0.03
779.292	0.02
779.598	0.02
779.903	0.03
780.208	0.03
780.513	0.03
780.818	0.02
781.123	0.02
781.428	0.02
781.733	0.02
782.038	0.02
782.343	0.03
782.647	0.03
782.952	0.03
783.256	0.03
783.561	0.03
783.865	0.03
784.17	0.03
784.474	0.02
784.778	0.02
785.082	0.02
785.386	0.02
785.69	0.02
785.994	0.03
786.298	0.03
786.602	0.03
786.906	0.02
787.209	0.02
787.513	0.02
787.817	0.02
788.12	0.02
788.424	0.02
788.727	0.02
789.03	0.03
789.333	0.03
789.637	0.03
789.94	0.03
790.243	0.03
790.546	0.02
790.849	0.02
791.152	0.02
791.454	0.02
791.757	0.02
792.06	0.02
792.362	0.03
792.665	0.02
792.967	0.03
793.27	0.03
793.572	0.03
793.874	0.03
794.177	0.03
794.479	0.03
794.781	0.03
795.083	0.03
795.385	0.03
795.687	0.02
795.989	0.02
796.29	0.02
796.592	0.03
796.894	0.02
797.195	0.03
797.497	0.03
797.798	0.03
798.1	0.03
798.401	0.03
798.702	0.03
799.003	0.03
799.304	0.03
799.605	0.03
799.906	0.02
800.207	0.02
800.508	0.03
800.809	0.03
801.11	0.03
801.41	0.03
801.711	0.03
802.011	0.03
802.312	0.03
802.612	0.03
802.913	0.03
803.213	0.03
803.513	0.03
803.813	0.03
804.113	0.03
804.413	0.03
804.713	0.03
805.013	0.03
805.313	0.03
805.613	0.03
805.912	0.03
806.212	0.03
806.511	0.03
806.811	0.03
807.11	0.03
807.41	0.03
807.709	0.02
808.008	0.02
808.307	0.03
808.606	0.03
808.905	0.02
809.204	0.03
809.503	0.03
809.802	0.04
810.101	0.04
810.399	0.04
810.698	0.04
810.997	0.04
811.295	0.03
811.593	0.04
811.892	0.04
812.19	0.04
812.488	0.03
812.786	0.04
813.084	0.04
813.383	0.04
813.68	0.04
813.978	0.04
814.276	0.04
814.574	0.04
814.872	0.03
815.169	0.04
815.467	0.03
815.764	0.04
816.062	0.04
816.359	0.03
816.656	0.03
816.954	0.03
817.251	0.03
817.548	0.03
817.845	0.04
818.142	0.03
818.439	0.03
818.735	0.03
819.032	0.03
819.329	0.03
819.626	0.03
819.922	0.03
820.219	0.04
820.515	0.04
820.811	0.04
821.108	0.04
821.404	0.03
821.7	0.03
821.996	0.03
822.292	0.03
822.588	0.04
822.884	0.04
823.18	0.03
823.475	0.03
823.771	0.03
824.067	0.04
824.362	0.03
824.658	0.03
824.953	0.03
825.249	0.04
825.544	0.04
825.839	0.04
826.134	0.04
826.429	0.03
826.724	0.04
827.019	0.04
827.314	0.04
827.609	0.04
827.904	0.04
828.198	0.04
828.493	0.04
828.787	0.04
829.082	0.04
829.376	0.04
829.671	0.04
829.965	0.04
830.259	0.04
830.553	0.04
830.847	0.04
831.141	0.04
831.435	0.04
831.729	0.03
832.023	0.04
832.317	0.04
832.61	0.05
832.904	0.04
833.197	0.04
833.491	0.05
833.784	0.04
834.077	0.04
834.371	0.04
834.664	0.05
834.957	0.05
835.25	0.04
835.543	0.05
835.836	0.04
836.129	0.04
836.421	0.03
836.714	0.04
837.007	0.04
837.299	0.03
837.592	0.05
837.884	0.04
838.177	0.03
838.469	0.03
838.761	0.03
839.053	0.03
839.345	0.03
839.637	0.03
839.929	0.04
840.221	0.04
840.513	0.04
840.805	0.04
841.096	0.03
841.388	0.04
841.68	0.04
841.971	0.04
842.262	0.03
842.554	0.03
842.845	0.03
843.136	0.03
843.427	0.04
843.718	0.03
844.009	0.03
844.3	0.04
844.591	0.04
844.882	0.04
845.173	0.03
845.463	0.04
845.754	0.04
846.044	0.04
846.335	0.04
846.625	0.04
846.915	0.04
847.206	0.03
847.496	0.04
847.786	0.04
848.076	0.04
848.366	0.05
848.656	0.04
848.945	0.05
849.235	0.04
849.525	0.03
849.814	0.05
850.104	0.04
850.393	0.04
850.683	0.04
850.972	0.05
851.261	0.04
851.551	0.05
851.84	0.05
852.129	0.05
852.418	0.05
852.707	0.05
852.995	0.03
853.284	0.05
853.573	0.05
853.862	0.05
854.15	0.05
854.439	0.04
854.727	0.06
855.015	0.05
855.304	0.03
855.592	0.04
855.88	0.03
856.168	0.04
856.456	0.04
856.744	0.04
857.032	0.05
857.32	0.04
857.607	0.05
857.895	0.03
858.183	0.05
858.47	0.05
858.757	0.05
859.045	0.06
859.332	0.05
859.619	0.03
859.907	0.03
860.194	0.03
860.481	0.05
860.768	0.05
861.054	0.03
861.341	0.04
861.628	0.05
861.915	0.03
862.201	0.03
862.488	0.04
862.774	0.04
863.061	0.02
863.347	0.03
863.633	0.04
863.919	0.05
864.205	0.05
864.491	0.04
864.777	0.04
865.063	0.05
865.349	0.04
865.635	0.02
865.92	0.03
866.206	0.04
866.492	0.02
866.777	0.03
867.062	0.02
867.348	0.03
867.633	0.04
867.918	0.05
868.203	0.06
868.488	0.04
868.773	0.02
869.058	0.03
869.343	0.04
869.628	0.01
869.912	0.01
870.197	0.04
870.482	0
870.766	0.04
871.05	0.02
871.335	0
871.619	0.01
871.903	0.01
872.187	0.02
872.471	-0.01
872.755	0.04
873.039	0
873.323	0.07
873.607	0.02
873.89	0.07
874.174	0.1
874.458	-0
874.741	0.02
875.024	-0.01
875.308	0.02
875.591	-0.02
875.874	0.01
876.157	0.05
876.44	0.03
876.723	0.1
877.006	0.09
877.289	0.04
877.572	0.04
877.854	0.02
878.137	0.07
878.42	0
878.702	-0.02
878.984	0.01
879.267	0.04
879.549	0.08
879.831	0
880.113	0.03
880.395	0.02
880.677	0.02
880.959	0.07
