Data from Rubpy_EV_600_EDTA_Buffered_Absorbance_12-51-03-106.txt Node
Date: Tue Jun 30 12:51:03 BST 2026
User: fpm-admin
Spectrometer: OFX00224
Trigger mode: 0
Integration Time (sec): 7.000000E-2
Scans to average: 3
Nonlinearity correction enabled: false
Boxcar width: 0
Storing dark spectrum: false
XAxis mode: Wavelengths
Number of Pixels in Spectrum: 2136
>>>>>Begin Spectral Data<<<<<
154.91	-0
155.289	0.2
155.669	0.38
156.048	-0.23
156.428	-0
156.807	-0.56
157.186	-0.15
157.566	-0
157.945	-0
158.325	-0
158.704	0.25
159.083	-0.36
159.462	-1.32
159.842	0.13
160.221	-0
160.6	0.06
160.979	0.04
161.359	-0
161.738	-0
162.117	-0.37
162.496	0.03
162.875	-0
163.254	-0.21
163.633	-0
164.012	-0
164.391	-0.14
164.77	-0
165.149	1.43
165.528	0.18
165.907	-0
166.286	-0.28
166.665	-0.29
167.044	-0
167.423	0.19
167.802	-0.48
168.181	0.45
168.559	-0.8
168.938	-0
169.317	-0.26
169.696	-0.45
170.074	-0
170.453	-0.03
170.832	-0
171.21	0.02
171.589	-0
171.968	-0
172.346	-0
172.725	0.28
173.103	-0.52
173.482	-0.17
173.861	0.88
174.239	-0.15
174.617	-0
174.996	0.78
175.374	-0
175.753	-0.88
176.131	-0
176.51	-0.6
176.888	0.06
177.266	0.16
177.645	-0.04
178.023	0.45
178.401	-0.08
178.779	-0.1
179.158	0.23
179.536	0.04
179.914	1.71
180.292	-0
180.67	-0
181.048	-0.07
181.427	-1.74
181.805	0.4
182.183	-0.8
182.561	-0
182.939	0.03
183.317	-0
183.695	-0
184.073	1
184.451	-0
184.829	-0
185.206	-0.25
185.584	-0
185.962	-0.75
186.34	-0.06
186.718	-0.1
187.096	-0.18
187.473	0.12
187.851	-0.05
188.229	-0.03
188.607	0.02
188.984	0.12
189.362	0.18
189.74	0.01
190.117	0.02
190.495	0.07
190.872	0
191.25	0.02
191.627	-0.06
192.005	0.02
192.382	0.11
192.76	0.04
193.137	0.07
193.515	0.18
193.892	0.06
194.269	-0.01
194.647	0.07
195.024	0.08
195.401	-0.01
195.779	0.13
196.156	0.03
196.533	0.04
196.91	0.02
197.288	0.06
197.665	-0
198.042	-0.1
198.419	0.03
198.796	0.04
199.173	0.06
199.55	-0.01
199.927	0.05
200.304	0.07
200.681	0.04
201.058	0
201.435	0.01
201.812	0.05
202.189	0.06
202.566	0.07
202.943	0.01
203.32	0.02
203.697	-0.02
204.073	-0.06
204.45	-0.01
204.827	0.12
205.204	0.13
205.58	0.08
205.957	0.08
206.334	0.07
206.71	0.05
207.087	0.09
207.464	-0.01
207.84	0.01
208.217	0.04
208.593	0.17
208.97	0.02
209.346	-0.1
209.723	0.1
210.099	0.05
210.476	0.04
210.852	0.13
211.228	0.03
211.605	-0.03
211.981	0.09
212.357	0.05
212.733	0
213.11	0.02
213.486	0.04
213.862	-0.04
214.238	0.06
214.614	-0
214.991	0.01
215.367	0.1
215.743	-0.01
216.119	0.08
216.495	-0.09
216.871	0.04
217.247	0.02
217.623	0.06
217.999	0.02
218.375	0.03
218.751	-0
219.127	0.05
219.502	0.03
219.878	0.03
220.254	0.08
220.63	0.07
221.006	-0
221.381	0.05
221.757	0.11
222.133	0.07
222.508	0.03
222.884	0.06
223.26	0.02
223.635	-0
224.011	-0.03
224.386	0.06
224.762	-0.07
225.137	-0.03
225.513	0.06
225.888	-0.02
226.264	0.04
226.639	0.07
227.014	0.02
227.39	-0.03
227.765	0.04
228.14	-0
228.516	0.03
228.891	-0
229.266	0.06
229.641	0.03
230.017	0.04
230.392	0.01
230.767	-0.02
231.142	-0.01
231.517	0.03
231.892	0.08
232.267	0.04
232.642	0.01
233.017	0.02
233.392	0.06
233.767	0.12
234.142	0.03
234.517	-0.01
234.892	0.03
235.267	0.02
235.641	0.07
236.016	0.02
236.391	-0.03
236.766	0.02
237.14	-0.02
237.515	0.02
237.89	0.17
238.264	0.03
238.639	0.03
239.014	-0.07
239.388	-0.06
239.763	0.04
240.137	0.05
240.512	0.07
240.886	0.03
241.261	0.08
241.635	-0.04
242.009	0.04
242.384	0.02
242.758	0.01
243.132	0.05
243.507	0.07
243.881	0.04
244.255	0.05
244.629	0.05
245.004	0.09
245.378	-0
245.752	0.02
246.126	0.04
246.5	0.04
246.874	0.04
247.248	-0.02
247.622	-0.04
247.996	0.06
248.37	0.02
248.744	-0.03
249.118	0.01
249.492	0.06
249.866	0.09
250.24	-0.04
250.613	0
250.987	-0
251.361	0.07
251.735	-0.01
252.108	0
252.482	0.09
252.856	-0.07
253.229	0.03
253.603	0.03
253.977	0.05
254.35	0.07
254.724	0.03
255.097	0.02
255.471	-0.01
255.844	0.03
256.218	0.04
256.591	-0.02
256.964	-0.04
257.338	0.02
257.711	0.05
258.084	-0.02
258.458	0.04
258.831	0.1
259.204	0.05
259.577	0.08
259.95	0.06
260.323	-0
260.697	0.05
261.07	0.06
261.443	0.06
261.816	0.05
262.189	0.07
262.562	-0.01
262.935	0.02
263.308	-0.01
263.68	-0.04
264.053	0.03
264.426	0.08
264.799	-0.01
265.172	0.04
265.545	0.01
265.917	0.03
266.29	0.05
266.663	0.02
267.035	0.06
267.408	0.04
267.781	0.02
268.153	0.05
268.526	0.06
268.898	-0
269.271	0.05
269.643	0.07
270.016	0.05
270.388	0.05
270.76	0.07
271.133	0.04
271.505	-0.02
271.877	0.04
272.25	-0.02
272.622	0.04
272.994	0.05
273.366	0.09
273.739	0.08
274.111	-0.02
274.483	0.01
274.855	-0.02
275.227	0.09
275.599	-0.01
275.971	0.05
276.343	0.06
276.715	-0.01
277.087	0.07
277.459	0.08
277.831	0.02
278.203	0.06
278.574	0.07
278.946	0.04
279.318	0.05
279.69	0.03
280.061	0.09
280.433	0.04
280.805	0.05
281.176	-0
281.548	0.03
281.92	-0.01
282.291	0.04
282.663	0.05
283.034	0
283.406	0.04
283.777	0.03
284.148	-0
284.52	0.03
284.891	0.01
285.262	0.01
285.634	0.08
286.005	0.05
286.376	0.05
286.747	0.05
287.119	-0.01
287.49	0.01
287.861	0.05
288.232	0.04
288.603	0.02
288.974	-0.01
289.345	0
289.716	0.04
290.087	-0.02
290.458	0.01
290.829	0.07
291.2	0.01
291.571	0
291.941	0.05
292.312	0.02
292.683	0.02
293.054	-0.03
293.424	-0
293.795	0.07
294.166	-0.06
294.536	0.03
294.907	0.01
295.277	0.03
295.648	-0.05
296.018	0.02
296.389	0
296.759	0.02
297.13	0.02
297.5	0.04
297.871	0.02
298.241	-0.01
298.611	-0.01
298.981	0.03
299.352	0.02
299.722	0.02
300.092	0.02
300.462	0.02
300.832	0.01
301.202	-0
301.573	-0.01
301.943	0.01
302.313	-0
302.683	0.01
303.053	0.01
303.422	-0
303.792	0
304.162	0.01
304.532	0
304.902	0
305.272	-0.01
305.641	0.01
306.011	0.01
306.381	0
306.75	-0
307.12	0
307.49	0.01
307.859	0
308.229	-0
308.598	-0
308.968	-0.01
309.337	-0
309.707	-0
310.076	-0.01
310.445	0
310.815	0
311.184	0.01
311.553	0
311.923	-0
312.292	-0.01
312.661	0
313.03	-0
313.399	-0
313.768	0.01
314.137	-0.01
314.506	-0
314.875	0
315.244	0
315.613	-0.01
315.982	-0
316.351	-0
316.72	0
317.089	-0
317.458	0.01
317.826	-0
318.195	-0
318.564	0
318.933	-0
319.301	-0
319.67	-0
320.038	-0
320.407	0.01
320.775	-0
321.144	0
321.512	0
321.881	0
322.249	0
322.618	0
322.986	0
323.354	0
323.723	0
324.091	-0
324.459	-0
324.827	0.01
325.195	-0
325.564	0
325.932	0.01
326.3	0
326.668	0
327.036	-0
327.404	-0
327.772	-0
328.14	0
328.508	0
328.875	-0
329.243	0
329.611	0
329.979	0.01
330.346	0
330.714	0
331.082	-0
331.449	-0
331.817	-0
332.185	-0
332.552	0
332.92	-0
333.287	0
333.655	-0
334.022	-0
334.389	0
334.757	-0
335.124	0
335.491	0
335.859	0
336.226	-0
336.593	0
336.96	0
337.327	-0
337.695	0.01
338.062	-0
338.429	0
338.796	0
339.163	0
339.53	-0
339.897	0
340.263	0
340.63	0
340.997	0
341.364	0
341.731	0
342.097	0
342.464	-0
342.831	-0
343.197	-0
343.564	0
343.931	-0
344.297	0
344.664	-0
345.03	0
345.396	0
345.763	0
346.129	0
346.496	0
346.862	0
347.228	-0
347.594	0
347.961	0
348.327	0
348.693	-0
349.059	-0
349.425	0
349.791	0
350.157	0
350.523	0
350.889	0
351.255	0
351.621	0
351.987	0
352.353	0
352.719	0
353.084	0
353.45	0
353.816	-0
354.181	0
354.547	0
354.913	-0
355.278	0
355.644	0
356.009	-0
356.375	-0
356.74	0
357.106	-0
357.471	0
357.836	0
358.202	0
358.567	0.01
358.932	0
359.297	0
359.663	0.01
360.028	0
360.393	0
360.758	-0
361.123	-0
361.488	-0
361.853	0
362.218	-0
362.583	0
362.948	0
363.312	0.01
363.677	0
364.042	0
364.407	0
364.772	0
365.136	-0
365.501	0
365.865	0
366.23	-0
366.595	0
366.959	-0
367.324	0
367.688	0
368.052	0
368.417	0
368.781	0
369.145	0
369.51	0.01
369.874	0
370.238	-0
370.602	-0
370.967	0
371.331	0.01
371.695	-0
372.059	0
372.423	0
372.787	0
373.151	0
373.515	0
373.878	0
374.242	0
374.606	0.01
374.97	0
375.334	0
375.697	0
376.061	0
376.425	0
376.788	0
377.152	0
377.515	0
377.879	0.01
378.242	-0
378.606	0
378.969	-0
379.333	0
379.696	0
380.059	-0
380.422	0
380.786	-0
381.149	0
381.512	0
381.875	-0
382.238	0
382.601	0
382.964	0
383.327	0
383.69	0
384.053	0
384.416	0
384.779	0
385.142	0
385.504	0
385.867	0
386.23	0
386.593	0
386.955	-0
387.318	0
387.68	0
388.043	0
388.405	0
388.768	0
389.13	-0
389.493	0
389.855	0
390.217	0
390.58	0
390.942	-0
391.304	0
391.666	0
392.028	0
392.391	0
392.753	-0
393.115	0
393.477	0
393.839	0
394.201	-0
394.563	0
394.924	0
395.286	0
395.648	0
396.01	0
396.371	0
396.733	0
397.095	0
397.456	0
397.818	0
398.18	0
398.541	0
398.903	0
399.264	-0
399.625	0
399.987	-0
400.348	0
400.709	0
401.071	0
401.432	0
401.793	0
402.154	0
402.515	0
402.876	0
403.238	0
403.599	-0
403.96	0
404.32	0
404.681	0
405.042	0
405.403	0
405.764	0
406.125	-0
406.485	0
406.846	-0
407.207	0
407.567	0
407.928	0
408.288	0.01
408.649	-0
409.009	0
409.37	0.01
409.73	0
410.091	0
410.451	0.01
410.811	0.01
411.171	0.01
411.532	-0
411.892	0
412.252	0
412.612	0
412.972	0
413.332	0
413.692	0.01
414.052	0
414.412	-0
414.772	0
415.132	0.01
415.492	0.01
415.851	0.01
416.211	0.01
416.571	0
416.931	0
417.29	0.01
417.65	-0
418.009	-0
418.369	0
418.728	0.01
419.088	0
419.447	0
419.807	0.01
420.166	0.01
420.525	0
420.884	0
421.244	0.01
421.603	0
421.962	0
422.321	0
422.68	0.01
423.039	0
423.398	-0
423.757	0.01
424.116	0.01
424.475	0.01
424.834	0.01
425.193	0.01
425.551	0
425.91	0
426.269	0.01
426.628	0
426.986	0
427.345	-0
427.703	0.01
428.062	-0.01
428.42	0.01
428.779	0
429.137	0.01
429.496	0
429.854	0
430.212	0
430.57	0.01
430.929	0.01
431.287	0.01
431.645	0
432.003	0.02
432.361	0.01
432.719	0.01
433.077	0.01
433.435	0.01
433.793	0
434.151	0
434.509	0
434.866	0.01
435.224	0
435.582	0
435.94	0.01
436.297	0
436.655	0.01
437.012	0.01
437.37	0.01
437.727	0
438.085	0
438.442	0.01
438.8	0
439.157	0.01
439.514	0.01
439.872	0.01
440.229	0.01
440.586	0
440.943	0
441.3	0.01
441.657	0.01
442.014	0
442.371	0.01
442.728	-0
443.085	0
443.442	0.01
443.799	0
444.156	0
444.513	-0
444.869	0.01
445.226	0.01
445.583	0
445.939	0.01
446.296	0
446.652	0.01
447.009	0.01
447.365	0.01
447.722	0.01
448.078	0
448.434	0.01
448.791	0
449.147	0
449.503	0
449.859	0
450.215	0
450.571	0.01
450.928	0
451.284	0.01
451.64	0.01
451.995	-0
452.351	-0
452.707	0.01
453.063	-0
453.419	0.01
453.775	0
454.13	0.01
454.486	0.01
454.842	0.01
455.197	0
455.553	0.01
455.908	0
456.264	0.01
456.619	0
456.975	0
457.33	0
457.685	0
458.04	0
458.396	0
458.751	0
459.106	0
459.461	0.01
459.816	0.01
460.171	0.01
460.526	0.01
460.881	0.01
461.236	-0
461.591	0.01
461.946	0.01
462.301	0
462.655	0.01
463.01	0
463.365	0
463.719	0
464.074	0.01
464.428	0.01
464.783	0.01
465.137	-0
465.492	0.01
465.846	0
466.201	0.01
466.555	0.01
466.909	-0.01
467.263	0.01
467.618	0.01
467.972	0.01
468.326	0
468.68	0.01
469.034	0
469.388	0.01
469.742	-0
470.096	0.01
470.45	0.01
470.804	0
471.157	0.01
471.511	0
471.865	0.01
472.218	0.01
472.572	0
472.926	0
473.279	0
473.633	0.01
473.986	0.01
474.34	0
474.693	0.01
475.046	0.01
475.4	0.01
475.753	0
476.106	0
476.459	0.01
476.812	0.01
477.165	0.01
477.519	0
477.872	0
478.224	0.01
478.577	0.01
478.93	0.01
479.283	0.01
479.636	0.01
479.989	0.01
480.341	0.01
480.694	0.01
481.047	0.01
481.399	0.01
481.752	0.01
482.104	0
482.457	0
482.809	0
483.162	0
483.514	0.01
483.866	0
484.219	0
484.571	0.01
484.923	0
485.275	0.01
485.627	0
485.979	0.01
486.331	0.01
486.683	0.01
487.035	0
487.387	0.01
487.739	0.01
488.091	0
488.443	0.01
488.794	0.01
489.146	0.01
489.498	0.01
489.849	0.01
490.201	0
490.552	0
490.904	0
491.255	0.01
491.607	0.01
491.958	0.01
492.309	0
492.661	0
493.012	0
493.363	0.01
493.714	0
494.065	0
494.416	0.01
494.767	0.01
495.118	0.01
495.469	0.01
495.82	0.01
496.171	0.01
496.522	0.01
496.872	0.01
497.223	0.01
497.574	0.01
497.924	0.01
498.275	0.01
498.626	0.01
498.976	0.01
499.327	0.01
499.677	0
500.027	0.01
500.378	0.01
500.728	0.01
501.078	0.01
501.428	0.01
501.779	0.01
502.129	0.01
502.479	0.01
502.829	0.01
503.179	0
503.529	0
503.879	0.01
504.229	0.01
504.578	0
504.928	0.01
505.278	0
505.628	0.01
505.977	0.01
506.327	0.01
506.676	0.01
507.026	0.01
507.375	0.01
507.725	0.01
508.074	0.01
508.424	0.01
508.773	0.01
509.122	0.01
509.471	0.01
509.82	0.01
510.17	0.01
510.519	0.01
510.868	0.01
511.217	0.01
511.566	0
511.915	0.01
512.263	0.01
512.612	0.01
512.961	0.01
513.31	0.01
513.659	0.01
514.007	0.01
514.356	0.01
514.704	0.01
515.053	0.01
515.401	0.01
515.75	0.01
516.098	0.01
516.447	0.01
516.795	0.01
517.143	0.01
517.491	0.01
517.839	0.01
518.188	0.01
518.536	0.01
518.884	0
519.232	0.01
519.58	0.01
519.928	0.01
520.275	0.01
520.623	0.01
520.971	0.01
521.319	0.01
521.666	0.01
522.014	0.01
522.362	0.01
522.709	0.01
523.057	0.02
523.404	0.01
523.752	0.01
524.099	0.01
524.446	0.01
524.794	0.01
525.141	0.01
525.488	0.01
525.835	0.01
526.182	0.01
526.529	0.01
526.876	0.01
527.223	0.02
527.57	0.01
527.917	0.01
528.264	0.01
528.611	0.01
528.958	0.01
529.304	0.01
529.651	0.01
529.998	0.01
530.344	0.01
530.691	0.02
531.037	0.01
531.384	0.01
531.73	0.01
532.076	0.01
532.423	0.01
532.769	0.01
533.115	0.01
533.461	0.01
533.807	0.01
534.154	0.01
534.5	0.02
534.846	0.01
535.192	0.01
535.537	0.01
535.883	0.01
536.229	0.01
536.575	0.01
536.921	0.01
537.266	0.01
537.612	0.01
537.957	0.02
538.303	0.01
538.649	0.01
538.994	0.01
539.339	0.01
539.685	0.01
540.03	0.01
540.375	0.01
540.721	0.01
541.066	0.01
541.411	0.01
541.756	0.01
542.101	0.02
542.446	0.02
542.791	0.01
543.136	0.02
543.481	0.01
543.825	0.01
544.17	0.01
544.515	0.01
544.86	0.01
545.204	0.01
545.549	0.01
545.893	0.01
546.238	0.01
546.582	0.01
546.927	0.01
547.271	0.01
547.615	0.01
547.96	0.01
548.304	0.01
548.648	0.01
548.992	0.01
549.336	0.01
549.68	0.01
550.024	0.01
550.368	0.01
550.712	0.01
551.056	0.01
551.4	0.02
551.743	0.01
552.087	0.01
552.431	0.02
552.774	0.01
553.118	0.01
553.462	0.02
553.805	0.01
554.148	0.01
554.492	0.02
554.835	0.01
555.178	0.01
555.522	0.02
555.865	0.01
556.208	0.01
556.551	0.01
556.894	0.01
557.237	0.01
557.58	0.01
557.923	0.01
558.266	0.01
558.609	0.01
558.952	0.02
559.294	0.02
559.637	0.02
559.98	0.01
560.322	0.02
560.665	0.01
561.007	0.01
561.35	0.01
561.692	0.01
562.034	0.01
562.377	0.01
562.719	0.01
563.061	0.01
563.403	0.01
563.745	0.01
564.088	0.01
564.43	0.01
564.772	0.01
565.113	0.01
565.455	0.01
565.797	0.01
566.139	0.01
566.481	0.01
566.822	0.02
567.164	0.02
567.506	0.01
567.847	0.01
568.189	0.01
568.53	0.01
568.872	0.01
569.213	0.01
569.554	0.01
569.895	0.02
570.237	0.01
570.578	0.01
570.919	0.01
571.26	0.01
571.601	0.01
571.942	0.02
572.283	0.01
572.624	0.01
572.965	0.01
573.306	0.01
573.646	0.01
573.987	0.01
574.328	0.01
574.668	0.01
575.009	0.01
575.349	0.01
575.69	0.01
576.03	0.01
576.37	0.01
576.711	0.01
577.051	0.01
577.391	0.01
577.731	0.01
578.072	0.01
578.412	0.01
578.752	0.01
579.092	0.01
579.431	0.01
579.771	0.01
580.111	0.01
580.451	0.01
580.791	0.01
581.13	0.01
581.47	0.01
581.81	0.01
582.149	0.01
582.489	0.01
582.828	0.01
583.167	0.01
583.507	0
583.846	0
584.185	0
584.525	0.01
584.864	0.01
585.203	0.01
585.542	0.01
585.881	0.01
586.22	0.01
586.559	0.01
586.898	0.01
587.236	0.01
587.575	0.01
587.914	0.01
588.252	0.01
588.591	0.01
588.93	0.01
589.268	0.01
589.607	0.01
589.945	0.01
590.283	0.01
590.622	0.01
590.96	0.01
591.298	0.01
591.636	0.01
591.974	0.01
592.313	0.02
592.651	0.01
592.989	0.01
593.326	0.01
593.664	0.01
594.002	0.01
594.34	0.01
594.678	0.01
595.015	0.01
595.353	0.01
595.691	0.01
596.028	0.01
596.366	0.01
596.703	0.01
597.04	0.01
597.378	0.01
597.715	0.01
598.052	0.02
598.389	0.01
598.726	0.02
599.064	0.02
599.401	0.02
599.738	0.02
600.074	0.02
600.411	0.02
600.748	0.02
601.085	0.02
601.422	0.01
601.758	0.01
602.095	0.01
602.432	0.01
602.768	0.01
603.105	0.01
603.441	0.01
603.777	0.01
604.114	0.01
604.45	0.01
604.786	0.02
605.122	0.01
605.459	0.01
605.795	0.01
606.131	0.01
606.467	0.01
606.803	0.01
607.139	0.01
607.474	0.01
607.81	0.01
608.146	0.01
608.482	0.01
608.817	0.01
609.153	0.01
609.488	0.01
609.824	0.01
610.159	0.01
610.495	0.01
610.83	0.01
611.165	0.02
611.5	0.01
611.836	0.01
612.171	0.01
612.506	0.01
612.841	0.01
613.176	0.01
613.511	0.02
613.845	0.02
614.18	0.02
614.515	0.02
614.85	0.02
615.184	0.01
615.519	0.02
615.854	0.01
616.188	0.01
616.523	0.01
616.857	0.01
617.191	0.01
617.526	0.01
617.86	0.01
618.194	0.01
618.528	0.01
618.862	0.02
619.196	0.02
619.53	0.02
619.864	0.02
620.198	0.01
620.532	0.02
620.866	0.02
621.2	0.02
621.533	0.01
621.867	0.02
622.201	0.02
622.534	0.02
622.868	0.02
623.201	0.02
623.534	0.01
623.868	0.02
624.201	0.02
624.534	0.01
624.868	0.02
625.201	0.02
625.534	0.02
625.867	0.02
626.2	0.02
626.533	0.02
626.865	0.02
627.198	0.02
627.531	0.02
627.864	0.02
628.196	0.02
628.529	0.02
628.862	0.02
629.194	0.02
629.527	0.02
629.859	0.02
630.191	0.02
630.524	0.02
630.856	0.02
631.188	0.02
631.52	0.02
631.852	0.02
632.184	0.02
632.516	0.02
632.848	0.02
633.18	0.02
633.512	0.02
633.844	0.02
634.175	0.02
634.507	0.02
634.839	0.02
635.17	0.02
635.502	0.01
635.833	0.02
636.165	0.02
636.496	0.02
636.827	0.02
637.159	0.02
637.49	0.02
637.821	0.02
638.152	0.02
638.483	0.02
638.814	0.02
639.145	0.02
639.476	0.02
639.807	0.02
640.137	0.02
640.468	0.02
640.799	0.02
641.129	0.02
641.46	0.03
641.791	0.02
642.121	0.02
642.451	0.02
642.782	0.02
643.112	0.02
643.442	0.02
643.773	0.02
644.103	0.02
644.433	0.02
644.763	0.02
645.093	0.02
645.423	0.02
645.753	0.02
646.082	0.02
646.412	0.02
646.742	0.02
647.072	0.02
647.401	0.02
647.731	0.02
648.06	0.02
648.39	0.02
648.719	0.02
649.048	0.02
649.378	0.02
649.707	0.02
650.036	0.02
650.365	0.02
650.694	0.02
651.023	0.02
651.352	0.02
651.681	0.02
652.01	0.02
652.339	0.02
652.668	0.02
652.996	0.02
653.325	0.02
653.654	0.02
653.982	0.02
654.311	0.02
654.639	0.02
654.967	0.02
655.296	0.02
655.624	0.02
655.952	0.02
656.28	0.02
656.609	0.02
656.937	0.02
657.265	0.02
657.593	0.01
657.92	0
658.248	-0
658.576	0
658.904	0
659.231	0
659.559	0.01
659.887	0.01
660.214	0.02
660.542	0.02
660.869	0.02
661.196	0.02
661.524	0.02
661.851	0.01
662.178	0.02
662.505	0.02
662.832	0.02
663.159	0.02
663.486	0.02
663.813	0.02
664.14	0.02
664.467	0.02
664.794	0.02
665.12	0.02
665.447	0.02
665.774	0.02
666.1	0.02
666.427	0.02
666.753	0.02
667.079	0.02
667.406	0.02
667.732	0.02
668.058	0.02
668.384	0.02
668.71	0.02
669.036	0.02
669.362	0.02
669.688	0.02
670.014	0.02
670.34	0.02
670.666	0.02
670.991	0.02
671.317	0.02
671.643	0.02
671.968	0.02
672.294	0.02
672.619	0.02
672.945	0.02
673.27	0.02
673.595	0.02
673.92	0.01
674.246	0.01
674.571	0.01
674.896	0.02
675.221	0.02
675.546	0.02
675.87	0.02
676.195	0.02
676.52	0.02
676.845	0.02
677.169	0.02
677.494	0.02
677.819	0.02
678.143	0.02
678.468	0.02
678.792	0.02
679.116	0.02
679.44	0.02
679.765	0.02
680.089	0.02
680.413	0.02
680.737	0.02
681.061	0.02
681.385	0.02
681.709	0.01
682.033	0.02
682.356	0.02
682.68	0.02
683.004	0.02
683.327	0.02
683.651	0.02
683.974	0.01
684.298	0.02
684.621	0.02
684.944	0.02
685.268	0.02
685.591	0.02
685.914	0.02
686.237	0.02
686.56	0.02
686.883	0.02
687.206	0.02
687.529	0.02
687.852	0.02
688.175	0.02
688.497	0.02
688.82	0.02
689.142	0.02
689.465	0.02
689.787	0.02
690.11	0.02
690.432	0.02
690.755	0.02
691.077	0.01
691.399	0.01
691.721	0.01
692.043	0.02
692.365	0.02
692.687	0.02
693.009	0.02
693.331	0.01
693.653	0.01
693.974	0.01
694.296	0.02
694.618	0.01
694.939	0.01
695.261	0.02
695.582	0.01
695.904	0.02
696.225	0.02
696.546	0.02
696.868	0.02
697.189	0.02
697.51	0.02
697.831	0.02
698.152	0.02
698.473	0.02
698.794	0.02
699.114	0.02
699.435	0.02
699.756	0.01
700.077	0.02
700.397	0.02
700.718	0.02
701.038	0.02
701.359	0.02
701.679	0.02
701.999	0.02
702.32	0.02
702.64	0.02
702.96	0.01
703.28	0.01
703.6	0.01
703.92	0.01
704.24	0.02
704.56	0.02
704.879	0.02
705.199	0.02
705.519	0.02
705.838	0.02
706.158	0.02
706.478	0.02
706.797	0.02
707.116	0.02
707.436	0.02
707.755	0.02
708.074	0.02
708.393	0.01
708.712	0.01
709.031	0.01
709.35	0.01
709.669	0.01
709.988	0.01
710.307	0.01
710.626	0.02
710.944	0.01
711.263	0.01
711.582	0.02
711.9	0.01
712.219	0.02
712.537	0.01
712.855	0.02
713.174	0.02
713.492	0.02
713.81	0.02
714.128	0.02
714.446	0.01
714.764	0.01
715.082	0.02
715.4	0.02
715.718	0.02
716.035	0.01
716.353	0.02
716.671	0.02
716.988	0.02
717.306	0.02
717.623	0.02
717.941	0.02
718.258	0.02
718.575	0.02
718.893	0.02
719.21	0.02
719.527	0.02
719.844	0.02
720.161	0.02
720.478	0.03
720.795	0.02
721.112	0.02
721.428	0.02
721.745	0.02
722.062	0.02
722.378	0.02
722.695	0.02
723.011	0.02
723.328	0.02
723.644	0.02
723.96	0.02
724.276	0.02
724.593	0.02
724.909	0.02
725.225	0.02
725.541	0.02
725.857	0.02
726.173	0.02
726.488	0.02
726.804	0.02
727.12	0.02
727.435	0.02
727.751	0.02
728.067	0.02
728.382	0.02
728.697	0.02
729.013	0.02
729.328	0.02
729.643	0.02
729.958	0.02
730.273	0.02
730.588	0.02
730.903	0.02
731.218	0.02
731.533	0.02
731.848	0.02
732.163	0.01
732.477	0.01
732.792	0.01
733.107	0.01
733.421	0.01
733.736	0.01
734.05	0.02
734.364	0.02
734.678	0.02
734.993	0.02
735.307	0.02
735.621	0.02
735.935	0.02
736.249	0.02
736.563	0.02
736.877	0.02
737.19	0.02
737.504	0.02
737.818	0.02
738.131	0.02
738.445	0.02
738.758	0.02
739.072	0.02
739.385	0.01
739.698	0.01
740.012	0.01
740.325	0.02
740.638	0.02
740.951	0.01
741.264	0.01
741.577	0.02
741.89	0.02
742.203	0.02
742.515	0.03
742.828	0.02
743.141	0.02
743.453	0.02
743.766	0.02
744.078	0.02
744.391	0.02
744.703	0.01
745.015	0.02
745.327	0.01
745.639	0.01
745.952	0.01
746.264	0.01
746.575	0.01
746.887	0.02
747.199	0.02
747.511	0.02
747.823	0.02
748.134	0.02
748.446	0.02
748.757	0.02
749.069	0.02
749.38	0.02
749.692	0.02
750.003	0.02
750.314	0.02
750.625	0.02
750.936	0.02
751.248	0.02
751.559	0.02
751.869	0.02
752.18	0.02
752.491	0.02
752.802	0.02
753.112	0.02
753.423	0.02
753.734	0.01
754.044	0.01
754.355	0.01
754.665	0.01
754.975	0.01
755.285	0.02
755.596	0.02
755.906	0.02
756.216	0.01
756.526	0.02
756.836	0.02
757.146	0.02
757.455	0.02
757.765	0.01
758.075	0.02
758.385	0.01
758.694	0.01
759.004	0.02
759.313	0.01
759.622	0.02
759.932	0.02
760.241	0.02
760.55	0.02
760.859	0.02
761.168	0.02
761.477	0.03
761.786	0.02
762.095	0.02
762.404	0.02
762.713	0.02
763.021	0.02
763.33	0.02
763.639	0.02
763.947	0.02
764.256	0.02
764.564	0.02
764.872	0.03
765.181	0.02
765.489	0.02
765.797	0.02
766.105	0.02
766.413	0.02
766.721	0.02
767.029	0.02
767.337	0.02
767.644	0.02
767.952	0.03
768.26	0.02
768.567	0.02
768.875	0.02
769.182	0.02
769.49	0.02
769.797	0.02
770.104	0.02
770.411	0.02
770.718	0.02
771.026	0.02
771.333	0.02
771.639	0.02
771.946	0.02
772.253	0.02
772.56	0.02
772.867	0.02
773.173	0.02
773.48	0.02
773.786	0.02
774.093	0.02
774.399	0.02
774.705	0.02
775.012	0.02
775.318	0.02
775.624	0.02
775.93	0.02
776.236	0.02
776.542	0.02
776.848	0.02
777.154	0.02
777.459	0.02
777.765	0.02
778.071	0.02
778.376	0.02
778.682	0.03
778.987	0.03
779.292	0.03
779.598	0.03
779.903	0.03
780.208	0.03
780.513	0.03
780.818	0.03
781.123	0.03
781.428	0.03
781.733	0.03
782.038	0.03
782.343	0.03
782.647	0.03
782.952	0.04
783.256	0.04
783.561	0.03
783.865	0.03
784.17	0.03
784.474	0.03
784.778	0.02
785.082	0.02
785.386	0.03
785.69	0.03
785.994	0.03
786.298	0.03
786.602	0.03
786.906	0.03
787.209	0.03
787.513	0.03
787.817	0.03
788.12	0.02
788.424	0.03
788.727	0.03
789.03	0.03
789.333	0.03
789.637	0.03
789.94	0.03
790.243	0.03
790.546	0.02
790.849	0.02
791.152	0.02
791.454	0.02
791.757	0.02
792.06	0.02
792.362	0.02
792.665	0.02
792.967	0.02
793.27	0.02
793.572	0.03
793.874	0.03
794.177	0.03
794.479	0.03
794.781	0.02
795.083	0.02
795.385	0.03
795.687	0.02
795.989	0.02
796.29	0.02
796.592	0.03
796.894	0.02
797.195	0.03
797.497	0.03
797.798	0.03
798.1	0.03
798.401	0.03
798.702	0.03
799.003	0.03
799.304	0.03
799.605	0.03
799.906	0.02
800.207	0.02
800.508	0.02
800.809	0.02
801.11	0.03
801.41	0.03
801.711	0.03
802.011	0.03
802.312	0.03
802.612	0.03
802.913	0.03
803.213	0.03
803.513	0.03
803.813	0.03
804.113	0.04
804.413	0.03
804.713	0.03
805.013	0.04
805.313	0.03
805.613	0.03
805.912	0.03
806.212	0.03
806.511	0.03
806.811	0.03
807.11	0.03
807.41	0.03
807.709	0.03
808.008	0.02
808.307	0.02
808.606	0.02
808.905	0.02
809.204	0.03
809.503	0.03
809.802	0.04
810.101	0.04
810.399	0.04
810.698	0.04
810.997	0.04
811.295	0.04
811.593	0.04
811.892	0.04
812.19	0.04
812.488	0.03
812.786	0.04
813.084	0.03
813.383	0.03
813.68	0.04
813.978	0.03
814.276	0.03
814.574	0.03
814.872	0.03
815.169	0.03
815.467	0.03
815.764	0.03
816.062	0.03
816.359	0.04
816.656	0.03
816.954	0.03
817.251	0.04
817.548	0.04
817.845	0.04
818.142	0.04
818.439	0.03
818.735	0.03
819.032	0.03
819.329	0.03
819.626	0.03
819.922	0.04
820.219	0.04
820.515	0.04
820.811	0.04
821.108	0.04
821.404	0.03
821.7	0.04
821.996	0.03
822.292	0.04
822.588	0.04
822.884	0.03
823.18	0.03
823.475	0.03
823.771	0.03
824.067	0.03
824.362	0.03
824.658	0.03
824.953	0.04
825.249	0.04
825.544	0.04
825.839	0.04
826.134	0.04
826.429	0.04
826.724	0.04
827.019	0.04
827.314	0.04
827.609	0.04
827.904	0.04
828.198	0.04
828.493	0.04
828.787	0.04
829.082	0.04
829.376	0.04
829.671	0.04
829.965	0.04
830.259	0.04
830.553	0.05
830.847	0.04
831.141	0.04
831.435	0.05
831.729	0.05
832.023	0.05
832.317	0.05
832.61	0.05
832.904	0.05
833.197	0.05
833.491	0.05
833.784	0.05
834.077	0.05
834.371	0.05
834.664	0.05
834.957	0.05
835.25	0.05
835.543	0.05
835.836	0.05
836.129	0.05
836.421	0.04
836.714	0.04
837.007	0.04
837.299	0.04
837.592	0.05
837.884	0.05
838.177	0.04
838.469	0.04
838.761	0.04
839.053	0.04
839.345	0.04
839.637	0.04
839.929	0.03
840.221	0.04
840.513	0.04
840.805	0.03
841.096	0.04
841.388	0.04
841.68	0.04
841.971	0.05
842.262	0.03
842.554	0.04
842.845	0.03
843.136	0.04
843.427	0.04
843.718	0.04
844.009	0.04
844.3	0.03
844.591	0.05
844.882	0.05
845.173	0.03
845.463	0.04
845.754	0.05
846.044	0.05
846.335	0.06
846.625	0.05
846.915	0.05
847.206	0.05
847.496	0.05
847.786	0.04
848.076	0.05
848.366	0.05
848.656	0.05
848.945	0.05
849.235	0.04
849.525	0.05
849.814	0.05
850.104	0.05
850.393	0.03
850.683	0.03
850.972	0.04
851.261	0.04
851.551	0.04
851.84	0.05
852.129	0.05
852.418	0.05
852.707	0.05
852.995	0.04
853.284	0.05
853.573	0.06
853.862	0.05
854.15	0.05
854.439	0.04
854.727	0.05
855.015	0.05
855.304	0.03
855.592	0.03
855.88	0.03
856.168	0.04
856.456	0.03
856.744	0.05
857.032	0.05
857.32	0.05
857.607	0.06
857.895	0.04
858.183	0.05
858.47	0.04
858.757	0.04
859.045	0.04
859.332	0.03
859.619	0.02
859.907	0.04
860.194	0.04
860.481	0.05
860.768	0.04
861.054	0.04
861.341	0.04
861.628	0.05
861.915	0.05
862.201	0.04
862.488	0.05
862.774	0.05
863.061	0.03
863.347	0.04
863.633	0.05
863.919	0.05
864.205	0.04
864.491	0.05
864.777	0.05
865.063	0.02
865.349	0.03
865.635	0.03
865.92	0.02
866.206	0.05
866.492	0.06
866.777	0.04
867.062	0.05
867.348	0.02
867.633	0.04
867.918	0.05
868.203	0.06
868.488	0.03
868.773	0.03
869.058	0.01
869.343	0.03
869.628	0.04
869.912	-0
870.197	0.03
870.482	0.02
870.766	0.04
871.05	0.04
871.335	0.03
871.619	0
871.903	0.03
872.187	0.07
872.471	-0.02
872.755	0.02
873.039	0.06
873.323	0.04
873.607	0.02
873.89	0.03
874.174	0.07
874.458	0.09
874.741	0.04
875.024	-0.01
875.308	0.06
875.591	-0.01
875.874	0.02
876.157	0.01
876.44	0.1
876.723	0.07
877.006	0.08
877.289	0.04
877.572	0.03
877.854	0.02
878.137	0.08
878.42	0.03
878.702	0.02
878.984	0.06
879.267	0.01
879.549	0.04
879.831	-0.02
880.113	0.03
880.395	-0.01
880.677	0.03
880.959	-0
