Data from Rubpy_EV_600_EDTA_Buffered_Absorbance_13-17-11-138.txt Node
Date: Tue Jun 30 13:17:11 BST 2026
User: fpm-admin
Spectrometer: OFX00224
Trigger mode: 0
Integration Time (sec): 7.000000E-2
Scans to average: 3
Nonlinearity correction enabled: false
Boxcar width: 0
Storing dark spectrum: false
XAxis mode: Wavelengths
Number of Pixels in Spectrum: 2136
>>>>>Begin Spectral Data<<<<<
154.91	-0.92
155.289	0.19
155.669	0.67
156.048	0.85
156.428	0.51
156.807	-0.26
157.186	0.8
157.566	0.6
157.945	1.23
158.325	1
158.704	0.3
159.083	-0.72
159.462	-0.18
159.842	-0.19
160.221	1.03
160.6	0.1
160.979	-0.3
161.359	-0
161.738	0.04
162.117	-0.72
162.496	-0.25
162.875	-0
163.254	-0.09
163.633	-1.08
164.012	-0
164.391	-0.38
164.77	-0
165.149	-0
165.528	-0.08
165.907	-0
166.286	-0.28
166.665	-0.31
167.044	-0
167.423	0.47
167.802	-0.28
168.181	1.2
168.559	-0.81
168.938	1.13
169.317	-0.17
169.696	-0.64
170.074	-0
170.453	-0.07
170.832	0.48
171.21	-0
171.589	-0
171.968	-0
172.346	-0
172.725	0.8
173.103	-0.25
173.482	-0
173.861	0.27
174.239	0.02
174.617	-0.68
174.996	-0
175.374	-0
175.753	-0.9
176.131	-0
176.51	-0
176.888	0.55
177.266	-0
177.645	0.03
178.023	-0
178.401	-0.24
178.779	0.04
179.158	-0.1
179.536	0.04
179.914	0.04
180.292	-0
180.67	-0
181.048	-0
181.427	-0.3
181.805	0.22
182.183	-0
182.561	-0
182.939	0.04
183.317	-0
183.695	0.37
184.073	0.76
184.451	-0
184.829	-0.88
185.206	0.24
185.584	0.93
185.962	-0
186.34	1.32
186.718	-0
187.096	0.78
187.473	0.56
187.851	0.3
188.229	-0.32
188.607	0.12
188.984	0.26
189.362	0.28
189.74	0.39
190.117	0.15
190.495	0.3
190.872	0.32
191.25	0.28
191.627	0.18
192.005	0.41
192.382	0.42
192.76	0.24
193.137	0.36
193.515	0.22
193.892	0.17
194.269	0.2
194.647	0.21
195.024	0.25
195.401	0.15
195.779	0.25
196.156	0.23
196.533	0.14
196.91	0.18
197.288	0.16
197.665	0.15
198.042	0.16
198.419	0.21
198.796	0.14
199.173	0.21
199.55	0.14
199.927	0.18
200.304	0.17
200.681	0.21
201.058	0.19
201.435	0.07
201.812	0.21
202.189	0.2
202.566	0.3
202.943	0.25
203.32	0.26
203.697	0.31
204.073	0.16
204.45	0.19
204.827	0.32
205.204	0.2
205.58	0.12
205.957	0.18
206.334	0.18
206.71	0.2
207.087	0.27
207.464	0.13
207.84	0.21
208.217	0.14
208.593	0.36
208.97	0.26
209.346	0.12
209.723	0.16
210.099	0.28
210.476	0.17
210.852	0.2
211.228	0.2
211.605	0.16
211.981	0.22
212.357	0.14
212.733	0.25
213.11	0.19
213.486	0.14
213.862	0.09
214.238	0.2
214.614	0.16
214.991	0.14
215.367	0.33
215.743	0.14
216.119	0.27
216.495	0.16
216.871	0.19
217.247	0.17
217.623	0.18
217.999	0.23
218.375	0.22
218.751	0.18
219.127	0.24
219.502	0.3
219.878	0.21
220.254	0.2
220.63	0.26
221.006	0.15
221.381	0.11
221.757	0.12
222.133	0.25
222.508	0.16
222.884	0.22
223.26	0.22
223.635	0.21
224.011	0.19
224.386	0.22
224.762	0.18
225.137	0.29
225.513	0.19
225.888	0.16
226.264	0.22
226.639	0.24
227.014	0.26
227.39	0.23
227.765	0.45
228.14	0.24
228.516	0.2
228.891	0.23
229.266	0.26
229.641	0.25
230.017	0.25
230.392	0.31
230.767	0.2
231.142	0.24
231.517	0.39
231.892	0.29
232.267	0.27
232.642	0.19
233.017	0.23
233.392	0.31
233.767	0.25
234.142	0.24
234.517	0.19
234.892	0.14
235.267	0.22
235.641	0.29
236.016	0.21
236.391	0.19
236.766	0.06
237.14	0.25
237.515	0.26
237.89	0.4
238.264	0.24
238.639	0.23
239.014	0.18
239.388	0.15
239.763	0.27
240.137	0.18
240.512	0.35
240.886	0.28
241.261	0.22
241.635	0.3
242.009	0.21
242.384	0.26
242.758	0.24
243.132	0.27
243.507	0.25
243.881	0.23
244.255	0.24
244.629	0.39
245.004	0.28
245.378	0.17
245.752	0.31
246.126	0.24
246.5	0.22
246.874	0.25
247.248	0.26
247.622	0.18
247.996	0.23
248.37	0.38
248.744	0.21
249.118	0.25
249.492	0.17
249.866	0.22
250.24	0.23
250.613	0.18
250.987	0.16
251.361	0.26
251.735	0.21
252.108	0.25
252.482	0.26
252.856	0.19
253.229	0.21
253.603	0.21
253.977	0.18
254.35	0.19
254.724	0.23
255.097	0.15
255.471	0.14
255.844	0.15
256.218	0.16
256.591	0.2
256.964	0.19
257.338	0.15
257.711	0.23
258.084	0.12
258.458	0.22
258.831	0.29
259.204	0.18
259.577	0.18
259.95	0.25
260.323	0.12
260.697	0.21
261.07	0.23
261.443	0.18
261.816	0.23
262.189	0.18
262.562	0.28
262.935	0.23
263.308	0.22
263.68	0.25
264.053	0.26
264.426	0.15
264.799	0.14
265.172	0.24
265.545	0.21
265.917	0.22
266.29	0.25
266.663	0.21
267.035	0.21
267.408	0.2
267.781	0.17
268.153	0.31
268.526	0.24
268.898	0.27
269.271	0.2
269.643	0.23
270.016	0.23
270.388	0.3
270.76	0.25
271.133	0.25
271.505	0.18
271.877	0.24
272.25	0.13
272.622	0.22
272.994	0.26
273.366	0.3
273.739	0.25
274.111	0.16
274.483	0.19
274.855	0.2
275.227	0.28
275.599	0.27
275.971	0.3
276.343	0.22
276.715	0.3
277.087	0.24
277.459	0.21
277.831	0.15
278.203	0.26
278.574	0.23
278.946	0.26
279.318	0.21
279.69	0.24
280.061	0.19
280.433	0.22
280.805	0.36
281.176	0.16
281.548	0.16
281.92	0.25
282.291	0.22
282.663	0.25
283.034	0.19
283.406	0.21
283.777	0.19
284.148	0.26
284.52	0.15
284.891	0.25
285.262	0.19
285.634	0.24
286.005	0.18
286.376	0.2
286.747	0.25
287.119	0.2
287.49	0.19
287.861	0.24
288.232	0.26
288.603	0.23
288.974	0.14
289.345	0.23
289.716	0.18
290.087	0.14
290.458	0.14
290.829	0.12
291.2	0.14
291.571	0.17
291.941	0.21
292.312	0.23
292.683	0.2
293.054	0.14
293.424	0.16
293.795	0.31
294.166	0.25
294.536	0.23
294.907	0.17
295.277	0.2
295.648	0.19
296.018	0.25
296.389	0.22
296.759	0.19
297.13	0.21
297.5	0.23
297.871	0.19
298.241	0.18
298.611	0.14
298.981	0.22
299.352	0.13
299.722	0.14
300.092	0.21
300.462	0.15
300.832	0.14
301.202	0.12
301.573	0.13
301.943	0.15
302.313	0.13
302.683	0.14
303.053	0.15
303.422	0.14
303.792	0.12
304.162	0.12
304.532	0.13
304.902	0.13
305.272	0.14
305.641	0.14
306.011	0.15
306.381	0.14
306.75	0.14
307.12	0.14
307.49	0.15
307.859	0.15
308.229	0.15
308.598	0.13
308.968	0.15
309.337	0.16
309.707	0.15
310.076	0.16
310.445	0.16
310.815	0.16
311.184	0.17
311.553	0.16
311.923	0.17
312.292	0.16
312.661	0.17
313.03	0.16
313.399	0.17
313.768	0.17
314.137	0.17
314.506	0.16
314.875	0.17
315.244	0.16
315.613	0.17
315.982	0.17
316.351	0.17
316.72	0.16
317.089	0.17
317.458	0.17
317.826	0.16
318.195	0.16
318.564	0.16
318.933	0.16
319.301	0.16
319.67	0.16
320.038	0.15
320.407	0.16
320.775	0.15
321.144	0.15
321.512	0.15
321.881	0.15
322.249	0.15
322.618	0.14
322.986	0.14
323.354	0.14
323.723	0.14
324.091	0.14
324.459	0.13
324.827	0.14
325.195	0.14
325.564	0.14
325.932	0.14
326.3	0.13
326.668	0.14
327.036	0.14
327.404	0.13
327.772	0.14
328.14	0.14
328.508	0.14
328.875	0.14
329.243	0.13
329.611	0.13
329.979	0.14
330.346	0.14
330.714	0.14
331.082	0.13
331.449	0.14
331.817	0.14
332.185	0.14
332.552	0.14
332.92	0.14
333.287	0.14
333.655	0.14
334.022	0.15
334.389	0.15
334.757	0.15
335.124	0.15
335.491	0.15
335.859	0.15
336.226	0.15
336.593	0.16
336.96	0.16
337.327	0.16
337.695	0.17
338.062	0.16
338.429	0.16
338.796	0.17
339.163	0.17
339.53	0.17
339.897	0.17
340.263	0.18
340.63	0.18
340.997	0.18
341.364	0.19
341.731	0.19
342.097	0.19
342.464	0.19
342.831	0.2
343.197	0.2
343.564	0.21
343.931	0.21
344.297	0.21
344.664	0.22
345.03	0.22
345.396	0.22
345.763	0.22
346.129	0.23
346.496	0.23
346.862	0.24
347.228	0.24
347.594	0.24
347.961	0.25
348.327	0.25
348.693	0.25
349.059	0.26
349.425	0.26
349.791	0.26
350.157	0.27
350.523	0.28
350.889	0.28
351.255	0.28
351.621	0.29
351.987	0.3
352.353	0.3
352.719	0.31
353.084	0.32
353.45	0.32
353.816	0.32
354.181	0.34
354.547	0.34
354.913	0.35
355.278	0.35
355.644	0.36
356.009	0.37
356.375	0.37
356.74	0.39
357.106	0.39
357.471	0.4
357.836	0.41
358.202	0.42
358.567	0.43
358.932	0.43
359.297	0.44
359.663	0.45
360.028	0.45
360.393	0.46
360.758	0.47
361.123	0.47
361.488	0.48
361.853	0.49
362.218	0.49
362.583	0.49
362.948	0.5
363.312	0.5
363.677	0.51
364.042	0.53
364.407	0.53
364.772	0.54
365.136	0.55
365.501	0.56
365.865	0.57
366.23	0.59
366.595	0.6
366.959	0.61
367.324	0.62
367.688	0.64
368.052	0.65
368.417	0.65
368.781	0.67
369.145	0.68
369.51	0.68
369.874	0.68
370.238	0.69
370.602	0.68
370.967	0.68
371.331	0.68
371.695	0.68
372.059	0.68
372.423	0.68
372.787	0.67
373.151	0.67
373.515	0.67
373.878	0.67
374.242	0.67
374.606	0.67
374.97	0.66
375.334	0.66
375.697	0.67
376.061	0.67
376.425	0.68
376.788	0.68
377.152	0.69
377.515	0.69
377.879	0.7
378.242	0.71
378.606	0.72
378.969	0.72
379.333	0.73
379.696	0.74
380.059	0.75
380.422	0.76
380.786	0.78
381.149	0.8
381.512	0.8
381.875	0.83
382.238	0.84
382.601	0.87
382.964	0.89
383.327	0.91
383.69	0.94
384.053	0.96
384.416	0.97
384.779	0.99
385.142	1.03
385.504	1.03
385.867	1.06
386.23	1.06
386.593	1.08
386.955	1.08
387.318	1.07
387.68	1.08
388.043	1.06
388.405	1.06
388.768	1.06
389.13	1.05
389.493	1.05
389.855	1.04
390.217	1.03
390.58	1.03
390.942	1.03
391.304	1.03
391.666	1.05
392.028	1.06
392.391	1.09
392.753	1.11
393.115	1.15
393.477	1.18
393.839	1.22
394.201	1.27
394.563	1.31
394.924	1.38
395.286	1.43
395.648	1.47
396.01	1.5
396.371	1.54
396.733	1.55
397.095	1.59
397.456	1.59
397.818	1.61
398.18	1.58
398.541	1.58
398.903	1.55
399.264	1.51
399.625	1.47
399.987	1.42
400.348	1.36
400.709	1.32
401.071	1.23
401.432	1.18
401.793	1.1
402.154	1.03
402.515	0.97
402.876	0.9
403.238	0.83
403.599	0.78
403.96	0.72
404.32	0.67
404.681	0.63
405.042	0.58
405.403	0.54
405.764	0.51
406.125	0.46
406.485	0.44
406.846	0.4
407.207	0.38
407.567	0.36
407.928	0.34
408.288	0.32
408.649	0.3
409.009	0.29
409.37	0.27
409.73	0.25
410.091	0.25
410.451	0.24
410.811	0.22
411.171	0.21
411.532	0.2
411.892	0.19
412.252	0.19
412.612	0.18
412.972	0.17
413.332	0.16
413.692	0.16
414.052	0.16
414.412	0.15
414.772	0.14
415.132	0.14
415.492	0.14
415.851	0.14
416.211	0.13
416.571	0.12
416.931	0.12
417.29	0.12
417.65	0.11
418.009	0.11
418.369	0.11
418.728	0.11
419.088	0.11
419.447	0.1
419.807	0.1
420.166	0.1
420.525	0.1
420.884	0.1
421.244	0.09
421.603	0.09
421.962	0.09
422.321	0.09
422.68	0.09
423.039	0.09
423.398	0.09
423.757	0.09
424.116	0.09
424.475	0.09
424.834	0.09
425.193	0.08
425.551	0.08
425.91	0.07
426.269	0.08
426.628	0.08
426.986	0.08
427.345	0.07
427.703	0.08
428.062	0.07
428.42	0.07
428.779	0.08
429.137	0.08
429.496	0.08
429.854	0.07
430.212	0.07
430.57	0.07
430.929	0.07
431.287	0.08
431.645	0.06
432.003	0.07
432.361	0.06
432.719	0.06
433.077	0.07
433.435	0.07
433.793	0.07
434.151	0.06
434.509	0.06
434.866	0.07
435.224	0.06
435.582	0.06
435.94	0.06
436.297	0.06
436.655	0.06
437.012	0.06
437.37	0.06
437.727	0.06
438.085	0.05
438.442	0.06
438.8	0.05
439.157	0.05
439.514	0.06
439.872	0.06
440.229	0.06
440.586	0.06
440.943	0.06
441.3	0.06
441.657	0.05
442.014	0.05
442.371	0.05
442.728	0.05
443.085	0.05
443.442	0.06
443.799	0.05
444.156	0.06
444.513	0.05
444.869	0.06
445.226	0.05
445.583	0.04
445.939	0.06
446.296	0.05
446.652	0.05
447.009	0.05
447.365	0.06
447.722	0.05
448.078	0.05
448.434	0.05
448.791	0.05
449.147	0.05
449.503	0.04
449.859	0.04
450.215	0.04
450.571	0.04
450.928	0.04
451.284	0.04
451.64	0.03
451.995	0.04
452.351	0.03
452.707	0.04
453.063	0.03
453.419	0.04
453.775	0.04
454.13	0.04
454.486	0.05
454.842	0.03
455.197	0.04
455.553	0.04
455.908	0.04
456.264	0.03
456.619	0.04
456.975	0.04
457.33	0.03
457.685	0.03
458.04	0.03
458.396	0.03
458.751	0.03
459.106	0.02
459.461	0.03
459.816	0.03
460.171	0.03
460.526	0.03
460.881	0.03
461.236	0.02
461.591	0.02
461.946	0.02
462.301	0.02
462.655	0.02
463.01	0.02
463.365	0.02
463.719	0.02
464.074	0.02
464.428	0.01
464.783	0.01
465.137	0.01
465.492	0.02
465.846	0.01
466.201	0.01
466.555	0.02
466.909	0.01
467.263	0.02
467.618	0.02
467.972	0.02
468.326	0.01
468.68	0.02
469.034	0.01
469.388	0.01
469.742	0.01
470.096	0.02
470.45	0.01
470.804	0.01
471.157	0.02
471.511	0.01
471.865	0.02
472.218	0.02
472.572	0.01
472.926	0.02
473.279	0.02
473.633	0.02
473.986	0.02
474.34	0.02
474.693	0.03
475.046	0.03
475.4	0.02
475.753	0.03
476.106	0.03
476.459	0.04
476.812	0.04
477.165	0.04
477.519	0.03
477.872	0.04
478.224	0.04
478.577	0.05
478.93	0.04
479.283	0.05
479.636	0.05
479.989	0.05
480.341	0.05
480.694	0.05
481.047	0.05
481.399	0.05
481.752	0.06
482.104	0.06
482.457	0.06
482.809	0.05
483.162	0.06
483.514	0.06
483.866	0.06
484.219	0.06
484.571	0.06
484.923	0.06
485.275	0.07
485.627	0.07
485.979	0.07
486.331	0.07
486.683	0.08
487.035	0.07
487.387	0.07
487.739	0.08
488.091	0.08
488.443	0.07
488.794	0.08
489.146	0.08
489.498	0.07
489.849	0.08
490.201	0.07
490.552	0.08
490.904	0.07
491.255	0.08
491.607	0.08
491.958	0.09
492.309	0.09
492.661	0.09
493.012	0.08
493.363	0.09
493.714	0.09
494.065	0.09
494.416	0.09
494.767	0.09
495.118	0.1
495.469	0.1
495.82	0.1
496.171	0.1
496.522	0.1
496.872	0.1
497.223	0.1
497.574	0.1
497.924	0.11
498.275	0.11
498.626	0.11
498.976	0.1
499.327	0.11
499.677	0.11
500.027	0.11
500.378	0.11
500.728	0.11
501.078	0.12
501.428	0.11
501.779	0.12
502.129	0.12
502.479	0.12
502.829	0.12
503.179	0.12
503.529	0.12
503.879	0.13
504.229	0.13
504.578	0.13
504.928	0.13
505.278	0.13
505.628	0.13
505.977	0.14
506.327	0.14
506.676	0.14
507.026	0.14
507.375	0.14
507.725	0.15
508.074	0.15
508.424	0.15
508.773	0.15
509.122	0.15
509.471	0.15
509.82	0.15
510.17	0.15
510.519	0.15
510.868	0.15
511.217	0.15
511.566	0.15
511.915	0.16
512.263	0.16
512.612	0.16
512.961	0.16
513.31	0.17
513.659	0.17
514.007	0.16
514.356	0.18
514.704	0.17
515.053	0.17
515.401	0.18
515.75	0.17
516.098	0.17
516.447	0.18
516.795	0.18
517.143	0.18
517.491	0.18
517.839	0.19
518.188	0.19
518.536	0.19
518.884	0.19
519.232	0.19
519.58	0.19
519.928	0.19
520.275	0.19
520.623	0.2
520.971	0.2
521.319	0.2
521.666	0.2
522.014	0.2
522.362	0.2
522.709	0.2
523.057	0.21
523.404	0.21
523.752	0.21
524.099	0.21
524.446	0.21
524.794	0.22
525.141	0.22
525.488	0.22
525.835	0.21
526.182	0.22
526.529	0.22
526.876	0.23
527.223	0.22
527.57	0.23
527.917	0.23
528.264	0.23
528.611	0.23
528.958	0.23
529.304	0.24
529.651	0.24
529.998	0.24
530.344	0.24
530.691	0.24
531.037	0.24
531.384	0.24
531.73	0.24
532.076	0.25
532.423	0.25
532.769	0.25
533.115	0.25
533.461	0.26
533.807	0.26
534.154	0.25
534.5	0.26
534.846	0.27
535.192	0.26
535.537	0.27
535.883	0.27
536.229	0.27
536.575	0.27
536.921	0.27
537.266	0.28
537.612	0.28
537.957	0.28
538.303	0.28
538.649	0.29
538.994	0.29
539.339	0.29
539.685	0.29
540.03	0.29
540.375	0.3
540.721	0.3
541.066	0.3
541.411	0.3
541.756	0.3
542.101	0.31
542.446	0.31
542.791	0.32
543.136	0.32
543.481	0.31
543.825	0.32
544.17	0.32
544.515	0.32
544.86	0.33
545.204	0.33
545.549	0.33
545.893	0.33
546.238	0.33
546.582	0.34
546.927	0.34
547.271	0.34
547.615	0.34
547.96	0.35
548.304	0.35
548.648	0.35
548.992	0.36
549.336	0.35
549.68	0.35
550.024	0.36
550.368	0.36
550.712	0.36
551.056	0.36
551.4	0.37
551.743	0.37
552.087	0.37
552.431	0.37
552.774	0.37
553.118	0.37
553.462	0.38
553.805	0.38
554.148	0.38
554.492	0.38
554.835	0.38
555.178	0.38
555.522	0.39
555.865	0.38
556.208	0.38
556.551	0.39
556.894	0.38
557.237	0.39
557.58	0.39
557.923	0.39
558.266	0.39
558.609	0.39
558.952	0.39
559.294	0.4
559.637	0.4
559.98	0.4
560.322	0.4
560.665	0.4
561.007	0.4
561.35	0.4
561.692	0.4
562.034	0.41
562.377	0.41
562.719	0.41
563.061	0.4
563.403	0.41
563.745	0.41
564.088	0.41
564.43	0.41
564.772	0.41
565.113	0.42
565.455	0.42
565.797	0.42
566.139	0.42
566.481	0.42
566.822	0.41
567.164	0.42
567.506	0.42
567.847	0.41
568.189	0.42
568.53	0.42
568.872	0.42
569.213	0.43
569.554	0.43
569.895	0.42
570.237	0.42
570.578	0.42
570.919	0.42
571.26	0.42
571.601	0.43
571.942	0.43
572.283	0.42
572.624	0.42
572.965	0.43
573.306	0.43
573.646	0.42
573.987	0.42
574.328	0.42
574.668	0.42
575.009	0.43
575.349	0.43
575.69	0.43
576.03	0.42
576.37	0.42
576.711	0.42
577.051	0.42
577.391	0.42
577.731	0.42
578.072	0.42
578.412	0.42
578.752	0.43
579.092	0.43
579.431	0.43
579.771	0.42
580.111	0.42
580.451	0.41
580.791	0.42
581.13	0.43
581.47	0.43
581.81	0.43
582.149	0.43
582.489	0.43
582.828	0.44
583.167	0.43
583.507	0.41
583.846	0.38
584.185	0.4
584.525	0.42
584.864	0.42
585.203	0.43
585.542	0.44
585.881	0.44
586.22	0.45
586.559	0.45
586.898	0.44
587.236	0.44
587.575	0.44
587.914	0.44
588.252	0.45
588.591	0.45
588.93	0.46
589.268	0.45
589.607	0.46
589.945	0.46
590.283	0.46
590.622	0.47
590.96	0.46
591.298	0.47
591.636	0.47
591.974	0.48
592.313	0.48
592.651	0.48
592.989	0.48
593.326	0.49
593.664	0.49
594.002	0.49
594.34	0.49
594.678	0.49
595.015	0.49
595.353	0.48
595.691	0.49
596.028	0.49
596.366	0.5
596.703	0.5
597.04	0.5
597.378	0.51
597.715	0.51
598.052	0.51
598.389	0.51
598.726	0.52
599.064	0.52
599.401	0.52
599.738	0.52
600.074	0.52
600.411	0.53
600.748	0.52
601.085	0.52
601.422	0.52
601.758	0.52
602.095	0.52
602.432	0.52
602.768	0.52
603.105	0.52
603.441	0.52
603.777	0.52
604.114	0.53
604.45	0.53
604.786	0.53
605.122	0.53
605.459	0.53
605.795	0.52
606.131	0.52
606.467	0.52
606.803	0.53
607.139	0.53
607.474	0.52
607.81	0.52
608.146	0.52
608.482	0.52
608.817	0.52
609.153	0.52
609.488	0.52
609.824	0.51
610.159	0.51
610.495	0.51
610.83	0.51
611.165	0.51
611.5	0.51
611.836	0.51
612.171	0.51
612.506	0.51
612.841	0.51
613.176	0.51
613.511	0.51
613.845	0.5
614.18	0.51
614.515	0.5
614.85	0.5
615.184	0.5
615.519	0.5
615.854	0.5
616.188	0.5
616.523	0.49
616.857	0.49
617.191	0.49
617.526	0.49
617.86	0.49
618.194	0.48
618.528	0.48
618.862	0.49
619.196	0.49
619.53	0.48
619.864	0.48
620.198	0.48
620.532	0.48
620.866	0.48
621.2	0.48
621.533	0.48
621.867	0.48
622.201	0.48
622.534	0.47
622.868	0.47
623.201	0.47
623.534	0.46
623.868	0.47
624.201	0.46
624.534	0.46
624.868	0.46
625.201	0.46
625.534	0.46
625.867	0.46
626.2	0.46
626.533	0.45
626.865	0.45
627.198	0.45
627.531	0.45
627.864	0.44
628.196	0.44
628.529	0.44
628.862	0.44
629.194	0.44
629.527	0.44
629.859	0.43
630.191	0.43
630.524	0.43
630.856	0.43
631.188	0.42
631.52	0.42
631.852	0.41
632.184	0.41
632.516	0.41
632.848	0.41
633.18	0.41
633.512	0.4
633.844	0.4
634.175	0.4
634.507	0.39
634.839	0.39
635.17	0.39
635.502	0.38
635.833	0.38
636.165	0.38
636.496	0.38
636.827	0.38
637.159	0.38
637.49	0.38
637.821	0.37
638.152	0.36
638.483	0.36
638.814	0.36
639.145	0.36
639.476	0.36
639.807	0.35
640.137	0.35
640.468	0.35
640.799	0.34
641.129	0.35
641.46	0.35
641.791	0.35
642.121	0.34
642.451	0.34
642.782	0.33
643.112	0.33
643.442	0.33
643.773	0.33
644.103	0.32
644.433	0.32
644.763	0.32
645.093	0.31
645.423	0.31
645.753	0.31
646.082	0.31
646.412	0.31
646.742	0.31
647.072	0.31
647.401	0.31
647.731	0.31
648.06	0.31
648.39	0.31
648.719	0.3
649.048	0.31
649.378	0.3
649.707	0.3
650.036	0.3
650.365	0.3
650.694	0.29
651.023	0.29
651.352	0.29
651.681	0.29
652.01	0.29
652.339	0.29
652.668	0.29
652.996	0.29
653.325	0.29
653.654	0.29
653.982	0.29
654.311	0.29
654.639	0.29
654.967	0.29
655.296	0.29
655.624	0.29
655.952	0.28
656.28	0.28
656.609	0.28
656.937	0.29
657.265	0.3
657.593	0.29
657.92	0.16
658.248	0.09
658.576	0.06
658.904	0.13
659.231	0.21
659.559	0.26
659.887	0.27
660.214	0.28
660.542	0.28
660.869	0.28
661.196	0.28
661.524	0.28
661.851	0.28
662.178	0.28
662.505	0.28
662.832	0.28
663.159	0.28
663.486	0.28
663.813	0.28
664.14	0.28
664.467	0.28
664.794	0.28
665.12	0.28
665.447	0.28
665.774	0.28
666.1	0.28
666.427	0.28
666.753	0.28
667.079	0.28
667.406	0.27
667.732	0.27
668.058	0.27
668.384	0.27
668.71	0.27
669.036	0.27
669.362	0.27
669.688	0.27
670.014	0.27
670.34	0.27
670.666	0.27
670.991	0.27
671.317	0.26
671.643	0.26
671.968	0.26
672.294	0.26
672.619	0.26
672.945	0.25
673.27	0.25
673.595	0.25
673.92	0.24
674.246	0.25
674.571	0.24
674.896	0.24
675.221	0.24
675.546	0.25
675.87	0.24
676.195	0.24
676.52	0.24
676.845	0.24
677.169	0.24
677.494	0.24
677.819	0.24
678.143	0.23
678.468	0.23
678.792	0.23
679.116	0.23
679.44	0.23
679.765	0.22
680.089	0.22
680.413	0.22
680.737	0.22
681.061	0.21
681.385	0.21
681.709	0.21
682.033	0.21
682.356	0.2
682.68	0.2
683.004	0.2
683.327	0.2
683.651	0.2
683.974	0.19
684.298	0.19
684.621	0.2
684.944	0.19
685.268	0.19
685.591	0.19
685.914	0.19
686.237	0.19
686.56	0.18
686.883	0.18
687.206	0.18
687.529	0.18
687.852	0.17
688.175	0.17
688.497	0.17
688.82	0.17
689.142	0.17
689.465	0.17
689.787	0.16
690.11	0.16
690.432	0.16
690.755	0.16
691.077	0.15
691.399	0.15
691.721	0.15
692.043	0.15
692.365	0.15
692.687	0.15
693.009	0.15
693.331	0.15
693.653	0.14
693.974	0.15
694.296	0.14
694.618	0.14
694.939	0.14
695.261	0.14
695.582	0.14
695.904	0.14
696.225	0.14
696.546	0.14
696.868	0.14
697.189	0.13
697.51	0.13
697.831	0.13
698.152	0.13
698.473	0.13
698.794	0.12
699.114	0.12
699.435	0.12
699.756	0.12
700.077	0.12
700.397	0.12
700.718	0.12
701.038	0.12
701.359	0.12
701.679	0.12
701.999	0.12
702.32	0.12
702.64	0.12
702.96	0.12
703.28	0.11
703.6	0.11
703.92	0.11
704.24	0.11
704.56	0.11
704.879	0.11
705.199	0.11
705.519	0.11
705.838	0.11
706.158	0.11
706.478	0.11
706.797	0.11
707.116	0.11
707.436	0.11
707.755	0.11
708.074	0.11
708.393	0.1
708.712	0.1
709.031	0.1
709.35	0.1
709.669	0.1
709.988	0.1
710.307	0.1
710.626	0.1
710.944	0.1
711.263	0.1
711.582	0.1
711.9	0.1
712.219	0.1
712.537	0.1
712.855	0.1
713.174	0.1
713.492	0.1
713.81	0.1
714.128	0.1
714.446	0.1
714.764	0.1
715.082	0.1
715.4	0.1
715.718	0.1
716.035	0.1
716.353	0.1
716.671	0.1
716.988	0.1
717.306	0.1
717.623	0.1
717.941	0.1
718.258	0.11
718.575	0.11
718.893	0.11
719.21	0.11
719.527	0.11
719.844	0.11
720.161	0.11
720.478	0.11
720.795	0.11
721.112	0.11
721.428	0.11
721.745	0.11
722.062	0.11
722.378	0.11
722.695	0.12
723.011	0.11
723.328	0.11
723.644	0.11
723.96	0.11
724.276	0.11
724.593	0.11
724.909	0.11
725.225	0.11
725.541	0.11
725.857	0.11
726.173	0.11
726.488	0.11
726.804	0.11
727.12	0.11
727.435	0.11
727.751	0.11
728.067	0.11
728.382	0.11
728.697	0.12
729.013	0.12
729.328	0.12
729.643	0.12
729.958	0.11
730.273	0.12
730.588	0.11
730.903	0.12
731.218	0.12
731.533	0.12
731.848	0.12
732.163	0.11
732.477	0.11
732.792	0.11
733.107	0.11
733.421	0.11
733.736	0.11
734.05	0.11
734.364	0.11
734.678	0.11
734.993	0.11
735.307	0.11
735.621	0.11
735.935	0.11
736.249	0.11
736.563	0.11
736.877	0.11
737.19	0.11
737.504	0.11
737.818	0.11
738.131	0.11
738.445	0.11
738.758	0.11
739.072	0.11
739.385	0.11
739.698	0.1
740.012	0.11
740.325	0.11
740.638	0.11
740.951	0.1
741.264	0.1
741.577	0.1
741.89	0.1
742.203	0.11
742.515	0.11
742.828	0.11
743.141	0.1
743.453	0.1
743.766	0.1
744.078	0.1
744.391	0.1
744.703	0.1
745.015	0.1
745.327	0.09
745.639	0.09
745.952	0.09
746.264	0.09
746.575	0.09
746.887	0.09
747.199	0.09
747.511	0.09
747.823	0.09
748.134	0.09
748.446	0.09
748.757	0.09
749.069	0.08
749.38	0.09
749.692	0.09
750.003	0.08
750.314	0.08
750.625	0.09
750.936	0.09
751.248	0.08
751.559	0.08
751.869	0.08
752.18	0.08
752.491	0.08
752.802	0.08
753.112	0.08
753.423	0.07
753.734	0.07
754.044	0.07
754.355	0.07
754.665	0.07
754.975	0.07
755.285	0.07
755.596	0.07
755.906	0.07
756.216	0.07
756.526	0.07
756.836	0.07
757.146	0.07
757.455	0.07
757.765	0.06
758.075	0.06
758.385	0.06
758.694	0.06
759.004	0.06
759.313	0.06
759.622	0.06
759.932	0.06
760.241	0.06
760.55	0.06
760.859	0.06
761.168	0.06
761.477	0.06
761.786	0.06
762.095	0.06
762.404	0.06
762.713	0.06
763.021	0.06
763.33	0.06
763.639	0.05
763.947	0.06
764.256	0.06
764.564	0.06
764.872	0.06
765.181	0.06
765.489	0.06
765.797	0.05
766.105	0.05
766.413	0.05
766.721	0.05
767.029	0.05
767.337	0.05
767.644	0.05
767.952	0.05
768.26	0.05
768.567	0.05
768.875	0.04
769.182	0.04
769.49	0.05
769.797	0.05
770.104	0.05
770.411	0.05
770.718	0.05
771.026	0.04
771.333	0.04
771.639	0.04
771.946	0.04
772.253	0.04
772.56	0.04
772.867	0.04
773.173	0.05
773.48	0.05
773.786	0.04
774.093	0.04
774.399	0.04
774.705	0.04
775.012	0.04
775.318	0.04
775.624	0.04
775.93	0.04
776.236	0.04
776.542	0.04
776.848	0.04
777.154	0.04
777.459	0.04
777.765	0.03
778.071	0.04
778.376	0.04
778.682	0.04
778.987	0.04
779.292	0.04
779.598	0.05
779.903	0.05
780.208	0.04
780.513	0.04
780.818	0.05
781.123	0.04
781.428	0.04
781.733	0.04
782.038	0.05
782.343	0.05
782.647	0.05
782.952	0.05
783.256	0.05
783.561	0.04
783.865	0.04
784.17	0.04
784.474	0.04
784.778	0.04
785.082	0.04
785.386	0.04
785.69	0.04
785.994	0.04
786.298	0.04
786.602	0.04
786.906	0.04
787.209	0.04
787.513	0.03
787.817	0.03
788.12	0.03
788.424	0.03
788.727	0.03
789.03	0.04
789.333	0.04
789.637	0.04
789.94	0.04
790.243	0.04
790.546	0.04
790.849	0.04
791.152	0.03
791.454	0.03
791.757	0.03
792.06	0.03
792.362	0.03
792.665	0.03
792.967	0.03
793.27	0.04
793.572	0.04
793.874	0.04
794.177	0.04
794.479	0.04
794.781	0.04
795.083	0.04
795.385	0.04
795.687	0.03
795.989	0.04
796.29	0.04
796.592	0.04
796.894	0.04
797.195	0.04
797.497	0.04
797.798	0.04
798.1	0.04
798.401	0.04
798.702	0.04
799.003	0.04
799.304	0.04
799.605	0.04
799.906	0.04
800.207	0.04
800.508	0.03
800.809	0.03
801.11	0.04
801.41	0.04
801.711	0.04
802.011	0.04
802.312	0.04
802.612	0.04
802.913	0.04
803.213	0.04
803.513	0.04
803.813	0.04
804.113	0.05
804.413	0.04
804.713	0.04
805.013	0.04
805.313	0.04
805.613	0.03
805.912	0.04
806.212	0.03
806.511	0.03
806.811	0.04
807.11	0.03
807.41	0.03
807.709	0.03
808.008	0.03
808.307	0.03
808.606	0.03
808.905	0.04
809.204	0.04
809.503	0.04
809.802	0.04
810.101	0.04
810.399	0.04
810.698	0.04
810.997	0.04
811.295	0.04
811.593	0.05
811.892	0.05
812.19	0.05
812.488	0.05
812.786	0.05
813.084	0.04
813.383	0.04
813.68	0.05
813.978	0.05
814.276	0.05
814.574	0.05
814.872	0.05
815.169	0.05
815.467	0.05
815.764	0.05
816.062	0.05
816.359	0.04
816.656	0.05
816.954	0.04
817.251	0.04
817.548	0.05
817.845	0.05
818.142	0.04
818.439	0.04
818.735	0.04
819.032	0.04
819.329	0.04
819.626	0.04
819.922	0.04
820.219	0.04
820.515	0.04
820.811	0.04
821.108	0.04
821.404	0.04
821.7	0.04
821.996	0.04
822.292	0.04
822.588	0.05
822.884	0.05
823.18	0.05
823.475	0.04
823.771	0.04
824.067	0.04
824.362	0.04
824.658	0.04
824.953	0.04
825.249	0.04
825.544	0.04
825.839	0.04
826.134	0.04
826.429	0.05
826.724	0.05
827.019	0.05
827.314	0.05
827.609	0.05
827.904	0.04
828.198	0.05
828.493	0.05
828.787	0.04
829.082	0.04
829.376	0.05
829.671	0.04
829.965	0.05
830.259	0.06
830.553	0.06
830.847	0.05
831.141	0.05
831.435	0.05
831.729	0.05
832.023	0.05
832.317	0.05
832.61	0.06
832.904	0.05
833.197	0.05
833.491	0.06
833.784	0.07
834.077	0.06
834.371	0.06
834.664	0.06
834.957	0.06
835.25	0.06
835.543	0.06
835.836	0.06
836.129	0.06
836.421	0.05
836.714	0.05
837.007	0.05
837.299	0.05
837.592	0.05
837.884	0.06
838.177	0.05
838.469	0.05
838.761	0.05
839.053	0.05
839.345	0.05
839.637	0.05
839.929	0.04
840.221	0.05
840.513	0.05
840.805	0.05
841.096	0.05
841.388	0.05
841.68	0.05
841.971	0.05
842.262	0.05
842.554	0.05
842.845	0.05
843.136	0.05
843.427	0.05
843.718	0.05
844.009	0.05
844.3	0.05
844.591	0.06
844.882	0.05
845.173	0.05
845.463	0.06
845.754	0.06
846.044	0.06
846.335	0.07
846.625	0.06
846.915	0.06
847.206	0.07
847.496	0.06
847.786	0.06
848.076	0.06
848.366	0.06
848.656	0.05
848.945	0.05
849.235	0.05
849.525	0.04
849.814	0.05
850.104	0.05
850.393	0.04
850.683	0.04
850.972	0.05
851.261	0.04
851.551	0.05
851.84	0.05
852.129	0.05
852.418	0.05
852.707	0.04
852.995	0.05
853.284	0.05
853.573	0.05
853.862	0.06
854.15	0.06
854.439	0.04
854.727	0.06
855.015	0.06
855.304	0.04
855.592	0.05
855.88	0.04
856.168	0.04
856.456	0.05
856.744	0.05
857.032	0.04
857.32	0.05
857.607	0.06
857.895	0.06
858.183	0.07
858.47	0.06
858.757	0.06
859.045	0.07
859.332	0.06
859.619	0.05
859.907	0.04
860.194	0.05
860.481	0.05
860.768	0.05
861.054	0.06
861.341	0.06
861.628	0.08
861.915	0.07
862.201	0.05
862.488	0.04
862.774	0.04
863.061	0.05
863.347	0.05
863.633	0.07
863.919	0.05
864.205	0.04
864.491	0.04
864.777	0.05
865.063	0.06
865.349	0.06
865.635	0.03
865.92	0.03
866.206	0.07
866.492	0.07
866.777	0.05
867.062	0.03
867.348	0.04
867.633	0.07
867.918	0.08
868.203	0.07
868.488	0.03
868.773	0.02
869.058	0
869.343	0.02
869.628	0.06
869.912	0.04
870.197	0.03
870.482	0.02
870.766	0.05
871.05	0.04
871.335	0.01
871.619	0.02
871.903	0.02
872.187	0.05
872.471	0.02
872.755	0.06
873.039	0.05
873.323	0.08
873.607	0.02
873.89	0.05
874.174	0.09
874.458	0
874.741	0.05
875.024	-0.02
875.308	0.02
875.591	-0.04
875.874	0.03
876.157	0.05
876.44	0.01
876.723	0.08
877.006	0.05
877.289	0.01
877.572	0.09
877.854	0.03
878.137	0.05
878.42	0
878.702	0.01
878.984	0.03
879.267	0.02
879.549	0.05
879.831	0.06
880.113	0.14
880.395	-0.03
880.677	0.04
880.959	-0
