Data from Rubpy_EV_600_EDTA_Buffered_Absorbance_13-15-16-023.txt Node
Date: Tue Jun 30 13:15:16 BST 2026
User: fpm-admin
Spectrometer: OFX00224
Trigger mode: 0
Integration Time (sec): 7.000000E-2
Scans to average: 3
Nonlinearity correction enabled: false
Boxcar width: 0
Storing dark spectrum: false
XAxis mode: Wavelengths
Number of Pixels in Spectrum: 2136
>>>>>Begin Spectral Data<<<<<
154.91	-0
155.289	0.84
155.669	0.47
156.048	-0.69
156.428	-0
156.807	-0
157.186	-0
157.566	0.12
157.945	0.49
158.325	0.6
158.704	-0
159.083	-0.63
159.462	-0.85
159.842	-0
160.221	-0
160.6	0.34
160.979	0.7
161.359	-0
161.738	-0
162.117	-0.64
162.496	-0
162.875	0.71
163.254	0.22
163.633	-1.67
164.012	-0
164.391	-0.38
164.77	-0
165.149	1.13
165.528	0.07
165.907	-0
166.286	-0
166.665	0.23
167.044	-0
167.423	-0
167.802	-0.51
168.181	1.68
168.559	-0
168.938	0.35
169.317	-0.16
169.696	-0.71
170.074	0.5
170.453	0.48
170.832	-0
171.21	1.15
171.589	-0
171.968	-0
172.346	-0
172.725	0.38
173.103	-0.22
173.482	-0.17
173.861	-0
174.239	0.26
174.617	-0
174.996	-0
175.374	-0
175.753	-0.48
176.131	-0
176.51	0.3
176.888	0.12
177.266	-0
177.645	-0.01
178.023	-0
178.401	-0.23
178.779	0.05
179.158	0.25
179.536	-0.07
179.914	0.06
180.292	-0
180.67	-0
181.048	-0
181.427	-0
181.805	-0.09
182.183	-0
182.561	-0
182.939	0.02
183.317	-0
183.695	-0.05
184.073	0.12
184.451	-0
184.829	-1.02
185.206	0.03
185.584	0.19
185.962	-0
186.34	-0
186.718	-0.54
187.096	0.54
187.473	-0
187.851	-0
188.229	-0.32
188.607	0.13
188.984	0.12
189.362	0.27
189.74	0.21
190.117	0.12
190.495	0.18
190.872	0.29
191.25	0.3
191.627	0.41
192.005	0.31
192.382	0.34
192.76	0.26
193.137	0.25
193.515	0.19
193.892	0.3
194.269	0.11
194.647	0.29
195.024	0.2
195.401	0.25
195.779	0.24
196.156	0.19
196.533	0.21
196.91	0.28
197.288	0.18
197.665	0.28
198.042	0.24
198.419	0.17
198.796	0.17
199.173	0.21
199.55	0.3
199.927	0.21
200.304	0.25
200.681	0.19
201.058	0.29
201.435	0.18
201.812	0.2
202.189	0.15
202.566	0.29
202.943	0.17
203.32	0.11
203.697	0.25
204.073	0.18
204.45	0.22
204.827	0.25
205.204	0.28
205.58	0.22
205.957	0.19
206.334	0.16
206.71	0.17
207.087	0.25
207.464	0.25
207.84	0.28
208.217	0.22
208.593	0.35
208.97	0.24
209.346	0.22
209.723	0.35
210.099	0.24
210.476	0.23
210.852	0.17
211.228	0.2
211.605	0.12
211.981	0.36
212.357	0.22
212.733	0.27
213.11	0.38
213.486	0.21
213.862	0.19
214.238	0.25
214.614	0.22
214.991	0.27
215.367	0.38
215.743	0.19
216.119	0.23
216.495	0.14
216.871	0.25
217.247	0.32
217.623	0.23
217.999	0.41
218.375	0.19
218.751	0.2
219.127	0.25
219.502	0.2
219.878	0.27
220.254	0.35
220.63	0.33
221.006	0.23
221.381	0.19
221.757	0.26
222.133	0.2
222.508	0.14
222.884	0.17
223.26	0.17
223.635	0.19
224.011	0.14
224.386	0.26
224.762	0.14
225.137	0.24
225.513	0.17
225.888	0.17
226.264	0.28
226.639	0.27
227.014	0.2
227.39	0.18
227.765	0.19
228.14	0.24
228.516	0.28
228.891	0.26
229.266	0.33
229.641	0.28
230.017	0.25
230.392	0.39
230.767	0.24
231.142	0.24
231.517	0.32
231.892	0.23
232.267	0.28
232.642	0.28
233.017	0.19
233.392	0.27
233.767	0.25
234.142	0.19
234.517	0.12
234.892	0.22
235.267	0.19
235.641	0.22
236.016	0.22
236.391	0.18
236.766	0.21
237.14	0.12
237.515	0.25
237.89	0.37
238.264	0.2
238.639	0.31
239.014	0.17
239.388	0.18
239.763	0.16
240.137	0.25
240.512	0.23
240.886	0.12
241.261	0.25
241.635	0.18
242.009	0.24
242.384	0.25
242.758	0.26
243.132	0.27
243.507	0.31
243.881	0.15
244.255	0.26
244.629	0.2
245.004	0.42
245.378	0.25
245.752	0.32
246.126	0.21
246.5	0.25
246.874	0.23
247.248	0.29
247.622	0.13
247.996	0.17
248.37	0.28
248.744	0.1
249.118	0.2
249.492	0.25
249.866	0.26
250.24	0.19
250.613	0.15
250.987	0.18
251.361	0.28
251.735	0.21
252.108	0.2
252.482	0.22
252.856	0.14
253.229	0.28
253.603	0.27
253.977	0.15
254.35	0.25
254.724	0.18
255.097	0.25
255.471	0.16
255.844	0.17
256.218	0.22
256.591	0.2
256.964	0.15
257.338	0.23
257.711	0.23
258.084	0.17
258.458	0.2
258.831	0.23
259.204	0.24
259.577	0.3
259.95	0.2
260.323	0.14
260.697	0.24
261.07	0.35
261.443	0.19
261.816	0.21
262.189	0.4
262.562	0.18
262.935	0.25
263.308	0.2
263.68	0.09
264.053	0.18
264.426	0.17
264.799	0.17
265.172	0.33
265.545	0.2
265.917	0.2
266.29	0.18
266.663	0.2
267.035	0.2
267.408	0.12
267.781	0.12
268.153	0.19
268.526	0.26
268.898	0.26
269.271	0.13
269.643	0.22
270.016	0.19
270.388	0.2
270.76	0.22
271.133	0.25
271.505	0.16
271.877	0.17
272.25	0.12
272.622	0.22
272.994	0.17
273.366	0.28
273.739	0.25
274.111	0.17
274.483	0.2
274.855	0.17
275.227	0.27
275.599	0.08
275.971	0.22
276.343	0.23
276.715	0.24
277.087	0.23
277.459	0.21
277.831	0.21
278.203	0.21
278.574	0.22
278.946	0.15
279.318	0.26
279.69	0.29
280.061	0.25
280.433	0.23
280.805	0.29
281.176	0.17
281.548	0.27
281.92	0.19
282.291	0.13
282.663	0.26
283.034	0.21
283.406	0.24
283.777	0.19
284.148	0.23
284.52	0.21
284.891	0.23
285.262	0.19
285.634	0.21
286.005	0.2
286.376	0.24
286.747	0.24
287.119	0.21
287.49	0.17
287.861	0.18
288.232	0.24
288.603	0.22
288.974	0.12
289.345	0.2
289.716	0.2
290.087	0.17
290.458	0.18
290.829	0.12
291.2	0.1
291.571	0.2
291.941	0.21
292.312	0.26
292.683	0.23
293.054	0.23
293.424	0.21
293.795	0.24
294.166	0.2
294.536	0.2
294.907	0.14
295.277	0.2
295.648	0.16
296.018	0.17
296.389	0.17
296.759	0.15
297.13	0.2
297.5	0.23
297.871	0.16
298.241	0.15
298.611	0.18
298.981	0.17
299.352	0.15
299.722	0.15
300.092	0.15
300.462	0.12
300.832	0.15
301.202	0.13
301.573	0.14
301.943	0.13
302.313	0.13
302.683	0.13
303.053	0.11
303.422	0.1
303.792	0.11
304.162	0.12
304.532	0.12
304.902	0.12
305.272	0.12
305.641	0.12
306.011	0.14
306.381	0.13
306.75	0.13
307.12	0.13
307.49	0.13
307.859	0.13
308.229	0.13
308.598	0.13
308.968	0.14
309.337	0.14
309.707	0.14
310.076	0.14
310.445	0.14
310.815	0.15
311.184	0.15
311.553	0.15
311.923	0.15
312.292	0.15
312.661	0.14
313.03	0.15
313.399	0.15
313.768	0.15
314.137	0.14
314.506	0.15
314.875	0.15
315.244	0.15
315.613	0.15
315.982	0.16
316.351	0.15
316.72	0.15
317.089	0.14
317.458	0.15
317.826	0.14
318.195	0.14
318.564	0.14
318.933	0.14
319.301	0.14
319.67	0.14
320.038	0.13
320.407	0.14
320.775	0.13
321.144	0.14
321.512	0.13
321.881	0.14
322.249	0.13
322.618	0.13
322.986	0.13
323.354	0.13
323.723	0.13
324.091	0.12
324.459	0.12
324.827	0.12
325.195	0.12
325.564	0.12
325.932	0.12
326.3	0.12
326.668	0.12
327.036	0.12
327.404	0.12
327.772	0.12
328.14	0.12
328.508	0.12
328.875	0.12
329.243	0.12
329.611	0.12
329.979	0.12
330.346	0.12
330.714	0.12
331.082	0.12
331.449	0.12
331.817	0.12
332.185	0.12
332.552	0.12
332.92	0.12
333.287	0.13
333.655	0.13
334.022	0.13
334.389	0.13
334.757	0.13
335.124	0.13
335.491	0.13
335.859	0.13
336.226	0.14
336.593	0.14
336.96	0.14
337.327	0.14
337.695	0.15
338.062	0.15
338.429	0.15
338.796	0.15
339.163	0.15
339.53	0.15
339.897	0.15
340.263	0.16
340.63	0.16
340.997	0.16
341.364	0.17
341.731	0.17
342.097	0.17
342.464	0.17
342.831	0.17
343.197	0.18
343.564	0.18
343.931	0.19
344.297	0.19
344.664	0.19
345.03	0.2
345.396	0.2
345.763	0.2
346.129	0.21
346.496	0.21
346.862	0.21
347.228	0.21
347.594	0.21
347.961	0.22
348.327	0.22
348.693	0.22
349.059	0.23
349.425	0.23
349.791	0.24
350.157	0.24
350.523	0.24
350.889	0.25
351.255	0.25
351.621	0.26
351.987	0.26
352.353	0.27
352.719	0.27
353.084	0.28
353.45	0.28
353.816	0.29
354.181	0.3
354.547	0.3
354.913	0.3
355.278	0.31
355.644	0.32
356.009	0.32
356.375	0.33
356.74	0.34
357.106	0.35
357.471	0.36
357.836	0.37
358.202	0.37
358.567	0.38
358.932	0.39
359.297	0.39
359.663	0.4
360.028	0.4
360.393	0.41
360.758	0.41
361.123	0.42
361.488	0.43
361.853	0.43
362.218	0.43
362.583	0.44
362.948	0.45
363.312	0.45
363.677	0.46
364.042	0.47
364.407	0.48
364.772	0.48
365.136	0.49
365.501	0.5
365.865	0.51
366.23	0.52
366.595	0.53
366.959	0.55
367.324	0.56
367.688	0.57
368.052	0.58
368.417	0.59
368.781	0.59
369.145	0.6
369.51	0.61
369.874	0.61
370.238	0.61
370.602	0.61
370.967	0.61
371.331	0.61
371.695	0.61
372.059	0.6
372.423	0.61
372.787	0.6
373.151	0.6
373.515	0.59
373.878	0.59
374.242	0.59
374.606	0.6
374.97	0.59
375.334	0.59
375.697	0.6
376.061	0.6
376.425	0.61
376.788	0.61
377.152	0.62
377.515	0.62
377.879	0.62
378.242	0.63
378.606	0.64
378.969	0.65
379.333	0.65
379.696	0.66
380.059	0.67
380.422	0.69
380.786	0.69
381.149	0.71
381.512	0.73
381.875	0.74
382.238	0.76
382.601	0.77
382.964	0.8
383.327	0.81
383.69	0.84
384.053	0.86
384.416	0.89
384.779	0.9
385.142	0.92
385.504	0.93
385.867	0.95
386.23	0.96
386.593	0.98
386.955	0.97
387.318	0.97
387.68	0.97
388.043	0.97
388.405	0.97
388.768	0.95
389.13	0.95
389.493	0.94
389.855	0.94
390.217	0.93
390.58	0.93
390.942	0.93
391.304	0.93
391.666	0.94
392.028	0.97
392.391	0.99
392.753	1
393.115	1.04
393.477	1.08
393.839	1.12
394.201	1.15
394.563	1.19
394.924	1.25
395.286	1.29
395.648	1.33
396.01	1.37
396.371	1.4
396.733	1.41
397.095	1.46
397.456	1.45
397.818	1.47
398.18	1.45
398.541	1.45
398.903	1.42
399.264	1.37
399.625	1.32
399.987	1.3
400.348	1.25
400.709	1.18
401.071	1.12
401.432	1.06
401.793	0.99
402.154	0.94
402.515	0.87
402.876	0.81
403.238	0.75
403.599	0.7
403.96	0.65
404.32	0.6
404.681	0.56
405.042	0.52
405.403	0.48
405.764	0.45
406.125	0.42
406.485	0.39
406.846	0.37
407.207	0.35
407.567	0.32
407.928	0.3
408.288	0.29
408.649	0.26
409.009	0.26
409.37	0.25
409.73	0.23
410.091	0.22
410.451	0.21
410.811	0.2
411.171	0.2
411.532	0.18
411.892	0.18
412.252	0.17
412.612	0.16
412.972	0.16
413.332	0.16
413.692	0.15
414.052	0.14
414.412	0.14
414.772	0.13
415.132	0.13
415.492	0.12
415.851	0.12
416.211	0.12
416.571	0.11
416.931	0.11
417.29	0.11
417.65	0.1
418.009	0.1
418.369	0.1
418.728	0.1
419.088	0.1
419.447	0.1
419.807	0.09
420.166	0.1
420.525	0.09
420.884	0.09
421.244	0.09
421.603	0.08
421.962	0.08
422.321	0.09
422.68	0.08
423.039	0.08
423.398	0.08
423.757	0.08
424.116	0.08
424.475	0.08
424.834	0.08
425.193	0.07
425.551	0.07
425.91	0.07
426.269	0.07
426.628	0.07
426.986	0.06
427.345	0.06
427.703	0.07
428.062	0.07
428.42	0.07
428.779	0.07
429.137	0.07
429.496	0.06
429.854	0.06
430.212	0.06
430.57	0.06
430.929	0.07
431.287	0.07
431.645	0.05
432.003	0.07
432.361	0.06
432.719	0.05
433.077	0.06
433.435	0.06
433.793	0.06
434.151	0.06
434.509	0.06
434.866	0.06
435.224	0.06
435.582	0.06
435.94	0.06
436.297	0.06
436.655	0.06
437.012	0.05
437.37	0.06
437.727	0.05
438.085	0.05
438.442	0.05
438.8	0.05
439.157	0.05
439.514	0.05
439.872	0.05
440.229	0.05
440.586	0.05
440.943	0.05
441.3	0.05
441.657	0.05
442.014	0.04
442.371	0.05
442.728	0.05
443.085	0.05
443.442	0.05
443.799	0.04
444.156	0.04
444.513	0.04
444.869	0.05
445.226	0.05
445.583	0.04
445.939	0.05
446.296	0.04
446.652	0.05
447.009	0.04
447.365	0.05
447.722	0.05
448.078	0.04
448.434	0.04
448.791	0.04
449.147	0.04
449.503	0.04
449.859	0.04
450.215	0.04
450.571	0.04
450.928	0.04
451.284	0.04
451.64	0.04
451.995	0.04
452.351	0.03
452.707	0.04
453.063	0.03
453.419	0.03
453.775	0.03
454.13	0.04
454.486	0.04
454.842	0.02
455.197	0.04
455.553	0.03
455.908	0.03
456.264	0.03
456.619	0.03
456.975	0.03
457.33	0.03
457.685	0.03
458.04	0.03
458.396	0.02
458.751	0.03
459.106	0.02
459.461	0.03
459.816	0.03
460.171	0.02
460.526	0.03
460.881	0.03
461.236	0.02
461.591	0.02
461.946	0.01
462.301	0.02
462.655	0.02
463.01	0.01
463.365	0.01
463.719	0.01
464.074	0.02
464.428	0.01
464.783	0.01
465.137	0
465.492	0.01
465.846	0.01
466.201	0.01
466.555	0.01
466.909	0
467.263	0.01
467.618	0.01
467.972	0.01
468.326	0.01
468.68	0.01
469.034	0
469.388	0.01
469.742	0.01
470.096	0.01
470.45	0.01
470.804	0.01
471.157	0.01
471.511	0.01
471.865	0.01
472.218	0.01
472.572	0.01
472.926	0.01
473.279	0.01
473.633	0.01
473.986	0.02
474.34	0.02
474.693	0.02
475.046	0.03
475.4	0.02
475.753	0.03
476.106	0.03
476.459	0.03
476.812	0.03
477.165	0.03
477.519	0.03
477.872	0.03
478.224	0.04
478.577	0.04
478.93	0.04
479.283	0.04
479.636	0.04
479.989	0.04
480.341	0.04
480.694	0.04
481.047	0.05
481.399	0.05
481.752	0.05
482.104	0.05
482.457	0.05
482.809	0.05
483.162	0.05
483.514	0.05
483.866	0.05
484.219	0.05
484.571	0.05
484.923	0.05
485.275	0.06
485.627	0.05
485.979	0.06
486.331	0.06
486.683	0.07
487.035	0.06
487.387	0.07
487.739	0.07
488.091	0.07
488.443	0.07
488.794	0.07
489.146	0.07
489.498	0.07
489.849	0.07
490.201	0.06
490.552	0.07
490.904	0.07
491.255	0.07
491.607	0.07
491.958	0.08
492.309	0.07
492.661	0.07
493.012	0.07
493.363	0.08
493.714	0.08
494.065	0.08
494.416	0.08
494.767	0.09
495.118	0.09
495.469	0.09
495.82	0.09
496.171	0.09
496.522	0.09
496.872	0.09
497.223	0.09
497.574	0.09
497.924	0.09
498.275	0.09
498.626	0.1
498.976	0.09
499.327	0.09
499.677	0.1
500.027	0.1
500.378	0.1
500.728	0.1
501.078	0.1
501.428	0.1
501.779	0.11
502.129	0.11
502.479	0.11
502.829	0.11
503.179	0.11
503.529	0.11
503.879	0.11
504.229	0.12
504.578	0.11
504.928	0.11
505.278	0.12
505.628	0.12
505.977	0.12
506.327	0.12
506.676	0.13
507.026	0.12
507.375	0.13
507.725	0.13
508.074	0.13
508.424	0.13
508.773	0.13
509.122	0.13
509.471	0.13
509.82	0.14
510.17	0.14
510.519	0.14
510.868	0.14
511.217	0.14
511.566	0.14
511.915	0.14
512.263	0.15
512.612	0.15
512.961	0.14
513.31	0.15
513.659	0.15
514.007	0.15
514.356	0.16
514.704	0.15
515.053	0.15
515.401	0.16
515.75	0.16
516.098	0.16
516.447	0.16
516.795	0.16
517.143	0.16
517.491	0.16
517.839	0.17
518.188	0.17
518.536	0.17
518.884	0.17
519.232	0.17
519.58	0.17
519.928	0.17
520.275	0.17
520.623	0.17
520.971	0.18
521.319	0.18
521.666	0.18
522.014	0.18
522.362	0.18
522.709	0.18
523.057	0.19
523.404	0.19
523.752	0.18
524.099	0.19
524.446	0.19
524.794	0.19
525.141	0.19
525.488	0.19
525.835	0.19
526.182	0.2
526.529	0.2
526.876	0.2
527.223	0.21
527.57	0.21
527.917	0.21
528.264	0.21
528.611	0.21
528.958	0.21
529.304	0.21
529.651	0.21
529.998	0.22
530.344	0.22
530.691	0.22
531.037	0.22
531.384	0.22
531.73	0.22
532.076	0.22
532.423	0.22
532.769	0.22
533.115	0.23
533.461	0.23
533.807	0.23
534.154	0.23
534.5	0.24
534.846	0.24
535.192	0.24
535.537	0.24
535.883	0.24
536.229	0.24
536.575	0.25
536.921	0.25
537.266	0.25
537.612	0.25
537.957	0.25
538.303	0.25
538.649	0.26
538.994	0.26
539.339	0.26
539.685	0.26
540.03	0.26
540.375	0.27
540.721	0.27
541.066	0.27
541.411	0.27
541.756	0.27
542.101	0.28
542.446	0.28
542.791	0.29
543.136	0.28
543.481	0.28
543.825	0.29
544.17	0.29
544.515	0.29
544.86	0.29
545.204	0.29
545.549	0.29
545.893	0.3
546.238	0.3
546.582	0.3
546.927	0.31
547.271	0.31
547.615	0.31
547.96	0.31
548.304	0.31
548.648	0.32
548.992	0.32
549.336	0.32
549.68	0.32
550.024	0.32
550.368	0.32
550.712	0.33
551.056	0.33
551.4	0.33
551.743	0.33
552.087	0.33
552.431	0.33
552.774	0.33
553.118	0.34
553.462	0.34
553.805	0.34
554.148	0.34
554.492	0.35
554.835	0.34
555.178	0.34
555.522	0.35
555.865	0.35
556.208	0.35
556.551	0.35
556.894	0.35
557.237	0.35
557.58	0.35
557.923	0.35
558.266	0.35
558.609	0.35
558.952	0.36
559.294	0.36
559.637	0.36
559.98	0.36
560.322	0.36
560.665	0.36
561.007	0.37
561.35	0.36
561.692	0.36
562.034	0.37
562.377	0.36
562.719	0.37
563.061	0.36
563.403	0.37
563.745	0.37
564.088	0.37
564.43	0.37
564.772	0.37
565.113	0.38
565.455	0.37
565.797	0.37
566.139	0.37
566.481	0.37
566.822	0.37
567.164	0.37
567.506	0.38
567.847	0.38
568.189	0.38
568.53	0.38
568.872	0.38
569.213	0.38
569.554	0.38
569.895	0.38
570.237	0.38
570.578	0.38
570.919	0.38
571.26	0.38
571.601	0.39
571.942	0.39
572.283	0.38
572.624	0.38
572.965	0.38
573.306	0.38
573.646	0.38
573.987	0.38
574.328	0.38
574.668	0.38
575.009	0.38
575.349	0.38
575.69	0.38
576.03	0.38
576.37	0.38
576.711	0.38
577.051	0.38
577.391	0.38
577.731	0.38
578.072	0.38
578.412	0.38
578.752	0.38
579.092	0.38
579.431	0.38
579.771	0.38
580.111	0.37
580.451	0.37
580.791	0.38
581.13	0.38
581.47	0.38
581.81	0.39
582.149	0.39
582.489	0.39
582.828	0.39
583.167	0.39
583.507	0.36
583.846	0.35
584.185	0.35
584.525	0.37
584.864	0.38
585.203	0.39
585.542	0.4
585.881	0.4
586.22	0.4
586.559	0.4
586.898	0.4
587.236	0.4
587.575	0.39
587.914	0.39
588.252	0.4
588.591	0.4
588.93	0.41
589.268	0.41
589.607	0.41
589.945	0.41
590.283	0.41
590.622	0.41
590.96	0.42
591.298	0.42
591.636	0.43
591.974	0.43
592.313	0.43
592.651	0.43
592.989	0.43
593.326	0.44
593.664	0.43
594.002	0.44
594.34	0.44
594.678	0.44
595.015	0.44
595.353	0.44
595.691	0.44
596.028	0.44
596.366	0.45
596.703	0.45
597.04	0.45
597.378	0.46
597.715	0.45
598.052	0.46
598.389	0.46
598.726	0.47
599.064	0.47
599.401	0.47
599.738	0.47
600.074	0.47
600.411	0.47
600.748	0.47
601.085	0.47
601.422	0.47
601.758	0.46
602.095	0.47
602.432	0.47
602.768	0.47
603.105	0.47
603.441	0.47
603.777	0.47
604.114	0.48
604.45	0.47
604.786	0.47
605.122	0.47
605.459	0.47
605.795	0.47
606.131	0.47
606.467	0.47
606.803	0.47
607.139	0.47
607.474	0.47
607.81	0.47
608.146	0.47
608.482	0.47
608.817	0.47
609.153	0.47
609.488	0.46
609.824	0.46
610.159	0.46
610.495	0.46
610.83	0.46
611.165	0.46
611.5	0.46
611.836	0.46
612.171	0.46
612.506	0.46
612.841	0.46
613.176	0.46
613.511	0.46
613.845	0.45
614.18	0.45
614.515	0.45
614.85	0.45
615.184	0.45
615.519	0.45
615.854	0.45
616.188	0.45
616.523	0.45
616.857	0.44
617.191	0.44
617.526	0.44
617.86	0.44
618.194	0.44
618.528	0.43
618.862	0.44
619.196	0.44
619.53	0.44
619.864	0.44
620.198	0.43
620.532	0.43
620.866	0.43
621.2	0.43
621.533	0.43
621.867	0.43
622.201	0.43
622.534	0.42
622.868	0.42
623.201	0.42
623.534	0.42
623.868	0.42
624.201	0.42
624.534	0.42
624.868	0.42
625.201	0.41
625.534	0.42
625.867	0.41
626.2	0.42
626.533	0.41
626.865	0.41
627.198	0.41
627.531	0.4
627.864	0.4
628.196	0.4
628.529	0.4
628.862	0.4
629.194	0.39
629.527	0.39
629.859	0.39
630.191	0.38
630.524	0.38
630.856	0.38
631.188	0.38
631.52	0.38
631.852	0.38
632.184	0.37
632.516	0.37
632.848	0.37
633.18	0.37
633.512	0.36
633.844	0.36
634.175	0.36
634.507	0.35
634.839	0.35
635.17	0.35
635.502	0.35
635.833	0.34
636.165	0.34
636.496	0.35
636.827	0.34
637.159	0.34
637.49	0.34
637.821	0.33
638.152	0.33
638.483	0.33
638.814	0.32
639.145	0.32
639.476	0.32
639.807	0.32
640.137	0.32
640.468	0.31
640.799	0.31
641.129	0.31
641.46	0.31
641.791	0.31
642.121	0.31
642.451	0.3
642.782	0.3
643.112	0.3
643.442	0.3
643.773	0.3
644.103	0.29
644.433	0.29
644.763	0.28
645.093	0.28
645.423	0.28
645.753	0.28
646.082	0.28
646.412	0.28
646.742	0.28
647.072	0.28
647.401	0.28
647.731	0.28
648.06	0.28
648.39	0.27
648.719	0.28
649.048	0.27
649.378	0.27
649.707	0.27
650.036	0.27
650.365	0.27
650.694	0.26
651.023	0.26
651.352	0.27
651.681	0.26
652.01	0.26
652.339	0.26
652.668	0.27
652.996	0.26
653.325	0.26
653.654	0.26
653.982	0.26
654.311	0.26
654.639	0.26
654.967	0.27
655.296	0.26
655.624	0.26
655.952	0.26
656.28	0.26
656.609	0.26
656.937	0.26
657.265	0.26
657.593	0.26
657.92	0.13
658.248	0.06
658.576	0.04
658.904	0.1
659.231	0.19
659.559	0.24
659.887	0.24
660.214	0.25
660.542	0.25
660.869	0.25
661.196	0.25
661.524	0.26
661.851	0.25
662.178	0.25
662.505	0.26
662.832	0.25
663.159	0.26
663.486	0.26
663.813	0.26
664.14	0.25
664.467	0.25
664.794	0.25
665.12	0.25
665.447	0.25
665.774	0.25
666.1	0.25
666.427	0.25
666.753	0.25
667.079	0.25
667.406	0.25
667.732	0.24
668.058	0.24
668.384	0.25
668.71	0.25
669.036	0.24
669.362	0.24
669.688	0.25
670.014	0.24
670.34	0.25
670.666	0.24
670.991	0.24
671.317	0.24
671.643	0.24
671.968	0.24
672.294	0.24
672.619	0.23
672.945	0.23
673.27	0.23
673.595	0.22
673.92	0.22
674.246	0.22
674.571	0.22
674.896	0.22
675.221	0.22
675.546	0.22
675.87	0.22
676.195	0.22
676.52	0.22
676.845	0.22
677.169	0.22
677.494	0.22
677.819	0.22
678.143	0.21
678.468	0.21
678.792	0.21
679.116	0.21
679.44	0.2
679.765	0.2
680.089	0.2
680.413	0.2
680.737	0.2
681.061	0.19
681.385	0.19
681.709	0.19
682.033	0.19
682.356	0.18
682.68	0.18
683.004	0.18
683.327	0.18
683.651	0.18
683.974	0.18
684.298	0.18
684.621	0.18
684.944	0.17
685.268	0.18
685.591	0.17
685.914	0.17
686.237	0.17
686.56	0.17
686.883	0.16
687.206	0.16
687.529	0.16
687.852	0.16
688.175	0.15
688.497	0.15
688.82	0.16
689.142	0.15
689.465	0.15
689.787	0.14
690.11	0.15
690.432	0.14
690.755	0.14
691.077	0.14
691.399	0.14
691.721	0.14
692.043	0.14
692.365	0.14
692.687	0.14
693.009	0.14
693.331	0.14
693.653	0.13
693.974	0.13
694.296	0.13
694.618	0.13
694.939	0.13
695.261	0.13
695.582	0.13
695.904	0.12
696.225	0.13
696.546	0.12
696.868	0.12
697.189	0.12
697.51	0.12
697.831	0.12
698.152	0.12
698.473	0.12
698.794	0.11
699.114	0.11
699.435	0.11
699.756	0.11
700.077	0.11
700.397	0.11
700.718	0.11
701.038	0.11
701.359	0.11
701.679	0.11
701.999	0.11
702.32	0.11
702.64	0.11
702.96	0.11
703.28	0.1
703.6	0.11
703.92	0.1
704.24	0.11
704.56	0.1
704.879	0.1
705.199	0.1
705.519	0.1
705.838	0.1
706.158	0.1
706.478	0.1
706.797	0.1
707.116	0.1
707.436	0.1
707.755	0.1
708.074	0.09
708.393	0.09
708.712	0.1
709.031	0.09
709.35	0.09
709.669	0.09
709.988	0.09
710.307	0.09
710.626	0.09
710.944	0.09
711.263	0.09
711.582	0.09
711.9	0.09
712.219	0.09
712.537	0.09
712.855	0.09
713.174	0.09
713.492	0.09
713.81	0.09
714.128	0.09
714.446	0.09
714.764	0.09
715.082	0.09
715.4	0.09
715.718	0.09
716.035	0.09
716.353	0.09
716.671	0.09
716.988	0.09
717.306	0.09
717.623	0.09
717.941	0.1
718.258	0.1
718.575	0.1
718.893	0.1
719.21	0.1
719.527	0.1
719.844	0.1
720.161	0.1
720.478	0.1
720.795	0.1
721.112	0.1
721.428	0.1
721.745	0.1
722.062	0.1
722.378	0.1
722.695	0.1
723.011	0.1
723.328	0.1
723.644	0.1
723.96	0.1
724.276	0.1
724.593	0.1
724.909	0.1
725.225	0.1
725.541	0.1
725.857	0.1
726.173	0.1
726.488	0.1
726.804	0.1
727.12	0.1
727.435	0.1
727.751	0.1
728.067	0.1
728.382	0.1
728.697	0.11
729.013	0.11
729.328	0.11
729.643	0.11
729.958	0.1
730.273	0.11
730.588	0.1
730.903	0.11
731.218	0.1
731.533	0.1
731.848	0.11
732.163	0.1
732.477	0.1
732.792	0.1
733.107	0.1
733.421	0.1
733.736	0.1
734.05	0.1
734.364	0.1
734.678	0.1
734.993	0.1
735.307	0.1
735.621	0.1
735.935	0.1
736.249	0.1
736.563	0.1
736.877	0.1
737.19	0.1
737.504	0.1
737.818	0.1
738.131	0.1
738.445	0.1
738.758	0.1
739.072	0.1
739.385	0.1
739.698	0.09
740.012	0.1
740.325	0.1
740.638	0.09
740.951	0.09
741.264	0.09
741.577	0.09
741.89	0.09
742.203	0.1
742.515	0.1
742.828	0.1
743.141	0.1
743.453	0.09
743.766	0.09
744.078	0.09
744.391	0.09
744.703	0.09
745.015	0.08
745.327	0.08
745.639	0.08
745.952	0.08
746.264	0.08
746.575	0.08
746.887	0.08
747.199	0.08
747.511	0.08
747.823	0.08
748.134	0.08
748.446	0.08
748.757	0.08
749.069	0.08
749.38	0.08
749.692	0.08
750.003	0.07
750.314	0.08
750.625	0.08
750.936	0.08
751.248	0.08
751.559	0.08
751.869	0.08
752.18	0.08
752.491	0.08
752.802	0.07
753.112	0.07
753.423	0.07
753.734	0.07
754.044	0.07
754.355	0.06
754.665	0.06
754.975	0.06
755.285	0.06
755.596	0.06
755.906	0.06
756.216	0.06
756.526	0.06
756.836	0.06
757.146	0.06
757.455	0.06
757.765	0.06
758.075	0.06
758.385	0.06
758.694	0.06
759.004	0.06
759.313	0.06
759.622	0.05
759.932	0.05
760.241	0.06
760.55	0.06
760.859	0.06
761.168	0.06
761.477	0.06
761.786	0.06
762.095	0.06
762.404	0.06
762.713	0.05
763.021	0.05
763.33	0.05
763.639	0.05
763.947	0.05
764.256	0.05
764.564	0.05
764.872	0.05
765.181	0.05
765.489	0.05
765.797	0.05
766.105	0.05
766.413	0.05
766.721	0.04
767.029	0.04
767.337	0.04
767.644	0.04
767.952	0.05
768.26	0.04
768.567	0.04
768.875	0.04
769.182	0.04
769.49	0.04
769.797	0.04
770.104	0.04
770.411	0.04
770.718	0.04
771.026	0.04
771.333	0.04
771.639	0.04
771.946	0.04
772.253	0.04
772.56	0.04
772.867	0.04
773.173	0.05
773.48	0.05
773.786	0.04
774.093	0.04
774.399	0.04
774.705	0.04
775.012	0.04
775.318	0.04
775.624	0.04
775.93	0.03
776.236	0.03
776.542	0.04
776.848	0.04
777.154	0.04
777.459	0.04
777.765	0.04
778.071	0.04
778.376	0.04
778.682	0.04
778.987	0.05
779.292	0.04
779.598	0.04
779.903	0.04
780.208	0.04
780.513	0.04
780.818	0.04
781.123	0.04
781.428	0.04
781.733	0.04
782.038	0.04
782.343	0.05
782.647	0.05
782.952	0.05
783.256	0.04
783.561	0.04
783.865	0.04
784.17	0.04
784.474	0.03
784.778	0.03
785.082	0.04
785.386	0.04
785.69	0.03
785.994	0.04
786.298	0.04
786.602	0.04
786.906	0.04
787.209	0.04
787.513	0.03
787.817	0.03
788.12	0.03
788.424	0.03
788.727	0.03
789.03	0.04
789.333	0.04
789.637	0.04
789.94	0.04
790.243	0.04
790.546	0.04
790.849	0.03
791.152	0.03
791.454	0.03
791.757	0.03
792.06	0.03
792.362	0.03
792.665	0.03
792.967	0.03
793.27	0.03
793.572	0.03
793.874	0.04
794.177	0.03
794.479	0.04
794.781	0.04
795.083	0.04
795.385	0.04
795.687	0.04
795.989	0.03
796.29	0.03
796.592	0.04
796.894	0.04
797.195	0.04
797.497	0.04
797.798	0.04
798.1	0.04
798.401	0.04
798.702	0.04
799.003	0.04
799.304	0.04
799.605	0.04
799.906	0.04
800.207	0.03
800.508	0.03
800.809	0.04
801.11	0.04
801.41	0.04
801.711	0.04
802.011	0.04
802.312	0.04
802.612	0.04
802.913	0.04
803.213	0.04
803.513	0.04
803.813	0.05
804.113	0.04
804.413	0.04
804.713	0.04
805.013	0.04
805.313	0.04
805.613	0.03
805.912	0.04
806.212	0.04
806.511	0.04
806.811	0.04
807.11	0.04
807.41	0.04
807.709	0.03
808.008	0.03
808.307	0.03
808.606	0.03
808.905	0.04
809.204	0.04
809.503	0.04
809.802	0.04
810.101	0.04
810.399	0.04
810.698	0.04
810.997	0.04
811.295	0.04
811.593	0.05
811.892	0.05
812.19	0.05
812.488	0.04
812.786	0.05
813.084	0.04
813.383	0.04
813.68	0.04
813.978	0.04
814.276	0.05
814.574	0.05
814.872	0.05
815.169	0.05
815.467	0.04
815.764	0.05
816.062	0.05
816.359	0.04
816.656	0.04
816.954	0.04
817.251	0.04
817.548	0.04
817.845	0.05
818.142	0.04
818.439	0.03
818.735	0.03
819.032	0.04
819.329	0.04
819.626	0.04
819.922	0.04
820.219	0.04
820.515	0.04
820.811	0.05
821.108	0.04
821.404	0.04
821.7	0.04
821.996	0.04
822.292	0.04
822.588	0.05
822.884	0.05
823.18	0.05
823.475	0.04
823.771	0.04
824.067	0.04
824.362	0.03
824.658	0.04
824.953	0.04
825.249	0.04
825.544	0.04
825.839	0.04
826.134	0.04
826.429	0.04
826.724	0.05
827.019	0.05
827.314	0.05
827.609	0.05
827.904	0.04
828.198	0.05
828.493	0.04
828.787	0.04
829.082	0.04
829.376	0.04
829.671	0.04
829.965	0.05
830.259	0.05
830.553	0.05
830.847	0.05
831.141	0.05
831.435	0.05
831.729	0.05
832.023	0.05
832.317	0.06
832.61	0.06
832.904	0.05
833.197	0.06
833.491	0.06
833.784	0.06
834.077	0.06
834.371	0.05
834.664	0.06
834.957	0.06
835.25	0.06
835.543	0.06
835.836	0.06
836.129	0.05
836.421	0.05
836.714	0.06
837.007	0.06
837.299	0.05
837.592	0.05
837.884	0.06
838.177	0.05
838.469	0.04
838.761	0.05
839.053	0.05
839.345	0.05
839.637	0.04
839.929	0.05
840.221	0.05
840.513	0.06
840.805	0.05
841.096	0.06
841.388	0.05
841.68	0.05
841.971	0.05
842.262	0.04
842.554	0.04
842.845	0.05
843.136	0.04
843.427	0.05
843.718	0.05
844.009	0.05
844.3	0.04
844.591	0.05
844.882	0.06
845.173	0.05
845.463	0.05
845.754	0.07
846.044	0.06
846.335	0.06
846.625	0.06
846.915	0.05
847.206	0.05
847.496	0.06
847.786	0.06
848.076	0.05
848.366	0.05
848.656	0.05
848.945	0.05
849.235	0.06
849.525	0.04
849.814	0.05
850.104	0.05
850.393	0.04
850.683	0.04
850.972	0.05
851.261	0.04
851.551	0.06
851.84	0.06
852.129	0.05
852.418	0.04
852.707	0.05
852.995	0.05
853.284	0.05
853.573	0.05
853.862	0.06
854.15	0.06
854.439	0.05
854.727	0.06
855.015	0.07
855.304	0.05
855.592	0.05
855.88	0.05
856.168	0.04
856.456	0.04
856.744	0.05
857.032	0.06
857.32	0.04
857.607	0.05
857.895	0.04
858.183	0.05
858.47	0.06
858.757	0.06
859.045	0.04
859.332	0.07
859.619	0.04
859.907	0.06
860.194	0.05
860.481	0.06
860.768	0.04
861.054	0.05
861.341	0.07
861.628	0.07
861.915	0.04
862.201	0.05
862.488	0.06
862.774	0.06
863.061	0.04
863.347	0.03
863.633	0.07
863.919	0.06
864.205	0.05
864.491	0.06
864.777	0.05
865.063	0.06
865.349	0.06
865.635	0.03
865.92	0.04
866.206	0.05
866.492	0.06
866.777	0.06
867.062	0.06
867.348	0.06
867.633	0.05
867.918	0.07
868.203	0.07
868.488	0.04
868.773	0.03
869.058	0.03
869.343	0.03
869.628	0.06
869.912	0.03
870.197	0.05
870.482	0.02
870.766	0.03
871.05	0.06
871.335	0.02
871.619	0.05
871.903	0.01
872.187	0.05
872.471	-0
872.755	0.06
873.039	0.05
873.323	0.09
873.607	0.04
873.89	0.02
874.174	0.06
874.458	0.08
874.741	0.04
875.024	0.03
875.308	0.05
875.591	-0.02
875.874	0.01
876.157	0.05
876.44	0.07
876.723	0.09
877.006	0.08
877.289	0.03
877.572	0.06
877.854	-0.01
878.137	0.02
878.42	-0.02
878.702	-0.01
878.984	0.06
879.267	0.03
879.549	0.1
879.831	0.09
880.113	0.01
880.395	0.01
880.677	0.08
880.959	0.03
