Data from Rubpy_EV_600_EDTA_Buffered_Absorbance_13-16-42-086.txt Node
Date: Tue Jun 30 13:16:42 BST 2026
User: fpm-admin
Spectrometer: OFX00224
Trigger mode: 0
Integration Time (sec): 7.000000E-2
Scans to average: 3
Nonlinearity correction enabled: false
Boxcar width: 0
Storing dark spectrum: false
XAxis mode: Wavelengths
Number of Pixels in Spectrum: 2136
>>>>>Begin Spectral Data<<<<<
154.91	-0.43
155.289	0.22
155.669	0.72
156.048	-0.11
156.428	-0
156.807	-0.15
157.186	0.28
157.566	-0
157.945	0.49
158.325	0.6
158.704	-0
159.083	-0.06
159.462	-0
159.842	-0.5
160.221	-0
160.6	-0.05
160.979	0.12
161.359	-0
161.738	0.18
162.117	-0
162.496	0.33
162.875	-0.14
163.254	-0.06
163.633	-1.26
164.012	0.3
164.391	0.12
164.77	-0
165.149	-0.1
165.528	0.4
165.907	-0
166.286	0.65
166.665	1.34
167.044	-0
167.423	0.24
167.802	0.16
168.181	-0
168.559	0.3
168.938	0.26
169.317	0.35
169.696	0.52
170.074	-0
170.453	0.12
170.832	0.25
171.21	-0
171.589	0.29
171.968	-0.18
172.346	0.44
172.725	0.38
173.103	-0
173.482	1.18
173.861	0.4
174.239	-0.31
174.617	-0
174.996	0.35
175.374	-0
175.753	-0.85
176.131	-0
176.51	-0
176.888	1.19
177.266	-0
177.645	-0.01
178.023	-0
178.401	-0.17
178.779	0.02
179.158	0.1
179.536	-0
179.914	-0.02
180.292	-0
180.67	-0
181.048	-0
181.427	-1.32
181.805	-0
182.183	-0.48
182.561	-0
182.939	-0
183.317	-0
183.695	-0.06
184.073	-0.15
184.451	-0
184.829	-1.29
185.206	-0.21
185.584	0.53
185.962	-0.97
186.34	0.18
186.718	0.74
187.096	0.08
187.473	0.37
187.851	-0.29
188.229	-0
188.607	0.15
188.984	0.15
189.362	0.19
189.74	0.11
190.117	0.2
190.495	0.18
190.872	0.13
191.25	0.19
191.627	0.1
192.005	0.22
192.382	0.25
192.76	0.16
193.137	0.28
193.515	0.27
193.892	0.21
194.269	0.04
194.647	0.13
195.024	0.05
195.401	0.23
195.779	0.23
196.156	0.05
196.533	0.24
196.91	0.22
197.288	0.16
197.665	0.2
198.042	0.03
198.419	0.22
198.796	0.25
199.173	0.15
199.55	0.13
199.927	0.1
200.304	0.13
200.681	0.17
201.058	0.08
201.435	0.07
201.812	0.18
202.189	0.19
202.566	0.34
202.943	0.07
203.32	0.29
203.697	0.21
204.073	0.1
204.45	0.13
204.827	0.23
205.204	0.22
205.58	0.16
205.957	0.09
206.334	0.25
206.71	0.13
207.087	0.21
207.464	0.08
207.84	0.14
208.217	0.18
208.593	0.35
208.97	0.2
209.346	0.17
209.723	0.28
210.099	0.2
210.476	0.21
210.852	0.25
211.228	0.22
211.605	0.13
211.981	0.2
212.357	0.16
212.733	0.21
213.11	0.25
213.486	0.2
213.862	0.14
214.238	0.23
214.614	0.17
214.991	0.06
215.367	0.34
215.743	0.16
216.119	0.19
216.495	0.08
216.871	0.18
217.247	0.36
217.623	0.16
217.999	0.22
218.375	0.18
218.751	0.36
219.127	0.21
219.502	0.15
219.878	0.25
220.254	0.24
220.63	0.18
221.006	0.15
221.381	0.14
221.757	0.15
222.133	0.18
222.508	0.34
222.884	0.18
223.26	0.18
223.635	0.12
224.011	0.15
224.386	0.26
224.762	0.15
225.137	0.17
225.513	0.14
225.888	0.25
226.264	0.21
226.639	0.25
227.014	0.19
227.39	0.18
227.765	0.2
228.14	0.18
228.516	0.21
228.891	0.23
229.266	0.19
229.641	0.21
230.017	0.28
230.392	0.17
230.767	0.17
231.142	0.18
231.517	0.22
231.892	0.23
232.267	0.16
232.642	0.2
233.017	0.14
233.392	0.25
233.767	0.17
234.142	0.17
234.517	0.18
234.892	0.16
235.267	0.09
235.641	0.21
236.016	0.18
236.391	0.18
236.766	0.23
237.14	0.17
237.515	0.17
237.89	0.28
238.264	0.09
238.639	0.16
239.014	0.18
239.388	0.14
239.763	0.14
240.137	0.2
240.512	0.2
240.886	0.19
241.261	0.18
241.635	0.14
242.009	0.21
242.384	0.11
242.758	0.15
243.132	0.23
243.507	0.29
243.881	0.15
244.255	0.22
244.629	0.2
245.004	0.3
245.378	0.13
245.752	0.24
246.126	0.19
246.5	0.13
246.874	0.25
247.248	0.16
247.622	0.19
247.996	0.24
248.37	0.36
248.744	0.11
249.118	0.16
249.492	0.22
249.866	0.16
250.24	0.12
250.613	0.11
250.987	0.21
251.361	0.24
251.735	0.13
252.108	0.14
252.482	0.13
252.856	0.02
253.229	0.21
253.603	0.17
253.977	0.13
254.35	0.18
254.724	0.12
255.097	0.27
255.471	0.19
255.844	0.07
256.218	0.18
256.591	0.15
256.964	0.15
257.338	0.19
257.711	0.24
258.084	0.17
258.458	0.19
258.831	0.2
259.204	0.19
259.577	0.16
259.95	0.18
260.323	0.11
260.697	0.26
261.07	0.23
261.443	0.2
261.816	0.16
262.189	0.21
262.562	0.16
262.935	0.16
263.308	0.16
263.68	0.11
264.053	0.17
264.426	0.15
264.799	0.14
265.172	0.2
265.545	0.2
265.917	0.19
266.29	0.18
266.663	0.15
267.035	0.2
267.408	0.15
267.781	0.19
268.153	0.22
268.526	0.2
268.898	0.19
269.271	0.22
269.643	0.21
270.016	0.21
270.388	0.22
270.76	0.21
271.133	0.19
271.505	0.25
271.877	0.2
272.25	0.2
272.622	0.23
272.994	0.17
273.366	0.27
273.739	0.25
274.111	0.13
274.483	0.16
274.855	0.19
275.227	0.24
275.599	0.23
275.971	0.27
276.343	0.18
276.715	0.21
277.087	0.19
277.459	0.22
277.831	0.16
278.203	0.25
278.574	0.24
278.946	0.18
279.318	0.36
279.69	0.24
280.061	0.19
280.433	0.25
280.805	0.2
281.176	0.14
281.548	0.13
281.92	0.2
282.291	0.16
282.663	0.23
283.034	0.24
283.406	0.19
283.777	0.18
284.148	0.22
284.52	0.14
284.891	0.21
285.262	0.2
285.634	0.26
286.005	0.18
286.376	0.18
286.747	0.22
287.119	0.15
287.49	0.22
287.861	0.2
288.232	0.24
288.603	0.19
288.974	0.18
289.345	0.22
289.716	0.15
290.087	0.17
290.458	0.19
290.829	0.22
291.2	0.1
291.571	0.18
291.941	0.2
292.312	0.18
292.683	0.18
293.054	0.19
293.424	0.2
293.795	0.18
294.166	0.13
294.536	0.21
294.907	0.16
295.277	0.15
295.648	0.13
296.018	0.2
296.389	0.18
296.759	0.21
297.13	0.14
297.5	0.18
297.871	0.16
298.241	0.13
298.611	0.15
298.981	0.23
299.352	0.16
299.722	0.15
300.092	0.16
300.462	0.15
300.832	0.15
301.202	0.13
301.573	0.13
301.943	0.13
302.313	0.14
302.683	0.11
303.053	0.12
303.422	0.12
303.792	0.13
304.162	0.13
304.532	0.12
304.902	0.14
305.272	0.13
305.641	0.14
306.011	0.14
306.381	0.14
306.75	0.14
307.12	0.14
307.49	0.14
307.859	0.14
308.229	0.15
308.598	0.14
308.968	0.14
309.337	0.15
309.707	0.15
310.076	0.15
310.445	0.15
310.815	0.16
311.184	0.16
311.553	0.16
311.923	0.16
312.292	0.16
312.661	0.16
313.03	0.16
313.399	0.17
313.768	0.17
314.137	0.16
314.506	0.16
314.875	0.17
315.244	0.16
315.613	0.16
315.982	0.16
316.351	0.16
316.72	0.16
317.089	0.16
317.458	0.16
317.826	0.16
318.195	0.15
318.564	0.16
318.933	0.15
319.301	0.15
319.67	0.15
320.038	0.14
320.407	0.15
320.775	0.14
321.144	0.15
321.512	0.14
321.881	0.14
322.249	0.14
322.618	0.14
322.986	0.14
323.354	0.14
323.723	0.14
324.091	0.13
324.459	0.13
324.827	0.14
325.195	0.14
325.564	0.13
325.932	0.14
326.3	0.13
326.668	0.13
327.036	0.13
327.404	0.13
327.772	0.13
328.14	0.13
328.508	0.13
328.875	0.13
329.243	0.12
329.611	0.13
329.979	0.13
330.346	0.13
330.714	0.13
331.082	0.13
331.449	0.13
331.817	0.13
332.185	0.13
332.552	0.13
332.92	0.13
333.287	0.15
333.655	0.14
334.022	0.14
334.389	0.14
334.757	0.14
335.124	0.14
335.491	0.15
335.859	0.15
336.226	0.15
336.593	0.15
336.96	0.16
337.327	0.15
337.695	0.16
338.062	0.16
338.429	0.16
338.796	0.17
339.163	0.17
339.53	0.17
339.897	0.17
340.263	0.17
340.63	0.18
340.997	0.18
341.364	0.18
341.731	0.18
342.097	0.19
342.464	0.19
342.831	0.19
343.197	0.2
343.564	0.2
343.931	0.2
344.297	0.2
344.664	0.21
345.03	0.21
345.396	0.22
345.763	0.22
346.129	0.22
346.496	0.23
346.862	0.23
347.228	0.23
347.594	0.23
347.961	0.24
348.327	0.24
348.693	0.25
349.059	0.25
349.425	0.25
349.791	0.26
350.157	0.26
350.523	0.26
350.889	0.27
351.255	0.28
351.621	0.28
351.987	0.28
352.353	0.29
352.719	0.3
353.084	0.31
353.45	0.31
353.816	0.31
354.181	0.32
354.547	0.33
354.913	0.34
355.278	0.34
355.644	0.35
356.009	0.36
356.375	0.36
356.74	0.38
357.106	0.38
357.471	0.39
357.836	0.41
358.202	0.4
358.567	0.42
358.932	0.42
359.297	0.43
359.663	0.44
360.028	0.44
360.393	0.45
360.758	0.45
361.123	0.46
361.488	0.46
361.853	0.47
362.218	0.47
362.583	0.48
362.948	0.49
363.312	0.5
363.677	0.49
364.042	0.51
364.407	0.52
364.772	0.52
365.136	0.53
365.501	0.55
365.865	0.56
366.23	0.57
366.595	0.58
366.959	0.6
367.324	0.6
367.688	0.61
368.052	0.63
368.417	0.64
368.781	0.65
369.145	0.66
369.51	0.66
369.874	0.66
370.238	0.67
370.602	0.66
370.967	0.67
371.331	0.67
371.695	0.66
372.059	0.65
372.423	0.66
372.787	0.66
373.151	0.64
373.515	0.65
373.878	0.64
374.242	0.65
374.606	0.65
374.97	0.64
375.334	0.65
375.697	0.64
376.061	0.65
376.425	0.66
376.788	0.66
377.152	0.67
377.515	0.67
377.879	0.68
378.242	0.68
378.606	0.69
378.969	0.7
379.333	0.71
379.696	0.72
380.059	0.73
380.422	0.75
380.786	0.76
381.149	0.78
381.512	0.79
381.875	0.79
382.238	0.82
382.601	0.84
382.964	0.87
383.327	0.88
383.69	0.91
384.053	0.93
384.416	0.96
384.779	0.97
385.142	1
385.504	1
385.867	1.03
386.23	1.04
386.593	1.05
386.955	1.04
387.318	1.05
387.68	1.05
388.043	1.05
388.405	1.05
388.768	1.04
389.13	1.02
389.493	1.02
389.855	1.02
390.217	1
390.58	1
390.942	1
391.304	1.01
391.666	1.02
392.028	1.04
392.391	1.06
392.753	1.08
393.115	1.12
393.477	1.16
393.839	1.2
394.201	1.24
394.563	1.3
394.924	1.33
395.286	1.4
395.648	1.42
396.01	1.47
396.371	1.49
396.733	1.52
397.095	1.57
397.456	1.57
397.818	1.56
398.18	1.54
398.541	1.55
398.903	1.51
399.264	1.49
399.625	1.42
399.987	1.39
400.348	1.32
400.709	1.27
401.071	1.22
401.432	1.13
401.793	1.07
402.154	1.01
402.515	0.94
402.876	0.87
403.238	0.82
403.599	0.76
403.96	0.7
404.32	0.66
404.681	0.61
405.042	0.56
405.403	0.53
405.764	0.49
406.125	0.45
406.485	0.43
406.846	0.39
407.207	0.37
407.567	0.35
407.928	0.33
408.288	0.31
408.649	0.29
409.009	0.28
409.37	0.27
409.73	0.25
410.091	0.24
410.451	0.23
410.811	0.22
411.171	0.21
411.532	0.19
411.892	0.19
412.252	0.18
412.612	0.18
412.972	0.17
413.332	0.17
413.692	0.16
414.052	0.15
414.412	0.15
414.772	0.14
415.132	0.14
415.492	0.14
415.851	0.13
416.211	0.13
416.571	0.12
416.931	0.12
417.29	0.13
417.65	0.11
418.009	0.11
418.369	0.11
418.728	0.11
419.088	0.1
419.447	0.1
419.807	0.1
420.166	0.1
420.525	0.1
420.884	0.1
421.244	0.1
421.603	0.09
421.962	0.09
422.321	0.09
422.68	0.09
423.039	0.09
423.398	0.09
423.757	0.09
424.116	0.09
424.475	0.08
424.834	0.08
425.193	0.08
425.551	0.08
425.91	0.08
426.269	0.08
426.628	0.07
426.986	0.08
427.345	0.07
427.703	0.07
428.062	0.07
428.42	0.07
428.779	0.08
429.137	0.07
429.496	0.07
429.854	0.07
430.212	0.07
430.57	0.06
430.929	0.07
431.287	0.08
431.645	0.07
432.003	0.07
432.361	0.06
432.719	0.07
433.077	0.06
433.435	0.06
433.793	0.06
434.151	0.06
434.509	0.07
434.866	0.07
435.224	0.06
435.582	0.05
435.94	0.06
436.297	0.06
436.655	0.06
437.012	0.05
437.37	0.07
437.727	0.06
438.085	0.05
438.442	0.06
438.8	0.05
439.157	0.06
439.514	0.06
439.872	0.06
440.229	0.05
440.586	0.05
440.943	0.05
441.3	0.06
441.657	0.05
442.014	0.05
442.371	0.05
442.728	0.04
443.085	0.05
443.442	0.06
443.799	0.04
444.156	0.05
444.513	0.05
444.869	0.06
445.226	0.05
445.583	0.05
445.939	0.05
446.296	0.05
446.652	0.05
447.009	0.05
447.365	0.05
447.722	0.05
448.078	0.04
448.434	0.04
448.791	0.05
449.147	0.05
449.503	0.04
449.859	0.04
450.215	0.04
450.571	0.04
450.928	0.04
451.284	0.04
451.64	0.04
451.995	0.03
452.351	0.03
452.707	0.04
453.063	0.03
453.419	0.04
453.775	0.03
454.13	0.04
454.486	0.05
454.842	0.03
455.197	0.04
455.553	0.04
455.908	0.02
456.264	0.03
456.619	0.04
456.975	0.03
457.33	0.03
457.685	0.03
458.04	0.03
458.396	0.03
458.751	0.03
459.106	0.02
459.461	0.03
459.816	0.03
460.171	0.03
460.526	0.02
460.881	0.03
461.236	0.02
461.591	0.02
461.946	0.02
462.301	0.02
462.655	0.02
463.01	0.02
463.365	0.02
463.719	0.01
464.074	0.02
464.428	0.01
464.783	0.02
465.137	0.01
465.492	0.01
465.846	0
466.201	0.02
466.555	0.01
466.909	0.01
467.263	0.02
467.618	0.02
467.972	0.02
468.326	0.01
468.68	0.02
469.034	0.01
469.388	0.01
469.742	0.01
470.096	0.02
470.45	0.01
470.804	0.01
471.157	0.01
471.511	0.01
471.865	0.02
472.218	0.02
472.572	0.01
472.926	0.01
473.279	0.02
473.633	0.02
473.986	0.02
474.34	0.02
474.693	0.03
475.046	0.03
475.4	0.02
475.753	0.03
476.106	0.03
476.459	0.03
476.812	0.04
477.165	0.04
477.519	0.03
477.872	0.03
478.224	0.04
478.577	0.05
478.93	0.04
479.283	0.05
479.636	0.05
479.989	0.05
480.341	0.05
480.694	0.05
481.047	0.05
481.399	0.05
481.752	0.05
482.104	0.05
482.457	0.05
482.809	0.05
483.162	0.06
483.514	0.06
483.866	0.05
484.219	0.06
484.571	0.06
484.923	0.06
485.275	0.06
485.627	0.06
485.979	0.06
486.331	0.07
486.683	0.07
487.035	0.07
487.387	0.08
487.739	0.07
488.091	0.07
488.443	0.07
488.794	0.07
489.146	0.08
489.498	0.07
489.849	0.08
490.201	0.07
490.552	0.08
490.904	0.08
491.255	0.08
491.607	0.08
491.958	0.08
492.309	0.08
492.661	0.08
493.012	0.08
493.363	0.09
493.714	0.09
494.065	0.09
494.416	0.09
494.767	0.09
495.118	0.09
495.469	0.09
495.82	0.1
496.171	0.1
496.522	0.1
496.872	0.09
497.223	0.1
497.574	0.1
497.924	0.1
498.275	0.1
498.626	0.11
498.976	0.1
499.327	0.1
499.677	0.11
500.027	0.11
500.378	0.11
500.728	0.11
501.078	0.11
501.428	0.11
501.779	0.11
502.129	0.12
502.479	0.12
502.829	0.12
503.179	0.12
503.529	0.11
503.879	0.12
504.229	0.12
504.578	0.12
504.928	0.13
505.278	0.13
505.628	0.13
505.977	0.13
506.327	0.13
506.676	0.14
507.026	0.13
507.375	0.14
507.725	0.14
508.074	0.14
508.424	0.14
508.773	0.14
509.122	0.14
509.471	0.15
509.82	0.15
510.17	0.15
510.519	0.15
510.868	0.15
511.217	0.15
511.566	0.15
511.915	0.15
512.263	0.16
512.612	0.15
512.961	0.15
513.31	0.16
513.659	0.16
514.007	0.16
514.356	0.17
514.704	0.17
515.053	0.17
515.401	0.17
515.75	0.17
516.098	0.17
516.447	0.17
516.795	0.17
517.143	0.17
517.491	0.18
517.839	0.18
518.188	0.18
518.536	0.18
518.884	0.18
519.232	0.19
519.58	0.18
519.928	0.19
520.275	0.19
520.623	0.19
520.971	0.19
521.319	0.2
521.666	0.2
522.014	0.19
522.362	0.2
522.709	0.2
523.057	0.2
523.404	0.2
523.752	0.2
524.099	0.2
524.446	0.21
524.794	0.21
525.141	0.21
525.488	0.21
525.835	0.21
526.182	0.21
526.529	0.21
526.876	0.22
527.223	0.22
527.57	0.22
527.917	0.22
528.264	0.22
528.611	0.23
528.958	0.23
529.304	0.23
529.651	0.23
529.998	0.24
530.344	0.23
530.691	0.24
531.037	0.24
531.384	0.24
531.73	0.24
532.076	0.24
532.423	0.24
532.769	0.24
533.115	0.25
533.461	0.25
533.807	0.25
534.154	0.25
534.5	0.25
534.846	0.26
535.192	0.26
535.537	0.26
535.883	0.27
536.229	0.26
536.575	0.27
536.921	0.27
537.266	0.27
537.612	0.27
537.957	0.27
538.303	0.28
538.649	0.28
538.994	0.28
539.339	0.29
539.685	0.29
540.03	0.28
540.375	0.29
540.721	0.29
541.066	0.29
541.411	0.3
541.756	0.3
542.101	0.3
542.446	0.3
542.791	0.3
543.136	0.31
543.481	0.31
543.825	0.31
544.17	0.31
544.515	0.31
544.86	0.31
545.204	0.32
545.549	0.32
545.893	0.32
546.238	0.32
546.582	0.32
546.927	0.33
547.271	0.33
547.615	0.33
547.96	0.34
548.304	0.34
548.648	0.34
548.992	0.34
549.336	0.34
549.68	0.35
550.024	0.35
550.368	0.35
550.712	0.35
551.056	0.35
551.4	0.36
551.743	0.36
552.087	0.35
552.431	0.36
552.774	0.36
553.118	0.37
553.462	0.37
553.805	0.37
554.148	0.37
554.492	0.38
554.835	0.37
555.178	0.37
555.522	0.38
555.865	0.37
556.208	0.38
556.551	0.38
556.894	0.38
557.237	0.38
557.58	0.38
557.923	0.38
558.266	0.38
558.609	0.38
558.952	0.39
559.294	0.39
559.637	0.39
559.98	0.39
560.322	0.39
560.665	0.39
561.007	0.39
561.35	0.39
561.692	0.4
562.034	0.4
562.377	0.4
562.719	0.4
563.061	0.39
563.403	0.4
563.745	0.4
564.088	0.4
564.43	0.4
564.772	0.4
565.113	0.41
565.455	0.4
565.797	0.41
566.139	0.4
566.481	0.41
566.822	0.41
567.164	0.4
567.506	0.4
567.847	0.41
568.189	0.41
568.53	0.41
568.872	0.41
569.213	0.41
569.554	0.42
569.895	0.41
570.237	0.41
570.578	0.41
570.919	0.41
571.26	0.41
571.601	0.41
571.942	0.42
572.283	0.41
572.624	0.42
572.965	0.41
573.306	0.42
573.646	0.42
573.987	0.41
574.328	0.41
574.668	0.41
575.009	0.42
575.349	0.42
575.69	0.41
576.03	0.41
576.37	0.41
576.711	0.41
577.051	0.41
577.391	0.41
577.731	0.41
578.072	0.41
578.412	0.41
578.752	0.42
579.092	0.42
579.431	0.41
579.771	0.41
580.111	0.4
580.451	0.4
580.791	0.41
581.13	0.41
581.47	0.42
581.81	0.42
582.149	0.42
582.489	0.42
582.828	0.42
583.167	0.42
583.507	0.4
583.846	0.37
584.185	0.39
584.525	0.4
584.864	0.41
585.203	0.43
585.542	0.43
585.881	0.43
586.22	0.44
586.559	0.44
586.898	0.43
587.236	0.43
587.575	0.43
587.914	0.43
588.252	0.43
588.591	0.44
588.93	0.44
589.268	0.44
589.607	0.45
589.945	0.45
590.283	0.45
590.622	0.45
590.96	0.45
591.298	0.46
591.636	0.46
591.974	0.46
592.313	0.47
592.651	0.47
592.989	0.47
593.326	0.47
593.664	0.47
594.002	0.47
594.34	0.48
594.678	0.48
595.015	0.48
595.353	0.47
595.691	0.47
596.028	0.48
596.366	0.48
596.703	0.49
597.04	0.49
597.378	0.49
597.715	0.49
598.052	0.5
598.389	0.5
598.726	0.51
599.064	0.51
599.401	0.51
599.738	0.51
600.074	0.51
600.411	0.51
600.748	0.51
601.085	0.51
601.422	0.51
601.758	0.5
602.095	0.5
602.432	0.5
602.768	0.5
603.105	0.51
603.441	0.51
603.777	0.51
604.114	0.51
604.45	0.51
604.786	0.51
605.122	0.52
605.459	0.51
605.795	0.51
606.131	0.51
606.467	0.51
606.803	0.51
607.139	0.51
607.474	0.51
607.81	0.51
608.146	0.51
608.482	0.51
608.817	0.5
609.153	0.51
609.488	0.5
609.824	0.5
610.159	0.5
610.495	0.5
610.83	0.5
611.165	0.5
611.5	0.5
611.836	0.5
612.171	0.49
612.506	0.5
612.841	0.5
613.176	0.49
613.511	0.5
613.845	0.5
614.18	0.49
614.515	0.49
614.85	0.49
615.184	0.49
615.519	0.49
615.854	0.49
616.188	0.49
616.523	0.48
616.857	0.48
617.191	0.48
617.526	0.47
617.86	0.47
618.194	0.47
618.528	0.47
618.862	0.47
619.196	0.47
619.53	0.47
619.864	0.47
620.198	0.47
620.532	0.47
620.866	0.47
621.2	0.47
621.533	0.47
621.867	0.47
622.201	0.46
622.534	0.46
622.868	0.46
623.201	0.46
623.534	0.45
623.868	0.45
624.201	0.45
624.534	0.45
624.868	0.45
625.201	0.45
625.534	0.45
625.867	0.45
626.2	0.44
626.533	0.44
626.865	0.44
627.198	0.44
627.531	0.44
627.864	0.43
628.196	0.43
628.529	0.43
628.862	0.43
629.194	0.43
629.527	0.43
629.859	0.42
630.191	0.41
630.524	0.42
630.856	0.42
631.188	0.41
631.52	0.41
631.852	0.41
632.184	0.4
632.516	0.4
632.848	0.4
633.18	0.4
633.512	0.4
633.844	0.39
634.175	0.39
634.507	0.38
634.839	0.38
635.17	0.38
635.502	0.37
635.833	0.37
636.165	0.37
636.496	0.37
636.827	0.37
637.159	0.37
637.49	0.37
637.821	0.36
638.152	0.36
638.483	0.36
638.814	0.35
639.145	0.35
639.476	0.34
639.807	0.35
640.137	0.34
640.468	0.34
640.799	0.33
641.129	0.34
641.46	0.34
641.791	0.34
642.121	0.33
642.451	0.33
642.782	0.32
643.112	0.32
643.442	0.32
643.773	0.32
644.103	0.31
644.433	0.31
644.763	0.31
645.093	0.3
645.423	0.3
645.753	0.3
646.082	0.3
646.412	0.3
646.742	0.3
647.072	0.3
647.401	0.3
647.731	0.3
648.06	0.3
648.39	0.3
648.719	0.3
649.048	0.3
649.378	0.29
649.707	0.29
650.036	0.29
650.365	0.29
650.694	0.29
651.023	0.28
651.352	0.29
651.681	0.29
652.01	0.29
652.339	0.28
652.668	0.29
652.996	0.28
653.325	0.28
653.654	0.28
653.982	0.28
654.311	0.28
654.639	0.28
654.967	0.29
655.296	0.28
655.624	0.28
655.952	0.28
656.28	0.28
656.609	0.28
656.937	0.28
657.265	0.29
657.593	0.28
657.92	0.15
658.248	0.08
658.576	0.06
658.904	0.12
659.231	0.21
659.559	0.26
659.887	0.26
660.214	0.27
660.542	0.27
660.869	0.28
661.196	0.28
661.524	0.28
661.851	0.27
662.178	0.27
662.505	0.28
662.832	0.28
663.159	0.28
663.486	0.27
663.813	0.28
664.14	0.28
664.467	0.27
664.794	0.27
665.12	0.27
665.447	0.27
665.774	0.27
666.1	0.27
666.427	0.27
666.753	0.27
667.079	0.27
667.406	0.26
667.732	0.26
668.058	0.26
668.384	0.26
668.71	0.26
669.036	0.26
669.362	0.26
669.688	0.26
670.014	0.27
670.34	0.27
670.666	0.26
670.991	0.26
671.317	0.26
671.643	0.26
671.968	0.26
672.294	0.25
672.619	0.25
672.945	0.25
673.27	0.25
673.595	0.24
673.92	0.24
674.246	0.24
674.571	0.24
674.896	0.24
675.221	0.24
675.546	0.24
675.87	0.24
676.195	0.24
676.52	0.24
676.845	0.24
677.169	0.23
677.494	0.23
677.819	0.23
678.143	0.23
678.468	0.23
678.792	0.22
679.116	0.22
679.44	0.22
679.765	0.22
680.089	0.22
680.413	0.21
680.737	0.21
681.061	0.21
681.385	0.21
681.709	0.2
682.033	0.2
682.356	0.2
682.68	0.2
683.004	0.2
683.327	0.2
683.651	0.19
683.974	0.19
684.298	0.19
684.621	0.19
684.944	0.19
685.268	0.19
685.591	0.18
685.914	0.18
686.237	0.18
686.56	0.18
686.883	0.18
687.206	0.18
687.529	0.17
687.852	0.17
688.175	0.17
688.497	0.17
688.82	0.17
689.142	0.16
689.465	0.16
689.787	0.16
690.11	0.16
690.432	0.15
690.755	0.15
691.077	0.15
691.399	0.15
691.721	0.15
692.043	0.15
692.365	0.15
692.687	0.15
693.009	0.15
693.331	0.15
693.653	0.14
693.974	0.14
694.296	0.14
694.618	0.14
694.939	0.14
695.261	0.14
695.582	0.13
695.904	0.13
696.225	0.13
696.546	0.13
696.868	0.13
697.189	0.13
697.51	0.13
697.831	0.13
698.152	0.13
698.473	0.13
698.794	0.12
699.114	0.12
699.435	0.12
699.756	0.12
700.077	0.12
700.397	0.12
700.718	0.12
701.038	0.12
701.359	0.12
701.679	0.12
701.999	0.12
702.32	0.12
702.64	0.12
702.96	0.11
703.28	0.11
703.6	0.11
703.92	0.11
704.24	0.11
704.56	0.11
704.879	0.11
705.199	0.11
705.519	0.11
705.838	0.1
706.158	0.1
706.478	0.11
706.797	0.11
707.116	0.11
707.436	0.1
707.755	0.1
708.074	0.1
708.393	0.1
708.712	0.1
709.031	0.1
709.35	0.1
709.669	0.09
709.988	0.1
710.307	0.09
710.626	0.1
710.944	0.1
711.263	0.1
711.582	0.1
711.9	0.1
712.219	0.1
712.537	0.1
712.855	0.1
713.174	0.1
713.492	0.1
713.81	0.1
714.128	0.1
714.446	0.1
714.764	0.1
715.082	0.1
715.4	0.1
715.718	0.1
716.035	0.1
716.353	0.1
716.671	0.1
716.988	0.1
717.306	0.1
717.623	0.1
717.941	0.1
718.258	0.1
718.575	0.1
718.893	0.11
719.21	0.1
719.527	0.11
719.844	0.11
720.161	0.11
720.478	0.11
720.795	0.11
721.112	0.11
721.428	0.11
721.745	0.11
722.062	0.11
722.378	0.11
722.695	0.11
723.011	0.11
723.328	0.11
723.644	0.11
723.96	0.11
724.276	0.11
724.593	0.11
724.909	0.11
725.225	0.11
725.541	0.11
725.857	0.11
726.173	0.11
726.488	0.11
726.804	0.11
727.12	0.11
727.435	0.11
727.751	0.11
728.067	0.11
728.382	0.11
728.697	0.11
729.013	0.11
729.328	0.11
729.643	0.11
729.958	0.11
730.273	0.11
730.588	0.11
730.903	0.11
731.218	0.11
731.533	0.11
731.848	0.11
732.163	0.11
732.477	0.11
732.792	0.11
733.107	0.1
733.421	0.1
733.736	0.1
734.05	0.11
734.364	0.11
734.678	0.11
734.993	0.11
735.307	0.11
735.621	0.11
735.935	0.11
736.249	0.11
736.563	0.11
736.877	0.11
737.19	0.11
737.504	0.11
737.818	0.11
738.131	0.11
738.445	0.11
738.758	0.11
739.072	0.11
739.385	0.1
739.698	0.1
740.012	0.1
740.325	0.1
740.638	0.1
740.951	0.1
741.264	0.1
741.577	0.1
741.89	0.1
742.203	0.1
742.515	0.11
742.828	0.1
743.141	0.1
743.453	0.1
743.766	0.1
744.078	0.09
744.391	0.09
744.703	0.09
745.015	0.09
745.327	0.09
745.639	0.09
745.952	0.09
746.264	0.09
746.575	0.09
746.887	0.08
747.199	0.09
747.511	0.09
747.823	0.09
748.134	0.09
748.446	0.08
748.757	0.09
749.069	0.08
749.38	0.09
749.692	0.08
750.003	0.08
750.314	0.08
750.625	0.08
750.936	0.09
751.248	0.08
751.559	0.08
751.869	0.08
752.18	0.08
752.491	0.08
752.802	0.08
753.112	0.08
753.423	0.07
753.734	0.07
754.044	0.07
754.355	0.07
754.665	0.07
754.975	0.07
755.285	0.07
755.596	0.07
755.906	0.07
756.216	0.07
756.526	0.07
756.836	0.07
757.146	0.07
757.455	0.07
757.765	0.06
758.075	0.06
758.385	0.06
758.694	0.06
759.004	0.06
759.313	0.06
759.622	0.06
759.932	0.06
760.241	0.06
760.55	0.06
760.859	0.06
761.168	0.06
761.477	0.06
761.786	0.06
762.095	0.06
762.404	0.06
762.713	0.06
763.021	0.06
763.33	0.05
763.639	0.06
763.947	0.06
764.256	0.05
764.564	0.06
764.872	0.06
765.181	0.06
765.489	0.05
765.797	0.05
766.105	0.05
766.413	0.05
766.721	0.05
767.029	0.05
767.337	0.05
767.644	0.05
767.952	0.05
768.26	0.05
768.567	0.05
768.875	0.04
769.182	0.04
769.49	0.05
769.797	0.05
770.104	0.04
770.411	0.05
770.718	0.04
771.026	0.04
771.333	0.04
771.639	0.04
771.946	0.04
772.253	0.04
772.56	0.04
772.867	0.04
773.173	0.05
773.48	0.05
773.786	0.04
774.093	0.04
774.399	0.04
774.705	0.04
775.012	0.04
775.318	0.04
775.624	0.04
775.93	0.04
776.236	0.04
776.542	0.04
776.848	0.04
777.154	0.04
777.459	0.04
777.765	0.03
778.071	0.04
778.376	0.04
778.682	0.04
778.987	0.04
779.292	0.04
779.598	0.05
779.903	0.05
780.208	0.04
780.513	0.04
780.818	0.04
781.123	0.04
781.428	0.04
781.733	0.04
782.038	0.04
782.343	0.05
782.647	0.05
782.952	0.05
783.256	0.05
783.561	0.04
783.865	0.04
784.17	0.04
784.474	0.04
784.778	0.03
785.082	0.04
785.386	0.04
785.69	0.03
785.994	0.04
786.298	0.04
786.602	0.04
786.906	0.04
787.209	0.04
787.513	0.03
787.817	0.03
788.12	0.03
788.424	0.03
788.727	0.03
789.03	0.03
789.333	0.04
789.637	0.04
789.94	0.04
790.243	0.04
790.546	0.04
790.849	0.03
791.152	0.03
791.454	0.03
791.757	0.03
792.06	0.03
792.362	0.03
792.665	0.03
792.967	0.03
793.27	0.04
793.572	0.04
793.874	0.04
794.177	0.04
794.479	0.04
794.781	0.04
795.083	0.04
795.385	0.04
795.687	0.04
795.989	0.04
796.29	0.04
796.592	0.04
796.894	0.04
797.195	0.04
797.497	0.04
797.798	0.04
798.1	0.04
798.401	0.04
798.702	0.04
799.003	0.04
799.304	0.04
799.605	0.04
799.906	0.04
800.207	0.03
800.508	0.03
800.809	0.04
801.11	0.04
801.41	0.04
801.711	0.04
802.011	0.04
802.312	0.04
802.612	0.04
802.913	0.04
803.213	0.05
803.513	0.04
803.813	0.04
804.113	0.04
804.413	0.04
804.713	0.04
805.013	0.04
805.313	0.04
805.613	0.04
805.912	0.04
806.212	0.04
806.511	0.03
806.811	0.04
807.11	0.03
807.41	0.03
807.709	0.03
808.008	0.03
808.307	0.04
808.606	0.03
808.905	0.04
809.204	0.04
809.503	0.04
809.802	0.04
810.101	0.04
810.399	0.04
810.698	0.04
810.997	0.05
811.295	0.04
811.593	0.05
811.892	0.05
812.19	0.05
812.488	0.04
812.786	0.04
813.084	0.05
813.383	0.04
813.68	0.04
813.978	0.04
814.276	0.05
814.574	0.05
814.872	0.05
815.169	0.05
815.467	0.05
815.764	0.05
816.062	0.05
816.359	0.04
816.656	0.04
816.954	0.04
817.251	0.04
817.548	0.04
817.845	0.05
818.142	0.04
818.439	0.04
818.735	0.03
819.032	0.04
819.329	0.04
819.626	0.04
819.922	0.05
820.219	0.04
820.515	0.05
820.811	0.04
821.108	0.04
821.404	0.04
821.7	0.04
821.996	0.05
822.292	0.04
822.588	0.05
822.884	0.05
823.18	0.04
823.475	0.04
823.771	0.04
824.067	0.04
824.362	0.04
824.658	0.04
824.953	0.04
825.249	0.04
825.544	0.04
825.839	0.05
826.134	0.04
826.429	0.05
826.724	0.05
827.019	0.05
827.314	0.05
827.609	0.05
827.904	0.04
828.198	0.04
828.493	0.05
828.787	0.04
829.082	0.04
829.376	0.05
829.671	0.05
829.965	0.05
830.259	0.05
830.553	0.05
830.847	0.05
831.141	0.05
831.435	0.05
831.729	0.05
832.023	0.05
832.317	0.06
832.61	0.06
832.904	0.06
833.197	0.06
833.491	0.06
833.784	0.06
834.077	0.06
834.371	0.06
834.664	0.06
834.957	0.06
835.25	0.07
835.543	0.06
835.836	0.06
836.129	0.06
836.421	0.05
836.714	0.05
837.007	0.06
837.299	0.05
837.592	0.06
837.884	0.05
838.177	0.05
838.469	0.05
838.761	0.05
839.053	0.05
839.345	0.05
839.637	0.04
839.929	0.05
840.221	0.05
840.513	0.06
840.805	0.04
841.096	0.05
841.388	0.05
841.68	0.05
841.971	0.05
842.262	0.04
842.554	0.05
842.845	0.05
843.136	0.04
843.427	0.06
843.718	0.05
844.009	0.05
844.3	0.04
844.591	0.06
844.882	0.05
845.173	0.05
845.463	0.06
845.754	0.07
846.044	0.06
846.335	0.07
846.625	0.07
846.915	0.06
847.206	0.06
847.496	0.05
847.786	0.05
848.076	0.06
848.366	0.05
848.656	0.04
848.945	0.06
849.235	0.05
849.525	0.04
849.814	0.05
850.104	0.05
850.393	0.04
850.683	0.04
850.972	0.05
851.261	0.04
851.551	0.06
851.84	0.05
852.129	0.06
852.418	0.04
852.707	0.04
852.995	0.04
853.284	0.05
853.573	0.06
853.862	0.06
854.15	0.06
854.439	0.05
854.727	0.06
855.015	0.06
855.304	0.05
855.592	0.05
855.88	0.05
856.168	0.05
856.456	0.04
856.744	0.05
857.032	0.04
857.32	0.05
857.607	0.05
857.895	0.05
858.183	0.07
858.47	0.05
858.757	0.06
859.045	0.06
859.332	0.05
859.619	0.05
859.907	0.06
860.194	0.05
860.481	0.05
860.768	0.04
861.054	0.04
861.341	0.06
861.628	0.06
861.915	0.05
862.201	0.05
862.488	0.04
862.774	0.06
863.061	0.05
863.347	0.04
863.633	0.07
863.919	0.06
864.205	0.04
864.491	0.06
864.777	0.06
865.063	0.04
865.349	0.06
865.635	0.04
865.92	0.03
866.206	0.06
866.492	0.06
866.777	0.05
867.062	0.03
867.348	0.06
867.633	0.05
867.918	0.05
868.203	0.05
868.488	0.03
868.773	0.03
869.058	0.03
869.343	0.02
869.628	0.04
869.912	0.03
870.197	0.01
870.482	0.01
870.766	0.05
871.05	0.04
871.335	0.03
871.619	0.01
871.903	0.02
872.187	0.06
872.471	-0
872.755	0.04
873.039	0.03
873.323	0.07
873.607	0.03
873.89	0.08
874.174	0.06
874.458	0.06
874.741	0.02
875.024	-0.01
875.308	0.02
875.591	-0.01
875.874	0.02
876.157	0.02
876.44	0.1
876.723	0.11
877.006	0.03
877.289	-0.01
877.572	0.04
877.854	0.01
878.137	0.05
878.42	-0.02
878.702	0.01
878.984	0.01
879.267	0.08
879.549	0.11
879.831	0.06
880.113	0.05
880.395	0.06
880.677	0.04
880.959	0.09
