Data from Rubpy_EV_600_EDTA_Buffered_Absorbance_12-58-45-043.txt Node
Date: Tue Jun 30 12:58:45 BST 2026
User: fpm-admin
Spectrometer: OFX00224
Trigger mode: 0
Integration Time (sec): 7.000000E-2
Scans to average: 3
Nonlinearity correction enabled: false
Boxcar width: 0
Storing dark spectrum: false
XAxis mode: Wavelengths
Number of Pixels in Spectrum: 2136
>>>>>Begin Spectral Data<<<<<
154.91	-0.85
155.289	0.28
155.669	0.99
156.048	-0.41
156.428	0.81
156.807	-0.51
157.186	0.12
157.566	-0
157.945	0.08
158.325	0.15
158.704	-0.21
159.083	-0
159.462	-1.22
159.842	-0.27
160.221	0.25
160.6	0.22
160.979	-0.18
161.359	-0
161.738	0.54
162.117	-0.3
162.496	0.63
162.875	0.35
163.254	-0.02
163.633	-0
164.012	-0.18
164.391	-0.21
164.77	0.14
165.149	0.11
165.528	0.27
165.907	-0
166.286	-0
166.665	0.74
167.044	-0
167.423	0.62
167.802	-0.21
168.181	0.6
168.559	-0.65
168.938	-0.02
169.317	-0.29
169.696	-0
170.074	0.8
170.453	0.23
170.832	0.78
171.21	0.67
171.589	0.26
171.968	-0
172.346	-0
172.725	0.07
173.103	-0.12
173.482	-0.33
173.861	-0.08
174.239	0.05
174.617	-0.57
174.996	0.65
175.374	-0
175.753	-0.9
176.131	-0
176.51	-0.3
176.888	0.88
177.266	-0
177.645	0
178.023	-0
178.401	-0.11
178.779	-0.01
179.158	0.03
179.536	-0
179.914	-0.16
180.292	-0
180.67	-0
181.048	-0
181.427	-1.43
181.805	0.25
182.183	-0.3
182.561	-0
182.939	0.23
183.317	0.31
183.695	0.29
184.073	0.01
184.451	-0
184.829	0.3
185.206	0.16
185.584	0.08
185.962	-0.22
186.34	-0
186.718	0.74
187.096	0.1
187.473	-0.06
187.851	0.25
188.229	-0.43
188.607	0.11
188.984	0.09
189.362	0.08
189.74	0.14
190.117	0.1
190.495	0.06
190.872	0.18
191.25	0.17
191.627	0.12
192.005	0.14
192.382	0.22
192.76	0.11
193.137	0.21
193.515	0.19
193.892	0.14
194.269	0.15
194.647	0.14
195.024	0.05
195.401	0.19
195.779	0.22
196.156	0.04
196.533	0.11
196.91	0.13
197.288	0.12
197.665	0.06
198.042	0.08
198.419	0.06
198.796	0.1
199.173	0.09
199.55	0.1
199.927	0.1
200.304	0.08
200.681	0.13
201.058	0.12
201.435	0.11
201.812	0.07
202.189	0.09
202.566	0.23
202.943	0.18
203.32	0.15
203.697	0.16
204.073	0.11
204.45	0.08
204.827	0.23
205.204	0.11
205.58	0.1
205.957	0.08
206.334	0.12
206.71	0.1
207.087	0.19
207.464	0.12
207.84	0.18
208.217	0.15
208.593	0.26
208.97	0.16
209.346	0.03
209.723	0.1
210.099	0.09
210.476	0.17
210.852	0.12
211.228	0.11
211.605	0.09
211.981	0.12
212.357	0.08
212.733	0.14
213.11	0.12
213.486	0.16
213.862	0.01
214.238	0.13
214.614	0.1
214.991	0.08
215.367	0.21
215.743	0.08
216.119	0.14
216.495	0.04
216.871	0.05
217.247	0.06
217.623	0.06
217.999	0.13
218.375	0.1
218.751	0.05
219.127	0.09
219.502	0.14
219.878	0.15
220.254	0.17
220.63	0.1
221.006	0.14
221.381	0.07
221.757	0.16
222.133	0.07
222.508	0.14
222.884	0.11
223.26	0.17
223.635	0.07
224.011	0.05
224.386	0.11
224.762	0.13
225.137	0.1
225.513	0.11
225.888	0.02
226.264	0.19
226.639	0.15
227.014	0.09
227.39	0.13
227.765	0.25
228.14	0.13
228.516	0.09
228.891	0.06
229.266	0.18
229.641	0.13
230.017	0.13
230.392	0.14
230.767	0.13
231.142	0.09
231.517	0.05
231.892	0.13
232.267	0.18
232.642	0.15
233.017	0.1
233.392	0.18
233.767	0.17
234.142	0.07
234.517	0.07
234.892	0.12
235.267	0.08
235.641	0.13
236.016	0
236.391	0.06
236.766	0.01
237.14	0.03
237.515	0.12
237.89	0.19
238.264	0.15
238.639	0.14
239.014	0.12
239.388	0.16
239.763	0.11
240.137	0.13
240.512	0.13
240.886	0.08
241.261	0.1
241.635	0.13
242.009	0.12
242.384	0.09
242.758	0.17
243.132	0.11
243.507	0.07
243.881	0.12
244.255	0.07
244.629	0.17
245.004	0.23
245.378	0.1
245.752	0.12
246.126	0.06
246.5	0.08
246.874	0.09
247.248	0.13
247.622	0.08
247.996	0.08
248.37	0.12
248.744	0.07
249.118	0.12
249.492	0.13
249.866	0.17
250.24	0.08
250.613	0.2
250.987	0.12
251.361	0.14
251.735	0.05
252.108	0.09
252.482	0.15
252.856	0.1
253.229	0.12
253.603	0.14
253.977	0.16
254.35	0.14
254.724	0.09
255.097	0.14
255.471	0.06
255.844	0.08
256.218	0.17
256.591	0.07
256.964	0.11
257.338	0.13
257.711	0.09
258.084	0.07
258.458	0.16
258.831	0.15
259.204	0.14
259.577	0.19
259.95	0.17
260.323	0.11
260.697	0.09
261.07	0.15
261.443	0.12
261.816	0.13
262.189	0.18
262.562	0.12
262.935	0.18
263.308	0.07
263.68	0.1
264.053	0.13
264.426	0.11
264.799	0.09
265.172	0.13
265.545	0.13
265.917	0.11
266.29	0.18
266.663	0.12
267.035	0.18
267.408	0.17
267.781	0.11
268.153	0.15
268.526	0.11
268.898	0.14
269.271	0.16
269.643	0.19
270.016	0.13
270.388	0.12
270.76	0.12
271.133	0.17
271.505	0.13
271.877	0.09
272.25	0.08
272.622	0.17
272.994	0.14
273.366	0.24
273.739	0.15
274.111	0.09
274.483	0.08
274.855	0.12
275.227	0.18
275.599	0.09
275.971	0.13
276.343	0.07
276.715	0.11
277.087	0.12
277.459	0.12
277.831	0.1
278.203	0.21
278.574	0.19
278.946	0.15
279.318	0.21
279.69	0.14
280.061	0.11
280.433	0.15
280.805	0.14
281.176	0.1
281.548	0.19
281.92	0.13
282.291	0.1
282.663	0.14
283.034	0.14
283.406	0.16
283.777	0.13
284.148	0.09
284.52	0.05
284.891	0.12
285.262	0.1
285.634	0.2
286.005	0.09
286.376	0.15
286.747	0.14
287.119	0.11
287.49	0.11
287.861	0.11
288.232	0.12
288.603	0.08
288.974	0.06
289.345	0.07
289.716	0.12
290.087	0.09
290.458	0.12
290.829	0.11
291.2	0.12
291.571	0.11
291.941	0.1
292.312	0.14
292.683	0.13
293.054	0.12
293.424	0.06
293.795	0.11
294.166	0.09
294.536	0.11
294.907	0.11
295.277	0.14
295.648	0.11
296.018	0.15
296.389	0.13
296.759	0.08
297.13	0.13
297.5	0.09
297.871	0.12
298.241	0.09
298.611	0.1
298.981	0.11
299.352	0.12
299.722	0.09
300.092	0.09
300.462	0.08
300.832	0.11
301.202	0.11
301.573	0.07
301.943	0.09
302.313	0.06
302.683	0.08
303.053	0.07
303.422	0.07
303.792	0.07
304.162	0.08
304.532	0.08
304.902	0.08
305.272	0.06
305.641	0.09
306.011	0.08
306.381	0.09
306.75	0.09
307.12	0.09
307.49	0.1
307.859	0.09
308.229	0.09
308.598	0.09
308.968	0.09
309.337	0.09
309.707	0.09
310.076	0.1
310.445	0.1
310.815	0.1
311.184	0.1
311.553	0.1
311.923	0.11
312.292	0.1
312.661	0.11
313.03	0.1
313.399	0.11
313.768	0.1
314.137	0.1
314.506	0.11
314.875	0.1
315.244	0.11
315.613	0.11
315.982	0.1
316.351	0.11
316.72	0.11
317.089	0.1
317.458	0.11
317.826	0.1
318.195	0.1
318.564	0.1
318.933	0.1
319.301	0.1
319.67	0.1
320.038	0.1
320.407	0.09
320.775	0.09
321.144	0.1
321.512	0.09
321.881	0.1
322.249	0.09
322.618	0.08
322.986	0.09
323.354	0.09
323.723	0.09
324.091	0.08
324.459	0.09
324.827	0.1
325.195	0.08
325.564	0.09
325.932	0.09
326.3	0.09
326.668	0.09
327.036	0.09
327.404	0.08
327.772	0.08
328.14	0.09
328.508	0.08
328.875	0.08
329.243	0.08
329.611	0.09
329.979	0.08
330.346	0.09
330.714	0.08
331.082	0.08
331.449	0.08
331.817	0.09
332.185	0.09
332.552	0.09
332.92	0.09
333.287	0.09
333.655	0.09
334.022	0.09
334.389	0.09
334.757	0.09
335.124	0.09
335.491	0.09
335.859	0.09
336.226	0.09
336.593	0.1
336.96	0.1
337.327	0.1
337.695	0.1
338.062	0.1
338.429	0.1
338.796	0.1
339.163	0.11
339.53	0.1
339.897	0.1
340.263	0.11
340.63	0.11
340.997	0.11
341.364	0.12
341.731	0.12
342.097	0.12
342.464	0.12
342.831	0.12
343.197	0.13
343.564	0.13
343.931	0.13
344.297	0.13
344.664	0.13
345.03	0.14
345.396	0.14
345.763	0.14
346.129	0.14
346.496	0.15
346.862	0.15
347.228	0.15
347.594	0.15
347.961	0.15
348.327	0.16
348.693	0.16
349.059	0.16
349.425	0.16
349.791	0.16
350.157	0.17
350.523	0.17
350.889	0.17
351.255	0.18
351.621	0.18
351.987	0.19
352.353	0.19
352.719	0.19
353.084	0.2
353.45	0.2
353.816	0.2
354.181	0.21
354.547	0.21
354.913	0.21
355.278	0.22
355.644	0.22
356.009	0.23
356.375	0.23
356.74	0.24
357.106	0.24
357.471	0.25
357.836	0.26
358.202	0.26
358.567	0.27
358.932	0.27
359.297	0.27
359.663	0.28
360.028	0.29
360.393	0.29
360.758	0.29
361.123	0.29
361.488	0.3
361.853	0.3
362.218	0.3
362.583	0.31
362.948	0.32
363.312	0.32
363.677	0.32
364.042	0.33
364.407	0.34
364.772	0.34
365.136	0.35
365.501	0.35
365.865	0.36
366.23	0.37
366.595	0.37
366.959	0.39
367.324	0.4
367.688	0.4
368.052	0.41
368.417	0.42
368.781	0.42
369.145	0.43
369.51	0.43
369.874	0.43
370.238	0.43
370.602	0.43
370.967	0.43
371.331	0.43
371.695	0.43
372.059	0.43
372.423	0.43
372.787	0.42
373.151	0.42
373.515	0.42
373.878	0.42
374.242	0.42
374.606	0.42
374.97	0.42
375.334	0.42
375.697	0.43
376.061	0.43
376.425	0.43
376.788	0.43
377.152	0.44
377.515	0.44
377.879	0.45
378.242	0.45
378.606	0.46
378.969	0.46
379.333	0.47
379.696	0.48
380.059	0.48
380.422	0.49
380.786	0.5
381.149	0.51
381.512	0.52
381.875	0.52
382.238	0.54
382.601	0.56
382.964	0.57
383.327	0.58
383.69	0.6
384.053	0.62
384.416	0.63
384.779	0.64
385.142	0.66
385.504	0.67
385.867	0.68
386.23	0.69
386.593	0.7
386.955	0.7
387.318	0.69
387.68	0.7
388.043	0.69
388.405	0.7
388.768	0.68
389.13	0.68
389.493	0.68
389.855	0.66
390.217	0.67
390.58	0.66
390.942	0.67
391.304	0.67
391.666	0.68
392.028	0.69
392.391	0.7
392.753	0.73
393.115	0.75
393.477	0.77
393.839	0.8
394.201	0.83
394.563	0.86
394.924	0.9
395.286	0.94
395.648	0.97
396.01	0.99
396.371	1.02
396.733	1.04
397.095	1.07
397.456	1.07
397.818	1.08
398.18	1.06
398.541	1.06
398.903	1.04
399.264	1
399.625	0.98
399.987	0.94
400.348	0.89
400.709	0.86
401.071	0.81
401.432	0.76
401.793	0.72
402.154	0.67
402.515	0.63
402.876	0.57
403.238	0.54
403.599	0.5
403.96	0.47
404.32	0.43
404.681	0.4
405.042	0.38
405.403	0.35
405.764	0.32
406.125	0.3
406.485	0.28
406.846	0.26
407.207	0.25
407.567	0.23
407.928	0.22
408.288	0.21
408.649	0.19
409.009	0.18
409.37	0.18
409.73	0.17
410.091	0.15
410.451	0.15
410.811	0.15
411.171	0.14
411.532	0.13
411.892	0.12
412.252	0.12
412.612	0.12
412.972	0.12
413.332	0.11
413.692	0.11
414.052	0.1
414.412	0.09
414.772	0.1
415.132	0.09
415.492	0.09
415.851	0.08
416.211	0.1
416.571	0.08
416.931	0.08
417.29	0.08
417.65	0.07
418.009	0.07
418.369	0.07
418.728	0.07
419.088	0.07
419.447	0.07
419.807	0.07
420.166	0.07
420.525	0.06
420.884	0.07
421.244	0.06
421.603	0.07
421.962	0.06
422.321	0.06
422.68	0.06
423.039	0.06
423.398	0.06
423.757	0.06
424.116	0.06
424.475	0.06
424.834	0.06
425.193	0.06
425.551	0.05
425.91	0.05
426.269	0.06
426.628	0.05
426.986	0.05
427.345	0.05
427.703	0.05
428.062	0.04
428.42	0.05
428.779	0.05
429.137	0.05
429.496	0.05
429.854	0.05
430.212	0.04
430.57	0.04
430.929	0.05
431.287	0.05
431.645	0.04
432.003	0.05
432.361	0.04
432.719	0.04
433.077	0.05
433.435	0.05
433.793	0.05
434.151	0.04
434.509	0.04
434.866	0.04
435.224	0.04
435.582	0.04
435.94	0.04
436.297	0.04
436.655	0.04
437.012	0.04
437.37	0.05
437.727	0.04
438.085	0.04
438.442	0.04
438.8	0.03
439.157	0.04
439.514	0.04
439.872	0.04
440.229	0.04
440.586	0.04
440.943	0.03
441.3	0.04
441.657	0.03
442.014	0.03
442.371	0.04
442.728	0.03
443.085	0.04
443.442	0.05
443.799	0.03
444.156	0.04
444.513	0.02
444.869	0.03
445.226	0.04
445.583	0.03
445.939	0.04
446.296	0.03
446.652	0.04
447.009	0.03
447.365	0.04
447.722	0.04
448.078	0.03
448.434	0.02
448.791	0.03
449.147	0.04
449.503	0.03
449.859	0.02
450.215	0.02
450.571	0.03
450.928	0.02
451.284	0.02
451.64	0.03
451.995	0.03
452.351	0.02
452.707	0.03
453.063	0.02
453.419	0.03
453.775	0.02
454.13	0.03
454.486	0.03
454.842	0.02
455.197	0.02
455.553	0.02
455.908	0.01
456.264	0.02
456.619	0.02
456.975	0.02
457.33	0.01
457.685	0.01
458.04	0.01
458.396	0.01
458.751	0.02
459.106	0.01
459.461	0.01
459.816	0.01
460.171	0.01
460.526	0.01
460.881	0
461.236	0
461.591	0.01
461.946	0
462.301	0.01
462.655	0.01
463.01	0
463.365	0
463.719	0
464.074	0
464.428	-0.01
464.783	0
465.137	-0.01
465.492	0
465.846	-0
466.201	-0
466.555	0
466.909	-0.01
467.263	0
467.618	0
467.972	0
468.326	-0
468.68	0
469.034	-0
469.388	-0
469.742	-0.01
470.096	0
470.45	-0.01
470.804	-0
471.157	0
471.511	0
471.865	-0
472.218	0
472.572	-0.01
472.926	-0
473.279	0
473.633	0.01
473.986	0.01
474.34	0
474.693	0.01
475.046	0.01
475.4	0.01
475.753	0.01
476.106	0.01
476.459	0.02
476.812	0.02
477.165	0.01
477.519	0.02
477.872	0.02
478.224	0.02
478.577	0.02
478.93	0.02
479.283	0.03
479.636	0.02
479.989	0.02
480.341	0.02
480.694	0.03
481.047	0.03
481.399	0.03
481.752	0.03
482.104	0.03
482.457	0.03
482.809	0.03
483.162	0.03
483.514	0.03
483.866	0.03
484.219	0.03
484.571	0.03
484.923	0.04
485.275	0.04
485.627	0.04
485.979	0.04
486.331	0.04
486.683	0.04
487.035	0.04
487.387	0.04
487.739	0.04
488.091	0.05
488.443	0.05
488.794	0.05
489.146	0.05
489.498	0.05
489.849	0.05
490.201	0.04
490.552	0.05
490.904	0.05
491.255	0.04
491.607	0.05
491.958	0.06
492.309	0.05
492.661	0.05
493.012	0.05
493.363	0.05
493.714	0.05
494.065	0.05
494.416	0.06
494.767	0.06
495.118	0.06
495.469	0.06
495.82	0.06
496.171	0.06
496.522	0.06
496.872	0.06
497.223	0.06
497.574	0.06
497.924	0.07
498.275	0.06
498.626	0.07
498.976	0.07
499.327	0.07
499.677	0.07
500.027	0.07
500.378	0.07
500.728	0.07
501.078	0.08
501.428	0.07
501.779	0.08
502.129	0.08
502.479	0.08
502.829	0.07
503.179	0.08
503.529	0.07
503.879	0.08
504.229	0.08
504.578	0.08
504.928	0.08
505.278	0.08
505.628	0.08
505.977	0.09
506.327	0.08
506.676	0.09
507.026	0.09
507.375	0.09
507.725	0.09
508.074	0.09
508.424	0.09
508.773	0.09
509.122	0.09
509.471	0.1
509.82	0.09
510.17	0.1
510.519	0.1
510.868	0.1
511.217	0.1
511.566	0.1
511.915	0.1
512.263	0.1
512.612	0.1
512.961	0.1
513.31	0.11
513.659	0.1
514.007	0.1
514.356	0.11
514.704	0.11
515.053	0.11
515.401	0.11
515.75	0.12
516.098	0.11
516.447	0.11
516.795	0.11
517.143	0.11
517.491	0.12
517.839	0.12
518.188	0.12
518.536	0.12
518.884	0.12
519.232	0.12
519.58	0.12
519.928	0.12
520.275	0.12
520.623	0.13
520.971	0.13
521.319	0.13
521.666	0.13
522.014	0.13
522.362	0.13
522.709	0.13
523.057	0.14
523.404	0.13
523.752	0.13
524.099	0.13
524.446	0.14
524.794	0.14
525.141	0.14
525.488	0.14
525.835	0.14
526.182	0.14
526.529	0.14
526.876	0.14
527.223	0.14
527.57	0.15
527.917	0.15
528.264	0.15
528.611	0.15
528.958	0.15
529.304	0.15
529.651	0.15
529.998	0.16
530.344	0.16
530.691	0.16
531.037	0.16
531.384	0.16
531.73	0.16
532.076	0.16
532.423	0.16
532.769	0.16
533.115	0.16
533.461	0.16
533.807	0.16
534.154	0.16
534.5	0.17
534.846	0.17
535.192	0.17
535.537	0.17
535.883	0.17
536.229	0.18
536.575	0.17
536.921	0.18
537.266	0.17
537.612	0.18
537.957	0.18
538.303	0.18
538.649	0.19
538.994	0.19
539.339	0.19
539.685	0.19
540.03	0.18
540.375	0.19
540.721	0.19
541.066	0.19
541.411	0.2
541.756	0.2
542.101	0.2
542.446	0.2
542.791	0.2
543.136	0.2
543.481	0.2
543.825	0.2
544.17	0.21
544.515	0.21
544.86	0.21
545.204	0.21
545.549	0.21
545.893	0.21
546.238	0.21
546.582	0.22
546.927	0.22
547.271	0.22
547.615	0.21
547.96	0.22
548.304	0.22
548.648	0.22
548.992	0.23
549.336	0.23
549.68	0.23
550.024	0.23
550.368	0.23
550.712	0.23
551.056	0.23
551.4	0.24
551.743	0.24
552.087	0.24
552.431	0.24
552.774	0.24
553.118	0.24
553.462	0.24
553.805	0.24
554.148	0.25
554.492	0.25
554.835	0.25
555.178	0.25
555.522	0.25
555.865	0.25
556.208	0.25
556.551	0.25
556.894	0.25
557.237	0.25
557.58	0.26
557.923	0.25
558.266	0.25
558.609	0.25
558.952	0.26
559.294	0.26
559.637	0.26
559.98	0.26
560.322	0.26
560.665	0.26
561.007	0.26
561.35	0.26
561.692	0.26
562.034	0.26
562.377	0.26
562.719	0.26
563.061	0.26
563.403	0.26
563.745	0.26
564.088	0.26
564.43	0.27
564.772	0.27
565.113	0.27
565.455	0.27
565.797	0.27
566.139	0.27
566.481	0.26
566.822	0.27
567.164	0.27
567.506	0.27
567.847	0.27
568.189	0.27
568.53	0.27
568.872	0.27
569.213	0.27
569.554	0.27
569.895	0.27
570.237	0.27
570.578	0.27
570.919	0.27
571.26	0.27
571.601	0.27
571.942	0.28
572.283	0.27
572.624	0.27
572.965	0.27
573.306	0.27
573.646	0.27
573.987	0.27
574.328	0.27
574.668	0.27
575.009	0.27
575.349	0.27
575.69	0.27
576.03	0.27
576.37	0.27
576.711	0.27
577.051	0.27
577.391	0.27
577.731	0.27
578.072	0.27
578.412	0.27
578.752	0.27
579.092	0.27
579.431	0.27
579.771	0.26
580.111	0.26
580.451	0.26
580.791	0.27
581.13	0.27
581.47	0.27
581.81	0.27
582.149	0.28
582.489	0.28
582.828	0.28
583.167	0.27
583.507	0.25
583.846	0.23
584.185	0.24
584.525	0.26
584.864	0.27
585.203	0.28
585.542	0.28
585.881	0.28
586.22	0.29
586.559	0.29
586.898	0.28
587.236	0.28
587.575	0.28
587.914	0.28
588.252	0.28
588.591	0.29
588.93	0.29
589.268	0.29
589.607	0.29
589.945	0.29
590.283	0.29
590.622	0.3
590.96	0.3
591.298	0.3
591.636	0.3
591.974	0.31
592.313	0.31
592.651	0.31
592.989	0.31
593.326	0.31
593.664	0.31
594.002	0.31
594.34	0.31
594.678	0.31
595.015	0.31
595.353	0.31
595.691	0.31
596.028	0.32
596.366	0.32
596.703	0.32
597.04	0.32
597.378	0.32
597.715	0.32
598.052	0.33
598.389	0.33
598.726	0.33
599.064	0.34
599.401	0.33
599.738	0.33
600.074	0.34
600.411	0.34
600.748	0.33
601.085	0.33
601.422	0.33
601.758	0.33
602.095	0.33
602.432	0.33
602.768	0.33
603.105	0.34
603.441	0.34
603.777	0.34
604.114	0.34
604.45	0.34
604.786	0.34
605.122	0.34
605.459	0.34
605.795	0.34
606.131	0.33
606.467	0.34
606.803	0.34
607.139	0.34
607.474	0.33
607.81	0.33
608.146	0.33
608.482	0.33
608.817	0.33
609.153	0.33
609.488	0.33
609.824	0.33
610.159	0.33
610.495	0.33
610.83	0.33
611.165	0.33
611.5	0.33
611.836	0.33
612.171	0.33
612.506	0.33
612.841	0.33
613.176	0.32
613.511	0.33
613.845	0.33
614.18	0.32
614.515	0.33
614.85	0.33
615.184	0.32
615.519	0.32
615.854	0.32
616.188	0.31
616.523	0.32
616.857	0.31
617.191	0.31
617.526	0.31
617.86	0.31
618.194	0.31
618.528	0.32
618.862	0.32
619.196	0.32
619.53	0.31
619.864	0.31
620.198	0.31
620.532	0.31
620.866	0.31
621.2	0.31
621.533	0.31
621.867	0.31
622.201	0.31
622.534	0.31
622.868	0.31
623.201	0.31
623.534	0.3
623.868	0.3
624.201	0.3
624.534	0.3
624.868	0.3
625.201	0.3
625.534	0.3
625.867	0.3
626.2	0.3
626.533	0.3
626.865	0.29
627.198	0.29
627.531	0.29
627.864	0.29
628.196	0.29
628.529	0.29
628.862	0.28
629.194	0.29
629.527	0.29
629.859	0.28
630.191	0.28
630.524	0.28
630.856	0.28
631.188	0.27
631.52	0.27
631.852	0.27
632.184	0.27
632.516	0.27
632.848	0.27
633.18	0.27
633.512	0.26
633.844	0.26
634.175	0.26
634.507	0.25
634.839	0.25
635.17	0.25
635.502	0.25
635.833	0.25
636.165	0.25
636.496	0.25
636.827	0.25
637.159	0.25
637.49	0.25
637.821	0.24
638.152	0.24
638.483	0.23
638.814	0.24
639.145	0.24
639.476	0.23
639.807	0.23
640.137	0.23
640.468	0.22
640.799	0.22
641.129	0.22
641.46	0.23
641.791	0.23
642.121	0.22
642.451	0.22
642.782	0.21
643.112	0.22
643.442	0.21
643.773	0.22
644.103	0.21
644.433	0.21
644.763	0.2
645.093	0.21
645.423	0.2
645.753	0.2
646.082	0.2
646.412	0.2
646.742	0.2
647.072	0.2
647.401	0.2
647.731	0.2
648.06	0.2
648.39	0.2
648.719	0.2
649.048	0.2
649.378	0.2
649.707	0.19
650.036	0.2
650.365	0.2
650.694	0.19
651.023	0.19
651.352	0.19
651.681	0.19
652.01	0.19
652.339	0.19
652.668	0.19
652.996	0.19
653.325	0.19
653.654	0.19
653.982	0.19
654.311	0.19
654.639	0.19
654.967	0.19
655.296	0.19
655.624	0.19
655.952	0.18
656.28	0.19
656.609	0.19
656.937	0.19
657.265	0.19
657.593	0.17
657.92	0.06
658.248	0.01
658.576	0
658.904	0.05
659.231	0.12
659.559	0.17
659.887	0.18
660.214	0.18
660.542	0.18
660.869	0.19
661.196	0.19
661.524	0.19
661.851	0.18
662.178	0.18
662.505	0.19
662.832	0.18
663.159	0.19
663.486	0.18
663.813	0.18
664.14	0.19
664.467	0.19
664.794	0.18
665.12	0.18
665.447	0.18
665.774	0.19
666.1	0.19
666.427	0.19
666.753	0.18
667.079	0.18
667.406	0.18
667.732	0.18
668.058	0.18
668.384	0.18
668.71	0.18
669.036	0.17
669.362	0.18
669.688	0.18
670.014	0.17
670.34	0.18
670.666	0.17
670.991	0.18
671.317	0.17
671.643	0.17
671.968	0.17
672.294	0.17
672.619	0.17
672.945	0.16
673.27	0.16
673.595	0.16
673.92	0.16
674.246	0.16
674.571	0.16
674.896	0.16
675.221	0.16
675.546	0.16
675.87	0.16
676.195	0.16
676.52	0.16
676.845	0.16
677.169	0.16
677.494	0.16
677.819	0.16
678.143	0.16
678.468	0.15
678.792	0.16
679.116	0.16
679.44	0.15
679.765	0.15
680.089	0.15
680.413	0.15
680.737	0.14
681.061	0.14
681.385	0.14
681.709	0.14
682.033	0.14
682.356	0.13
682.68	0.13
683.004	0.13
683.327	0.13
683.651	0.13
683.974	0.13
684.298	0.13
684.621	0.13
684.944	0.12
685.268	0.13
685.591	0.12
685.914	0.12
686.237	0.12
686.56	0.12
686.883	0.12
687.206	0.12
687.529	0.12
687.852	0.11
688.175	0.11
688.497	0.11
688.82	0.12
689.142	0.11
689.465	0.11
689.787	0.11
690.11	0.11
690.432	0.1
690.755	0.1
691.077	0.1
691.399	0.1
691.721	0.1
692.043	0.1
692.365	0.1
692.687	0.1
693.009	0.1
693.331	0.1
693.653	0.1
693.974	0.1
694.296	0.1
694.618	0.09
694.939	0.09
695.261	0.1
695.582	0.09
695.904	0.09
696.225	0.09
696.546	0.09
696.868	0.09
697.189	0.09
697.51	0.09
697.831	0.09
698.152	0.09
698.473	0.09
698.794	0.08
699.114	0.08
699.435	0.08
699.756	0.08
700.077	0.08
700.397	0.08
700.718	0.09
701.038	0.08
701.359	0.09
701.679	0.09
701.999	0.08
702.32	0.09
702.64	0.08
702.96	0.08
703.28	0.08
703.6	0.08
703.92	0.08
704.24	0.08
704.56	0.07
704.879	0.08
705.199	0.08
705.519	0.07
705.838	0.07
706.158	0.07
706.478	0.07
706.797	0.07
707.116	0.07
707.436	0.07
707.755	0.07
708.074	0.07
708.393	0.07
708.712	0.07
709.031	0.07
709.35	0.07
709.669	0.06
709.988	0.07
710.307	0.07
710.626	0.07
710.944	0.07
711.263	0.07
711.582	0.07
711.9	0.07
712.219	0.07
712.537	0.07
712.855	0.07
713.174	0.07
713.492	0.07
713.81	0.07
714.128	0.07
714.446	0.07
714.764	0.07
715.082	0.07
715.4	0.07
715.718	0.07
716.035	0.07
716.353	0.07
716.671	0.07
716.988	0.07
717.306	0.07
717.623	0.07
717.941	0.07
718.258	0.07
718.575	0.08
718.893	0.08
719.21	0.07
719.527	0.08
719.844	0.08
720.161	0.08
720.478	0.08
720.795	0.08
721.112	0.08
721.428	0.08
721.745	0.08
722.062	0.08
722.378	0.08
722.695	0.08
723.011	0.08
723.328	0.08
723.644	0.08
723.96	0.08
724.276	0.08
724.593	0.08
724.909	0.08
725.225	0.08
725.541	0.08
725.857	0.08
726.173	0.08
726.488	0.08
726.804	0.08
727.12	0.08
727.435	0.08
727.751	0.08
728.067	0.08
728.382	0.08
728.697	0.08
729.013	0.08
729.328	0.08
729.643	0.08
729.958	0.08
730.273	0.08
730.588	0.08
730.903	0.08
731.218	0.08
731.533	0.08
731.848	0.08
732.163	0.08
732.477	0.08
732.792	0.08
733.107	0.07
733.421	0.07
733.736	0.07
734.05	0.07
734.364	0.08
734.678	0.08
734.993	0.08
735.307	0.08
735.621	0.07
735.935	0.08
736.249	0.07
736.563	0.07
736.877	0.07
737.19	0.07
737.504	0.08
737.818	0.08
738.131	0.07
738.445	0.07
738.758	0.07
739.072	0.07
739.385	0.07
739.698	0.07
740.012	0.07
740.325	0.07
740.638	0.07
740.951	0.06
741.264	0.06
741.577	0.07
741.89	0.07
742.203	0.07
742.515	0.07
742.828	0.07
743.141	0.07
743.453	0.07
743.766	0.07
744.078	0.06
744.391	0.06
744.703	0.06
745.015	0.06
745.327	0.06
745.639	0.06
745.952	0.06
746.264	0.06
746.575	0.06
746.887	0.06
747.199	0.06
747.511	0.06
747.823	0.06
748.134	0.06
748.446	0.06
748.757	0.06
749.069	0.06
749.38	0.06
749.692	0.06
750.003	0.06
750.314	0.06
750.625	0.06
750.936	0.06
751.248	0.06
751.559	0.06
751.869	0.06
752.18	0.06
752.491	0.06
752.802	0.06
753.112	0.06
753.423	0.05
753.734	0.05
754.044	0.05
754.355	0.05
754.665	0.05
754.975	0.05
755.285	0.05
755.596	0.05
755.906	0.05
756.216	0.04
756.526	0.05
756.836	0.05
757.146	0.05
757.455	0.04
757.765	0.04
758.075	0.04
758.385	0.04
758.694	0.04
759.004	0.04
759.313	0.04
759.622	0.04
759.932	0.04
760.241	0.04
760.55	0.04
760.859	0.04
761.168	0.05
761.477	0.04
761.786	0.04
762.095	0.05
762.404	0.05
762.713	0.04
763.021	0.04
763.33	0.04
763.639	0.04
763.947	0.04
764.256	0.04
764.564	0.04
764.872	0.04
765.181	0.04
765.489	0.04
765.797	0.04
766.105	0.04
766.413	0.04
766.721	0.04
767.029	0.04
767.337	0.04
767.644	0.04
767.952	0.04
768.26	0.04
768.567	0.04
768.875	0.04
769.182	0.03
769.49	0.03
769.797	0.03
770.104	0.03
770.411	0.03
770.718	0.03
771.026	0.03
771.333	0.03
771.639	0.03
771.946	0.03
772.253	0.03
772.56	0.03
772.867	0.03
773.173	0.03
773.48	0.04
773.786	0.03
774.093	0.03
774.399	0.03
774.705	0.03
775.012	0.03
775.318	0.03
775.624	0.03
775.93	0.03
776.236	0.03
776.542	0.03
776.848	0.03
777.154	0.03
777.459	0.03
777.765	0.03
778.071	0.03
778.376	0.03
778.682	0.04
778.987	0.04
779.292	0.03
779.598	0.04
779.903	0.04
780.208	0.04
780.513	0.04
780.818	0.04
781.123	0.03
781.428	0.03
781.733	0.03
782.038	0.03
782.343	0.04
782.647	0.04
782.952	0.04
783.256	0.04
783.561	0.04
783.865	0.04
784.17	0.04
784.474	0.03
784.778	0.03
785.082	0.03
785.386	0.03
785.69	0.03
785.994	0.04
786.298	0.03
786.602	0.04
786.906	0.03
787.209	0.04
787.513	0.03
787.817	0.03
788.12	0.02
788.424	0.02
788.727	0.03
789.03	0.03
789.333	0.03
789.637	0.03
789.94	0.03
790.243	0.03
790.546	0.03
790.849	0.03
791.152	0.02
791.454	0.02
791.757	0.02
792.06	0.03
792.362	0.02
792.665	0.03
792.967	0.03
793.27	0.03
793.572	0.03
793.874	0.03
794.177	0.03
794.479	0.03
794.781	0.03
795.083	0.03
795.385	0.03
795.687	0.03
795.989	0.03
796.29	0.03
796.592	0.03
796.894	0.03
797.195	0.04
797.497	0.03
797.798	0.03
798.1	0.03
798.401	0.04
798.702	0.04
799.003	0.03
799.304	0.04
799.605	0.03
799.906	0.03
800.207	0.03
800.508	0.03
800.809	0.03
801.11	0.03
801.41	0.03
801.711	0.03
802.011	0.04
802.312	0.03
802.612	0.03
802.913	0.04
803.213	0.04
803.513	0.04
803.813	0.04
804.113	0.04
804.413	0.04
804.713	0.03
805.013	0.03
805.313	0.03
805.613	0.03
805.912	0.03
806.212	0.03
806.511	0.03
806.811	0.03
807.11	0.02
807.41	0.02
807.709	0.02
808.008	0.02
808.307	0.03
808.606	0.03
808.905	0.03
809.204	0.03
809.503	0.03
809.802	0.03
810.101	0.04
810.399	0.04
810.698	0.04
810.997	0.03
811.295	0.03
811.593	0.04
811.892	0.04
812.19	0.04
812.488	0.03
812.786	0.04
813.084	0.04
813.383	0.03
813.68	0.04
813.978	0.04
814.276	0.04
814.574	0.05
814.872	0.05
815.169	0.05
815.467	0.05
815.764	0.04
816.062	0.05
816.359	0.05
816.656	0.04
816.954	0.04
817.251	0.04
817.548	0.05
817.845	0.04
818.142	0.05
818.439	0.03
818.735	0.04
819.032	0.04
819.329	0.04
819.626	0.04
819.922	0.04
820.219	0.05
820.515	0.04
820.811	0.04
821.108	0.03
821.404	0.03
821.7	0.03
821.996	0.04
822.292	0.03
822.588	0.04
822.884	0.04
823.18	0.03
823.475	0.03
823.771	0.03
824.067	0.03
824.362	0.03
824.658	0.03
824.953	0.04
825.249	0.04
825.544	0.03
825.839	0.04
826.134	0.04
826.429	0.04
826.724	0.04
827.019	0.05
827.314	0.05
827.609	0.04
827.904	0.04
828.198	0.04
828.493	0.04
828.787	0.04
829.082	0.04
829.376	0.04
829.671	0.04
829.965	0.04
830.259	0.05
830.553	0.04
830.847	0.03
831.141	0.04
831.435	0.04
831.729	0.04
832.023	0.04
832.317	0.05
832.61	0.05
832.904	0.04
833.197	0.04
833.491	0.05
833.784	0.05
834.077	0.05
834.371	0.05
834.664	0.05
834.957	0.05
835.25	0.04
835.543	0.05
835.836	0.04
836.129	0.04
836.421	0.04
836.714	0.04
837.007	0.05
837.299	0.04
837.592	0.05
837.884	0.05
838.177	0.04
838.469	0.04
838.761	0.04
839.053	0.04
839.345	0.04
839.637	0.04
839.929	0.04
840.221	0.03
840.513	0.04
840.805	0.03
841.096	0.04
841.388	0.04
841.68	0.04
841.971	0.04
842.262	0.04
842.554	0.04
842.845	0.04
843.136	0.04
843.427	0.04
843.718	0.05
844.009	0.05
844.3	0.04
844.591	0.05
844.882	0.05
845.173	0.04
845.463	0.05
845.754	0.06
846.044	0.05
846.335	0.06
846.625	0.05
846.915	0.05
847.206	0.05
847.496	0.05
847.786	0.05
848.076	0.05
848.366	0.05
848.656	0.03
848.945	0.05
849.235	0.04
849.525	0.03
849.814	0.05
850.104	0.04
850.393	0.03
850.683	0.04
850.972	0.04
851.261	0.05
851.551	0.04
851.84	0.04
852.129	0.04
852.418	0.04
852.707	0.04
852.995	0.05
853.284	0.04
853.573	0.05
853.862	0.06
854.15	0.04
854.439	0.04
854.727	0.05
855.015	0.05
855.304	0.04
855.592	0.04
855.88	0.04
856.168	0.04
856.456	0.04
856.744	0.04
857.032	0.05
857.32	0.04
857.607	0.04
857.895	0.04
858.183	0.05
858.47	0.05
858.757	0.04
859.045	0.05
859.332	0.05
859.619	0.03
859.907	0.04
860.194	0.04
860.481	0.03
860.768	0.03
861.054	0.04
861.341	0.04
861.628	0.05
861.915	0.03
862.201	0.04
862.488	0.04
862.774	0.05
863.061	0.01
863.347	0.03
863.633	0.04
863.919	0.03
864.205	0.04
864.491	0.03
864.777	0.03
865.063	0.04
865.349	0.03
865.635	0.02
865.92	0.03
866.206	0.04
866.492	0.03
866.777	0.05
867.062	0.02
867.348	0.02
867.633	0.04
867.918	0.05
868.203	0.05
868.488	0.04
868.773	0.01
869.058	0.02
869.343	0.01
869.628	0.03
869.912	0.01
870.197	0
870.482	0.03
870.766	0.05
871.05	0.04
871.335	0.03
871.619	0.02
871.903	0
872.187	0.03
872.471	0.04
872.755	0.03
873.039	0.04
873.323	0.01
873.607	-0
873.89	0.03
874.174	0.03
874.458	0.02
874.741	0.05
875.024	0.02
875.308	0.03
875.591	0.02
875.874	-0.01
876.157	-0.01
876.44	0.06
876.723	0.07
877.006	0.04
877.289	0.01
877.572	0.07
877.854	0.03
878.137	0.02
878.42	-0.06
878.702	-0.06
878.984	-0.04
879.267	-0
879.549	-0.01
879.831	-0.07
880.113	0.05
880.395	-0.08
880.677	-0.02
880.959	0.03
