Data from Rubpy_EV_600_EDTA_Buffered_Absorbance_13-18-19-027.txt Node
Date: Tue Jun 30 13:18:19 BST 2026
User: fpm-admin
Spectrometer: OFX00224
Trigger mode: 0
Integration Time (sec): 7.000000E-2
Scans to average: 3
Nonlinearity correction enabled: false
Boxcar width: 0
Storing dark spectrum: false
XAxis mode: Wavelengths
Number of Pixels in Spectrum: 2136
>>>>>Begin Spectral Data<<<<<
154.91	-1.05
155.289	0.27
155.669	-0
156.048	-0.3
156.428	-0
156.807	-0
157.186	-0
157.566	-0
157.945	0.69
158.325	0.15
158.704	-0
159.083	-0.43
159.462	-0.81
159.842	-0
160.221	0.66
160.6	0.05
160.979	-0
161.359	0.09
161.738	1.15
162.117	-0.22
162.496	0.19
162.875	0.15
163.254	-0.28
163.633	-1.43
164.012	-0
164.391	-0.27
164.77	0.56
165.149	-0.03
165.528	0.18
165.907	-0
166.286	-0
166.665	-0.24
167.044	-0
167.423	-0
167.802	-0.33
168.181	1.08
168.559	-0.92
168.938	0.09
169.317	-0.08
169.696	-0.51
170.074	-0
170.453	-0.22
170.832	1.18
171.21	-0
171.589	0.42
171.968	-0.4
172.346	0.41
172.725	-0
173.103	-0
173.482	-0
173.861	-0
174.239	0.32
174.617	-0
174.996	0.18
175.374	-0
175.753	-0
176.131	-0
176.51	-0
176.888	0.96
177.266	-0
177.645	0.04
178.023	-0
178.401	-0.16
178.779	-0.15
179.158	-0.27
179.536	0.6
179.914	0.09
180.292	-0
180.67	-0
181.048	-0
181.427	-1.08
181.805	1.48
182.183	-0.95
182.561	-0
182.939	0.36
183.317	0.2
183.695	0.51
184.073	0.01
184.451	-0
184.829	-0.85
185.206	0.46
185.584	-0.43
185.962	-0
186.34	-0
186.718	-0.07
187.096	0.23
187.473	0.01
187.851	-0
188.229	-0.15
188.607	0.11
188.984	0.13
189.362	0.12
189.74	0.32
190.117	0.29
190.495	0.26
190.872	0.25
191.25	0.21
191.627	0.33
192.005	0.24
192.382	0.3
192.76	0.18
193.137	0.46
193.515	0.27
193.892	0.25
194.269	0.18
194.647	0.32
195.024	0.18
195.401	0.22
195.779	0.36
196.156	0.18
196.533	0.27
196.91	0.31
197.288	0.27
197.665	0.26
198.042	0.29
198.419	0.31
198.796	0.26
199.173	0.14
199.55	0.1
199.927	0.21
200.304	0.21
200.681	0.21
201.058	0.17
201.435	0.08
201.812	0.35
202.189	0.27
202.566	0.5
202.943	0.27
203.32	0.2
203.697	0.34
204.073	0.16
204.45	0.12
204.827	0.36
205.204	0.35
205.58	0.17
205.957	0.27
206.334	0.18
206.71	0.16
207.087	0.31
207.464	0.2
207.84	0.25
208.217	0.15
208.593	0.26
208.97	0.24
209.346	0.13
209.723	0.31
210.099	0.3
210.476	0.13
210.852	0.23
211.228	0.26
211.605	0.23
211.981	0.26
212.357	0.12
212.733	0.21
213.11	0.28
213.486	0.17
213.862	0.22
214.238	0.3
214.614	0.32
214.991	0.1
215.367	0.3
215.743	0.15
216.119	0.26
216.495	0.17
216.871	0.24
217.247	0.23
217.623	0.14
217.999	0.26
218.375	0.24
218.751	0.15
219.127	0.2
219.502	0.23
219.878	0.24
220.254	0.22
220.63	0.23
221.006	0.19
221.381	0.21
221.757	0.18
222.133	0.19
222.508	0.2
222.884	0.29
223.26	0.26
223.635	0.31
224.011	0.2
224.386	0.35
224.762	0.13
225.137	0.22
225.513	0.28
225.888	0.21
226.264	0.3
226.639	0.3
227.014	0.23
227.39	0.28
227.765	0.25
228.14	0.23
228.516	0.19
228.891	0.2
229.266	0.26
229.641	0.24
230.017	0.22
230.392	0.24
230.767	0.2
231.142	0.25
231.517	0.19
231.892	0.29
232.267	0.3
232.642	0.39
233.017	0.23
233.392	0.19
233.767	0.25
234.142	0.2
234.517	0.33
234.892	0.18
235.267	0.17
235.641	0.22
236.016	0.2
236.391	0.21
236.766	0.11
237.14	0.26
237.515	0.35
237.89	0.26
238.264	0.26
238.639	0.26
239.014	0.3
239.388	0.18
239.763	0.19
240.137	0.19
240.512	0.32
240.886	0.17
241.261	0.24
241.635	0.21
242.009	0.22
242.384	0.18
242.758	0.25
243.132	0.22
243.507	0.21
243.881	0.17
244.255	0.25
244.629	0.25
245.004	0.22
245.378	0.16
245.752	0.32
246.126	0.23
246.5	0.25
246.874	0.26
247.248	0.22
247.622	0.18
247.996	0.22
248.37	0.23
248.744	0.16
249.118	0.27
249.492	0.28
249.866	0.22
250.24	0.15
250.613	0.2
250.987	0.24
251.361	0.23
251.735	0.19
252.108	0.13
252.482	0.26
252.856	0.12
253.229	0.21
253.603	0.18
253.977	0.32
254.35	0.24
254.724	0.23
255.097	0.19
255.471	0.14
255.844	0.25
256.218	0.27
256.591	0.16
256.964	0.19
257.338	0.26
257.711	0.28
258.084	0.21
258.458	0.26
258.831	0.23
259.204	0.2
259.577	0.23
259.95	0.24
260.323	0.26
260.697	0.27
261.07	0.26
261.443	0.21
261.816	0.23
262.189	0.22
262.562	0.25
262.935	0.3
263.308	0.24
263.68	0.25
264.053	0.2
264.426	0.22
264.799	0.15
265.172	0.25
265.545	0.2
265.917	0.23
266.29	0.26
266.663	0.22
267.035	0.27
267.408	0.26
267.781	0.26
268.153	0.28
268.526	0.25
268.898	0.29
269.271	0.18
269.643	0.21
270.016	0.26
270.388	0.29
270.76	0.2
271.133	0.2
271.505	0.22
271.877	0.25
272.25	0.17
272.622	0.18
272.994	0.25
273.366	0.32
273.739	0.28
274.111	0.17
274.483	0.24
274.855	0.25
275.227	0.28
275.599	0.15
275.971	0.23
276.343	0.22
276.715	0.26
277.087	0.24
277.459	0.26
277.831	0.18
278.203	0.23
278.574	0.27
278.946	0.2
279.318	0.34
279.69	0.23
280.061	0.21
280.433	0.31
280.805	0.28
281.176	0.16
281.548	0.2
281.92	0.2
282.291	0.21
282.663	0.25
283.034	0.19
283.406	0.26
283.777	0.22
284.148	0.28
284.52	0.21
284.891	0.2
285.262	0.27
285.634	0.27
286.005	0.19
286.376	0.24
286.747	0.24
287.119	0.17
287.49	0.24
287.861	0.21
288.232	0.28
288.603	0.18
288.974	0.13
289.345	0.23
289.716	0.2
290.087	0.16
290.458	0.24
290.829	0.18
291.2	0.15
291.571	0.21
291.941	0.23
292.312	0.21
292.683	0.21
293.054	0.19
293.424	0.23
293.795	0.21
294.166	0.22
294.536	0.25
294.907	0.23
295.277	0.21
295.648	0.16
296.018	0.21
296.389	0.2
296.759	0.2
297.13	0.18
297.5	0.15
297.871	0.18
298.241	0.16
298.611	0.15
298.981	0.23
299.352	0.15
299.722	0.19
300.092	0.19
300.462	0.15
300.832	0.18
301.202	0.12
301.573	0.13
301.943	0.14
302.313	0.14
302.683	0.13
303.053	0.13
303.422	0.12
303.792	0.12
304.162	0.15
304.532	0.14
304.902	0.13
305.272	0.14
305.641	0.15
306.011	0.15
306.381	0.15
306.75	0.13
307.12	0.16
307.49	0.15
307.859	0.16
308.229	0.16
308.598	0.16
308.968	0.16
309.337	0.16
309.707	0.16
310.076	0.16
310.445	0.18
310.815	0.18
311.184	0.17
311.553	0.18
311.923	0.17
312.292	0.17
312.661	0.18
313.03	0.18
313.399	0.18
313.768	0.18
314.137	0.17
314.506	0.18
314.875	0.18
315.244	0.18
315.613	0.17
315.982	0.18
316.351	0.18
316.72	0.18
317.089	0.18
317.458	0.18
317.826	0.17
318.195	0.17
318.564	0.17
318.933	0.17
319.301	0.17
319.67	0.17
320.038	0.16
320.407	0.17
320.775	0.16
321.144	0.16
321.512	0.16
321.881	0.16
322.249	0.16
322.618	0.15
322.986	0.15
323.354	0.15
323.723	0.15
324.091	0.14
324.459	0.15
324.827	0.14
325.195	0.15
325.564	0.14
325.932	0.15
326.3	0.14
326.668	0.14
327.036	0.15
327.404	0.14
327.772	0.14
328.14	0.15
328.508	0.14
328.875	0.14
329.243	0.14
329.611	0.14
329.979	0.14
330.346	0.15
330.714	0.15
331.082	0.14
331.449	0.15
331.817	0.15
332.185	0.15
332.552	0.15
332.92	0.15
333.287	0.16
333.655	0.15
334.022	0.15
334.389	0.16
334.757	0.15
335.124	0.16
335.491	0.16
335.859	0.16
336.226	0.16
336.593	0.17
336.96	0.17
337.327	0.17
337.695	0.18
338.062	0.17
338.429	0.18
338.796	0.18
339.163	0.18
339.53	0.19
339.897	0.19
340.263	0.19
340.63	0.19
340.997	0.2
341.364	0.2
341.731	0.2
342.097	0.21
342.464	0.21
342.831	0.21
343.197	0.21
343.564	0.22
343.931	0.22
344.297	0.22
344.664	0.23
345.03	0.23
345.396	0.23
345.763	0.24
346.129	0.24
346.496	0.25
346.862	0.25
347.228	0.25
347.594	0.26
347.961	0.26
348.327	0.27
348.693	0.26
349.059	0.27
349.425	0.28
349.791	0.28
350.157	0.28
350.523	0.29
350.889	0.3
351.255	0.3
351.621	0.31
351.987	0.31
352.353	0.32
352.719	0.33
353.084	0.33
353.45	0.34
353.816	0.34
354.181	0.36
354.547	0.36
354.913	0.37
355.278	0.38
355.644	0.38
356.009	0.39
356.375	0.39
356.74	0.41
357.106	0.41
357.471	0.43
357.836	0.43
358.202	0.44
358.567	0.45
358.932	0.46
359.297	0.47
359.663	0.48
360.028	0.49
360.393	0.48
360.758	0.49
361.123	0.5
361.488	0.5
361.853	0.51
362.218	0.52
362.583	0.52
362.948	0.53
363.312	0.53
363.677	0.54
364.042	0.56
364.407	0.56
364.772	0.57
365.136	0.58
365.501	0.59
365.865	0.61
366.23	0.62
366.595	0.63
366.959	0.64
367.324	0.65
367.688	0.67
368.052	0.68
368.417	0.69
368.781	0.7
369.145	0.72
369.51	0.71
369.874	0.73
370.238	0.72
370.602	0.72
370.967	0.72
371.331	0.72
371.695	0.71
372.059	0.72
372.423	0.71
372.787	0.7
373.151	0.71
373.515	0.7
373.878	0.71
374.242	0.7
374.606	0.7
374.97	0.7
375.334	0.7
375.697	0.7
376.061	0.71
376.425	0.72
376.788	0.72
377.152	0.73
377.515	0.73
377.879	0.74
378.242	0.74
378.606	0.75
378.969	0.76
379.333	0.76
379.696	0.78
380.059	0.79
380.422	0.81
380.786	0.82
381.149	0.83
381.512	0.85
381.875	0.86
382.238	0.89
382.601	0.91
382.964	0.93
383.327	0.97
383.69	0.98
384.053	1.01
384.416	1.03
384.779	1.05
385.142	1.08
385.504	1.09
385.867	1.11
386.23	1.12
386.593	1.14
386.955	1.13
387.318	1.13
387.68	1.13
388.043	1.13
388.405	1.13
388.768	1.11
389.13	1.1
389.493	1.09
389.855	1.08
390.217	1.08
390.58	1.07
390.942	1.09
391.304	1.09
391.666	1.1
392.028	1.12
392.391	1.15
392.753	1.16
393.115	1.21
393.477	1.26
393.839	1.29
394.201	1.33
394.563	1.4
394.924	1.43
395.286	1.48
395.648	1.53
396.01	1.57
396.371	1.58
396.733	1.61
397.095	1.67
397.456	1.66
397.818	1.65
398.18	1.65
398.541	1.64
398.903	1.58
399.264	1.58
399.625	1.53
399.987	1.48
400.348	1.42
400.709	1.37
401.071	1.31
401.432	1.23
401.793	1.15
402.154	1.09
402.515	1.01
402.876	0.94
403.238	0.88
403.599	0.82
403.96	0.76
404.32	0.7
404.681	0.66
405.042	0.61
405.403	0.57
405.764	0.53
406.125	0.49
406.485	0.46
406.846	0.43
407.207	0.41
407.567	0.38
407.928	0.36
408.288	0.34
408.649	0.31
409.009	0.3
409.37	0.29
409.73	0.27
410.091	0.26
410.451	0.25
410.811	0.24
411.171	0.23
411.532	0.21
411.892	0.21
412.252	0.2
412.612	0.19
412.972	0.19
413.332	0.17
413.692	0.17
414.052	0.16
414.412	0.15
414.772	0.15
415.132	0.15
415.492	0.15
415.851	0.14
416.211	0.14
416.571	0.13
416.931	0.13
417.29	0.13
417.65	0.11
418.009	0.12
418.369	0.11
418.728	0.12
419.088	0.11
419.447	0.12
419.807	0.11
420.166	0.11
420.525	0.1
420.884	0.1
421.244	0.1
421.603	0.1
421.962	0.1
422.321	0.1
422.68	0.1
423.039	0.09
423.398	0.09
423.757	0.1
424.116	0.09
424.475	0.09
424.834	0.09
425.193	0.09
425.551	0.09
425.91	0.08
426.269	0.08
426.628	0.08
426.986	0.08
427.345	0.08
427.703	0.08
428.062	0.07
428.42	0.08
428.779	0.08
429.137	0.08
429.496	0.07
429.854	0.08
430.212	0.07
430.57	0.07
430.929	0.08
431.287	0.08
431.645	0.07
432.003	0.08
432.361	0.08
432.719	0.07
433.077	0.07
433.435	0.07
433.793	0.07
434.151	0.06
434.509	0.07
434.866	0.07
435.224	0.07
435.582	0.06
435.94	0.06
436.297	0.07
436.655	0.06
437.012	0.06
437.37	0.06
437.727	0.07
438.085	0.06
438.442	0.06
438.8	0.06
439.157	0.05
439.514	0.06
439.872	0.07
440.229	0.06
440.586	0.05
440.943	0.06
441.3	0.06
441.657	0.06
442.014	0.06
442.371	0.06
442.728	0.06
443.085	0.06
443.442	0.06
443.799	0.05
444.156	0.05
444.513	0.05
444.869	0.06
445.226	0.06
445.583	0.05
445.939	0.05
446.296	0.04
446.652	0.05
447.009	0.05
447.365	0.06
447.722	0.05
448.078	0.05
448.434	0.05
448.791	0.05
449.147	0.05
449.503	0.04
449.859	0.05
450.215	0.04
450.571	0.04
450.928	0.04
451.284	0.05
451.64	0.04
451.995	0.04
452.351	0.04
452.707	0.04
453.063	0.04
453.419	0.04
453.775	0.03
454.13	0.05
454.486	0.05
454.842	0.03
455.197	0.04
455.553	0.04
455.908	0.03
456.264	0.04
456.619	0.03
456.975	0.03
457.33	0.03
457.685	0.03
458.04	0.03
458.396	0.03
458.751	0.04
459.106	0.02
459.461	0.03
459.816	0.03
460.171	0.04
460.526	0.04
460.881	0.03
461.236	0.02
461.591	0.03
461.946	0.02
462.301	0.03
462.655	0.02
463.01	0.02
463.365	0.02
463.719	0.01
464.074	0.02
464.428	0.01
464.783	0.02
465.137	0.01
465.492	0.02
465.846	0.01
466.201	0.01
466.555	0.02
466.909	0.01
467.263	0.03
467.618	0.01
467.972	0.02
468.326	0.01
468.68	0.02
469.034	0.01
469.388	0.02
469.742	0.01
470.096	0.02
470.45	0.02
470.804	0.01
471.157	0.02
471.511	0.02
471.865	0.02
472.218	0.02
472.572	0.01
472.926	0.02
473.279	0.02
473.633	0.02
473.986	0.03
474.34	0.02
474.693	0.03
475.046	0.03
475.4	0.03
475.753	0.03
476.106	0.04
476.459	0.04
476.812	0.04
477.165	0.05
477.519	0.04
477.872	0.04
478.224	0.04
478.577	0.05
478.93	0.05
479.283	0.05
479.636	0.05
479.989	0.05
480.341	0.05
480.694	0.06
481.047	0.05
481.399	0.06
481.752	0.06
482.104	0.06
482.457	0.06
482.809	0.06
483.162	0.07
483.514	0.07
483.866	0.06
484.219	0.06
484.571	0.06
484.923	0.07
485.275	0.07
485.627	0.07
485.979	0.07
486.331	0.07
486.683	0.08
487.035	0.07
487.387	0.08
487.739	0.08
488.091	0.08
488.443	0.08
488.794	0.08
489.146	0.08
489.498	0.08
489.849	0.08
490.201	0.08
490.552	0.08
490.904	0.08
491.255	0.08
491.607	0.09
491.958	0.09
492.309	0.09
492.661	0.09
493.012	0.09
493.363	0.09
493.714	0.09
494.065	0.09
494.416	0.1
494.767	0.1
495.118	0.1
495.469	0.11
495.82	0.1
496.171	0.1
496.522	0.11
496.872	0.11
497.223	0.11
497.574	0.11
497.924	0.11
498.275	0.11
498.626	0.12
498.976	0.11
499.327	0.11
499.677	0.11
500.027	0.12
500.378	0.12
500.728	0.12
501.078	0.12
501.428	0.12
501.779	0.13
502.129	0.13
502.479	0.13
502.829	0.13
503.179	0.13
503.529	0.13
503.879	0.13
504.229	0.14
504.578	0.13
504.928	0.14
505.278	0.14
505.628	0.14
505.977	0.14
506.327	0.14
506.676	0.15
507.026	0.14
507.375	0.15
507.725	0.16
508.074	0.15
508.424	0.15
508.773	0.16
509.122	0.15
509.471	0.16
509.82	0.16
510.17	0.16
510.519	0.16
510.868	0.16
511.217	0.16
511.566	0.16
511.915	0.17
512.263	0.17
512.612	0.17
512.961	0.17
513.31	0.18
513.659	0.18
514.007	0.17
514.356	0.18
514.704	0.18
515.053	0.18
515.401	0.18
515.75	0.19
516.098	0.18
516.447	0.19
516.795	0.19
517.143	0.19
517.491	0.19
517.839	0.2
518.188	0.2
518.536	0.19
518.884	0.2
519.232	0.2
519.58	0.2
519.928	0.21
520.275	0.2
520.623	0.21
520.971	0.21
521.319	0.21
521.666	0.21
522.014	0.21
522.362	0.22
522.709	0.22
523.057	0.22
523.404	0.22
523.752	0.22
524.099	0.22
524.446	0.23
524.794	0.23
525.141	0.23
525.488	0.23
525.835	0.23
526.182	0.23
526.529	0.24
526.876	0.24
527.223	0.24
527.57	0.24
527.917	0.25
528.264	0.24
528.611	0.24
528.958	0.25
529.304	0.25
529.651	0.25
529.998	0.25
530.344	0.25
530.691	0.26
531.037	0.26
531.384	0.26
531.73	0.26
532.076	0.27
532.423	0.27
532.769	0.26
533.115	0.27
533.461	0.27
533.807	0.27
534.154	0.27
534.5	0.27
534.846	0.28
535.192	0.28
535.537	0.28
535.883	0.28
536.229	0.29
536.575	0.29
536.921	0.29
537.266	0.29
537.612	0.29
537.957	0.3
538.303	0.3
538.649	0.3
538.994	0.31
539.339	0.3
539.685	0.31
540.03	0.31
540.375	0.31
540.721	0.32
541.066	0.32
541.411	0.32
541.756	0.32
542.101	0.33
542.446	0.33
542.791	0.33
543.136	0.33
543.481	0.33
543.825	0.34
544.17	0.34
544.515	0.34
544.86	0.34
545.204	0.34
545.549	0.34
545.893	0.35
546.238	0.35
546.582	0.35
546.927	0.36
547.271	0.36
547.615	0.36
547.96	0.36
548.304	0.37
548.648	0.37
548.992	0.37
549.336	0.37
549.68	0.37
550.024	0.38
550.368	0.38
550.712	0.38
551.056	0.38
551.4	0.39
551.743	0.38
552.087	0.38
552.431	0.39
552.774	0.39
553.118	0.4
553.462	0.4
553.805	0.4
554.148	0.4
554.492	0.4
554.835	0.4
555.178	0.4
555.522	0.41
555.865	0.4
556.208	0.41
556.551	0.41
556.894	0.41
557.237	0.41
557.58	0.41
557.923	0.41
558.266	0.41
558.609	0.41
558.952	0.42
559.294	0.42
559.637	0.42
559.98	0.42
560.322	0.42
560.665	0.42
561.007	0.42
561.35	0.42
561.692	0.43
562.034	0.43
562.377	0.42
562.719	0.43
563.061	0.43
563.403	0.43
563.745	0.43
564.088	0.43
564.43	0.44
564.772	0.43
565.113	0.44
565.455	0.44
565.797	0.44
566.139	0.44
566.481	0.43
566.822	0.44
567.164	0.44
567.506	0.44
567.847	0.44
568.189	0.44
568.53	0.44
568.872	0.44
569.213	0.45
569.554	0.45
569.895	0.45
570.237	0.45
570.578	0.44
570.919	0.44
571.26	0.45
571.601	0.45
571.942	0.45
572.283	0.45
572.624	0.45
572.965	0.45
573.306	0.45
573.646	0.45
573.987	0.45
574.328	0.45
574.668	0.45
575.009	0.45
575.349	0.45
575.69	0.45
576.03	0.45
576.37	0.45
576.711	0.44
577.051	0.44
577.391	0.44
577.731	0.45
578.072	0.45
578.412	0.45
578.752	0.45
579.092	0.45
579.431	0.45
579.771	0.44
580.111	0.44
580.451	0.44
580.791	0.44
581.13	0.45
581.47	0.45
581.81	0.45
582.149	0.45
582.489	0.46
582.828	0.46
583.167	0.45
583.507	0.43
583.846	0.41
584.185	0.42
584.525	0.44
584.864	0.45
585.203	0.46
585.542	0.46
585.881	0.46
586.22	0.47
586.559	0.47
586.898	0.47
587.236	0.46
587.575	0.46
587.914	0.47
588.252	0.47
588.591	0.47
588.93	0.48
589.268	0.48
589.607	0.48
589.945	0.48
590.283	0.48
590.622	0.49
590.96	0.49
591.298	0.49
591.636	0.5
591.974	0.5
592.313	0.5
592.651	0.51
592.989	0.5
593.326	0.51
593.664	0.51
594.002	0.51
594.34	0.52
594.678	0.52
595.015	0.52
595.353	0.51
595.691	0.51
596.028	0.52
596.366	0.52
596.703	0.53
597.04	0.53
597.378	0.53
597.715	0.53
598.052	0.54
598.389	0.54
598.726	0.55
599.064	0.55
599.401	0.55
599.738	0.55
600.074	0.55
600.411	0.55
600.748	0.55
601.085	0.55
601.422	0.55
601.758	0.55
602.095	0.55
602.432	0.55
602.768	0.54
603.105	0.55
603.441	0.55
603.777	0.55
604.114	0.55
604.45	0.55
604.786	0.56
605.122	0.55
605.459	0.56
605.795	0.55
606.131	0.55
606.467	0.55
606.803	0.55
607.139	0.55
607.474	0.55
607.81	0.54
608.146	0.55
608.482	0.55
608.817	0.54
609.153	0.55
609.488	0.54
609.824	0.54
610.159	0.54
610.495	0.54
610.83	0.54
611.165	0.54
611.5	0.54
611.836	0.54
612.171	0.54
612.506	0.54
612.841	0.54
613.176	0.53
613.511	0.53
613.845	0.53
614.18	0.53
614.515	0.53
614.85	0.53
615.184	0.53
615.519	0.53
615.854	0.52
616.188	0.52
616.523	0.52
616.857	0.52
617.191	0.51
617.526	0.51
617.86	0.51
618.194	0.51
618.528	0.51
618.862	0.52
619.196	0.51
619.53	0.51
619.864	0.51
620.198	0.51
620.532	0.5
620.866	0.51
621.2	0.5
621.533	0.5
621.867	0.5
622.201	0.5
622.534	0.5
622.868	0.49
623.201	0.5
623.534	0.49
623.868	0.49
624.201	0.49
624.534	0.49
624.868	0.48
625.201	0.48
625.534	0.48
625.867	0.48
626.2	0.48
626.533	0.48
626.865	0.48
627.198	0.47
627.531	0.47
627.864	0.47
628.196	0.47
628.529	0.46
628.862	0.47
629.194	0.46
629.527	0.46
629.859	0.45
630.191	0.45
630.524	0.45
630.856	0.45
631.188	0.44
631.52	0.44
631.852	0.44
632.184	0.43
632.516	0.43
632.848	0.43
633.18	0.43
633.512	0.42
633.844	0.42
634.175	0.42
634.507	0.41
634.839	0.41
635.17	0.41
635.502	0.4
635.833	0.4
636.165	0.4
636.496	0.4
636.827	0.4
637.159	0.4
637.49	0.39
637.821	0.39
638.152	0.38
638.483	0.38
638.814	0.38
639.145	0.38
639.476	0.38
639.807	0.37
640.137	0.37
640.468	0.37
640.799	0.36
641.129	0.37
641.46	0.37
641.791	0.36
642.121	0.36
642.451	0.35
642.782	0.35
643.112	0.35
643.442	0.34
643.773	0.34
644.103	0.34
644.433	0.34
644.763	0.33
645.093	0.33
645.423	0.33
645.753	0.32
646.082	0.32
646.412	0.32
646.742	0.32
647.072	0.32
647.401	0.32
647.731	0.32
648.06	0.32
648.39	0.32
648.719	0.32
649.048	0.32
649.378	0.32
649.707	0.31
650.036	0.31
650.365	0.31
650.694	0.31
651.023	0.31
651.352	0.31
651.681	0.31
652.01	0.31
652.339	0.3
652.668	0.31
652.996	0.3
653.325	0.3
653.654	0.31
653.982	0.31
654.311	0.3
654.639	0.31
654.967	0.31
655.296	0.3
655.624	0.31
655.952	0.3
656.28	0.3
656.609	0.3
656.937	0.3
657.265	0.31
657.593	0.3
657.92	0.17
658.248	0.1
658.576	0.08
658.904	0.14
659.231	0.23
659.559	0.28
659.887	0.29
660.214	0.29
660.542	0.29
660.869	0.3
661.196	0.3
661.524	0.29
661.851	0.3
662.178	0.3
662.505	0.29
662.832	0.3
663.159	0.3
663.486	0.29
663.813	0.3
664.14	0.3
664.467	0.29
664.794	0.29
665.12	0.29
665.447	0.29
665.774	0.29
666.1	0.29
666.427	0.29
666.753	0.29
667.079	0.29
667.406	0.29
667.732	0.29
668.058	0.28
668.384	0.28
668.71	0.29
669.036	0.28
669.362	0.28
669.688	0.28
670.014	0.28
670.34	0.29
670.666	0.28
670.991	0.28
671.317	0.28
671.643	0.27
671.968	0.27
672.294	0.27
672.619	0.27
672.945	0.26
673.27	0.26
673.595	0.26
673.92	0.26
674.246	0.26
674.571	0.25
674.896	0.26
675.221	0.26
675.546	0.26
675.87	0.26
676.195	0.25
676.52	0.25
676.845	0.25
677.169	0.25
677.494	0.25
677.819	0.25
678.143	0.25
678.468	0.24
678.792	0.24
679.116	0.24
679.44	0.24
679.765	0.23
680.089	0.23
680.413	0.23
680.737	0.23
681.061	0.22
681.385	0.22
681.709	0.22
682.033	0.22
682.356	0.21
682.68	0.21
683.004	0.21
683.327	0.21
683.651	0.2
683.974	0.2
684.298	0.2
684.621	0.2
684.944	0.2
685.268	0.2
685.591	0.2
685.914	0.2
686.237	0.2
686.56	0.19
686.883	0.19
687.206	0.19
687.529	0.19
687.852	0.18
688.175	0.18
688.497	0.18
688.82	0.18
689.142	0.18
689.465	0.17
689.787	0.17
690.11	0.17
690.432	0.17
690.755	0.17
691.077	0.16
691.399	0.16
691.721	0.16
692.043	0.16
692.365	0.16
692.687	0.16
693.009	0.16
693.331	0.16
693.653	0.15
693.974	0.15
694.296	0.15
694.618	0.15
694.939	0.15
695.261	0.15
695.582	0.14
695.904	0.14
696.225	0.14
696.546	0.14
696.868	0.14
697.189	0.14
697.51	0.14
697.831	0.14
698.152	0.13
698.473	0.14
698.794	0.13
699.114	0.13
699.435	0.13
699.756	0.13
700.077	0.13
700.397	0.13
700.718	0.13
701.038	0.13
701.359	0.13
701.679	0.13
701.999	0.13
702.32	0.13
702.64	0.12
702.96	0.12
703.28	0.12
703.6	0.12
703.92	0.12
704.24	0.12
704.56	0.12
704.879	0.11
705.199	0.11
705.519	0.11
705.838	0.11
706.158	0.11
706.478	0.11
706.797	0.11
707.116	0.11
707.436	0.11
707.755	0.11
708.074	0.11
708.393	0.11
708.712	0.11
709.031	0.1
709.35	0.11
709.669	0.1
709.988	0.1
710.307	0.1
710.626	0.1
710.944	0.11
711.263	0.1
711.582	0.1
711.9	0.1
712.219	0.11
712.537	0.11
712.855	0.11
713.174	0.11
713.492	0.1
713.81	0.1
714.128	0.11
714.446	0.11
714.764	0.11
715.082	0.11
715.4	0.11
715.718	0.11
716.035	0.1
716.353	0.11
716.671	0.11
716.988	0.11
717.306	0.11
717.623	0.11
717.941	0.11
718.258	0.11
718.575	0.11
718.893	0.12
719.21	0.11
719.527	0.11
719.844	0.12
720.161	0.11
720.478	0.12
720.795	0.11
721.112	0.11
721.428	0.12
721.745	0.11
722.062	0.11
722.378	0.11
722.695	0.12
723.011	0.12
723.328	0.11
723.644	0.12
723.96	0.12
724.276	0.12
724.593	0.12
724.909	0.12
725.225	0.12
725.541	0.12
725.857	0.12
726.173	0.12
726.488	0.12
726.804	0.12
727.12	0.12
727.435	0.11
727.751	0.12
728.067	0.12
728.382	0.12
728.697	0.12
729.013	0.12
729.328	0.12
729.643	0.12
729.958	0.12
730.273	0.12
730.588	0.12
730.903	0.12
731.218	0.12
731.533	0.12
731.848	0.12
732.163	0.12
732.477	0.12
732.792	0.11
733.107	0.11
733.421	0.11
733.736	0.11
734.05	0.11
734.364	0.11
734.678	0.12
734.993	0.12
735.307	0.12
735.621	0.11
735.935	0.12
736.249	0.12
736.563	0.12
736.877	0.11
737.19	0.12
737.504	0.12
737.818	0.12
738.131	0.12
738.445	0.11
738.758	0.11
739.072	0.11
739.385	0.11
739.698	0.11
740.012	0.11
740.325	0.11
740.638	0.11
740.951	0.1
741.264	0.1
741.577	0.11
741.89	0.11
742.203	0.11
742.515	0.11
742.828	0.11
743.141	0.11
743.453	0.1
743.766	0.1
744.078	0.1
744.391	0.1
744.703	0.1
745.015	0.1
745.327	0.1
745.639	0.09
745.952	0.09
746.264	0.09
746.575	0.09
746.887	0.09
747.199	0.1
747.511	0.09
747.823	0.09
748.134	0.09
748.446	0.09
748.757	0.09
749.069	0.09
749.38	0.09
749.692	0.09
750.003	0.09
750.314	0.09
750.625	0.09
750.936	0.09
751.248	0.09
751.559	0.09
751.869	0.09
752.18	0.09
752.491	0.08
752.802	0.08
753.112	0.08
753.423	0.08
753.734	0.08
754.044	0.08
754.355	0.07
754.665	0.07
754.975	0.07
755.285	0.07
755.596	0.07
755.906	0.07
756.216	0.07
756.526	0.07
756.836	0.07
757.146	0.07
757.455	0.07
757.765	0.07
758.075	0.07
758.385	0.07
758.694	0.06
759.004	0.06
759.313	0.06
759.622	0.06
759.932	0.06
760.241	0.06
760.55	0.06
760.859	0.06
761.168	0.06
761.477	0.06
761.786	0.06
762.095	0.06
762.404	0.06
762.713	0.06
763.021	0.06
763.33	0.06
763.639	0.06
763.947	0.06
764.256	0.06
764.564	0.06
764.872	0.06
765.181	0.06
765.489	0.06
765.797	0.06
766.105	0.05
766.413	0.05
766.721	0.05
767.029	0.05
767.337	0.05
767.644	0.05
767.952	0.05
768.26	0.05
768.567	0.05
768.875	0.05
769.182	0.05
769.49	0.05
769.797	0.05
770.104	0.05
770.411	0.05
770.718	0.05
771.026	0.05
771.333	0.04
771.639	0.04
771.946	0.04
772.253	0.05
772.56	0.04
772.867	0.05
773.173	0.05
773.48	0.05
773.786	0.05
774.093	0.04
774.399	0.04
774.705	0.04
775.012	0.04
775.318	0.04
775.624	0.04
775.93	0.03
776.236	0.04
776.542	0.04
776.848	0.04
777.154	0.04
777.459	0.04
777.765	0.04
778.071	0.04
778.376	0.04
778.682	0.05
778.987	0.05
779.292	0.05
779.598	0.05
779.903	0.05
780.208	0.05
780.513	0.04
780.818	0.04
781.123	0.04
781.428	0.04
781.733	0.04
782.038	0.04
782.343	0.05
782.647	0.05
782.952	0.05
783.256	0.05
783.561	0.04
783.865	0.04
784.17	0.04
784.474	0.04
784.778	0.04
785.082	0.04
785.386	0.04
785.69	0.04
785.994	0.04
786.298	0.04
786.602	0.04
786.906	0.04
787.209	0.04
787.513	0.04
787.817	0.04
788.12	0.03
788.424	0.03
788.727	0.03
789.03	0.04
789.333	0.04
789.637	0.04
789.94	0.04
790.243	0.04
790.546	0.04
790.849	0.03
791.152	0.03
791.454	0.03
791.757	0.03
792.06	0.03
792.362	0.03
792.665	0.03
792.967	0.04
793.27	0.04
793.572	0.04
793.874	0.04
794.177	0.04
794.479	0.04
794.781	0.04
795.083	0.04
795.385	0.04
795.687	0.04
795.989	0.04
796.29	0.04
796.592	0.04
796.894	0.04
797.195	0.04
797.497	0.04
797.798	0.04
798.1	0.04
798.401	0.04
798.702	0.05
799.003	0.05
799.304	0.04
799.605	0.04
799.906	0.04
800.207	0.04
800.508	0.04
800.809	0.04
801.11	0.04
801.41	0.04
801.711	0.04
802.011	0.04
802.312	0.04
802.612	0.04
802.913	0.05
803.213	0.05
803.513	0.04
803.813	0.05
804.113	0.05
804.413	0.05
804.713	0.04
805.013	0.04
805.313	0.04
805.613	0.04
805.912	0.04
806.212	0.04
806.511	0.03
806.811	0.04
807.11	0.03
807.41	0.04
807.709	0.04
808.008	0.03
808.307	0.03
808.606	0.04
808.905	0.04
809.204	0.04
809.503	0.04
809.802	0.04
810.101	0.04
810.399	0.05
810.698	0.04
810.997	0.04
811.295	0.04
811.593	0.05
811.892	0.05
812.19	0.05
812.488	0.04
812.786	0.05
813.084	0.05
813.383	0.04
813.68	0.05
813.978	0.04
814.276	0.05
814.574	0.05
814.872	0.05
815.169	0.05
815.467	0.05
815.764	0.05
816.062	0.05
816.359	0.04
816.656	0.05
816.954	0.04
817.251	0.04
817.548	0.05
817.845	0.05
818.142	0.05
818.439	0.04
818.735	0.04
819.032	0.04
819.329	0.04
819.626	0.04
819.922	0.05
820.219	0.05
820.515	0.05
820.811	0.05
821.108	0.04
821.404	0.05
821.7	0.04
821.996	0.04
822.292	0.04
822.588	0.04
822.884	0.05
823.18	0.04
823.475	0.04
823.771	0.04
824.067	0.04
824.362	0.04
824.658	0.04
824.953	0.04
825.249	0.05
825.544	0.04
825.839	0.05
826.134	0.04
826.429	0.04
826.724	0.05
827.019	0.05
827.314	0.05
827.609	0.05
827.904	0.04
828.198	0.05
828.493	0.05
828.787	0.04
829.082	0.04
829.376	0.05
829.671	0.05
829.965	0.05
830.259	0.06
830.553	0.05
830.847	0.05
831.141	0.05
831.435	0.05
831.729	0.05
832.023	0.05
832.317	0.06
832.61	0.06
832.904	0.06
833.197	0.06
833.491	0.06
833.784	0.06
834.077	0.06
834.371	0.06
834.664	0.06
834.957	0.06
835.25	0.06
835.543	0.06
835.836	0.06
836.129	0.06
836.421	0.05
836.714	0.06
837.007	0.05
837.299	0.05
837.592	0.06
837.884	0.05
838.177	0.05
838.469	0.05
838.761	0.05
839.053	0.05
839.345	0.05
839.637	0.04
839.929	0.05
840.221	0.05
840.513	0.05
840.805	0.05
841.096	0.06
841.388	0.05
841.68	0.05
841.971	0.06
842.262	0.04
842.554	0.05
842.845	0.05
843.136	0.05
843.427	0.05
843.718	0.05
844.009	0.06
844.3	0.05
844.591	0.06
844.882	0.06
845.173	0.05
845.463	0.06
845.754	0.07
846.044	0.07
846.335	0.07
846.625	0.07
846.915	0.06
847.206	0.06
847.496	0.06
847.786	0.06
848.076	0.06
848.366	0.05
848.656	0.05
848.945	0.05
849.235	0.06
849.525	0.04
849.814	0.05
850.104	0.05
850.393	0.04
850.683	0.05
850.972	0.05
851.261	0.05
851.551	0.06
851.84	0.06
852.129	0.05
852.418	0.04
852.707	0.04
852.995	0.05
853.284	0.05
853.573	0.05
853.862	0.07
854.15	0.05
854.439	0.05
854.727	0.06
855.015	0.07
855.304	0.05
855.592	0.05
855.88	0.04
856.168	0.05
856.456	0.06
856.744	0.06
857.032	0.05
857.32	0.05
857.607	0.05
857.895	0.05
858.183	0.06
858.47	0.05
858.757	0.04
859.045	0.07
859.332	0.06
859.619	0.04
859.907	0.06
860.194	0.05
860.481	0.06
860.768	0.05
861.054	0.05
861.341	0.07
861.628	0.07
861.915	0.06
862.201	0.05
862.488	0.06
862.774	0.06
863.061	0.05
863.347	0.05
863.633	0.05
863.919	0.04
864.205	0.05
864.491	0.06
864.777	0.05
865.063	0.05
865.349	0.06
865.635	0.03
865.92	0.04
866.206	0.09
866.492	0.05
866.777	0.06
867.062	0.05
867.348	0.04
867.633	0.06
867.918	0.03
868.203	0.08
868.488	0.03
868.773	0.01
869.058	0.03
869.343	0.03
869.628	0.05
869.912	0.02
870.197	0.04
870.482	0.05
870.766	0.07
871.05	0.06
871.335	0.05
871.619	0.03
871.903	0.04
872.187	0.06
872.471	0.02
872.755	0.06
873.039	0.02
873.323	0.08
873.607	0.05
873.89	0.07
874.174	0.07
874.458	0.02
874.741	0.07
875.024	0.03
875.308	0.04
875.591	0.01
875.874	-0.01
876.157	0.02
876.44	0.09
876.723	0.04
877.006	0.04
877.289	0.06
877.572	0.11
877.854	0.02
878.137	0.04
878.42	0.09
878.702	-0
878.984	0.05
879.267	0
879.549	0.05
879.831	0.06
880.113	0.01
880.395	0.04
880.677	0.05
880.959	0.03
