Data from Rubpy_EV_600_EDTA_Buffered_Absorbance_12-55-16-114.txt Node
Date: Tue Jun 30 12:55:16 BST 2026
User: fpm-admin
Spectrometer: OFX00224
Trigger mode: 0
Integration Time (sec): 7.000000E-2
Scans to average: 3
Nonlinearity correction enabled: false
Boxcar width: 0
Storing dark spectrum: false
XAxis mode: Wavelengths
Number of Pixels in Spectrum: 2136
>>>>>Begin Spectral Data<<<<<
154.91	-0.73
155.289	1.08
155.669	-0
156.048	-0.36
156.428	-0
156.807	0.22
157.186	-0.19
157.566	-0
157.945	-0
158.325	-0
158.704	-0
159.083	-0.73
159.462	-0.4
159.842	0.48
160.221	-0
160.6	0.44
160.979	-0.06
161.359	-0
161.738	-0
162.117	-0.72
162.496	-0.23
162.875	0.19
163.254	-0.11
163.633	-1.26
164.012	-0
164.391	-0.3
164.77	-0
165.149	-0
165.528	0.27
165.907	-0
166.286	-0
166.665	-0.25
167.044	-0
167.423	0.32
167.802	-0.36
168.181	0.84
168.559	-0.6
168.938	-0
169.317	-0.03
169.696	-0.36
170.074	-0
170.453	1.08
170.832	0.57
171.21	-0
171.589	0.08
171.968	-0
172.346	0.71
172.725	-0
173.103	-0
173.482	-0
173.861	0.88
174.239	-0.26
174.617	-0
174.996	-0
175.374	-0
175.753	-0
176.131	-0
176.51	-0.56
176.888	0.38
177.266	-0
177.645	-0.05
178.023	-0
178.401	-0.13
178.779	-0.02
179.158	0.05
179.536	-0
179.914	1.11
180.292	-0
180.67	-0
181.048	-0
181.427	-0.95
181.805	-0
182.183	0.18
182.561	-0
182.939	1.17
183.317	0.24
183.695	0.18
184.073	-0.1
184.451	-0
184.829	-1.04
185.206	-0
185.584	-0.27
185.962	-0
186.34	0.28
186.718	-0.32
187.096	0.34
187.473	-0.13
187.851	0.6
188.229	-0.32
188.607	0.09
188.984	0.06
189.362	0.11
189.74	0.16
190.117	0.11
190.495	0.09
190.872	0.08
191.25	0.11
191.627	0.04
192.005	0.04
192.382	0.16
192.76	0.1
193.137	0.26
193.515	0.14
193.892	0.14
194.269	0.05
194.647	0.09
195.024	0.06
195.401	0.14
195.779	0.1
196.156	0.18
196.533	0.1
196.91	0.15
197.288	0.09
197.665	-0.03
198.042	0.09
198.419	0.08
198.796	0.14
199.173	0.13
199.55	0.07
199.927	0.05
200.304	0.17
200.681	0.25
201.058	0.02
201.435	0.07
201.812	0.06
202.189	0.18
202.566	0.16
202.943	0.13
203.32	0.16
203.697	0.18
204.073	-0.01
204.45	0.09
204.827	0.19
205.204	0.1
205.58	0.14
205.957	0.09
206.334	0.14
206.71	0.04
207.087	0.14
207.464	0.08
207.84	0.19
208.217	0.06
208.593	0.24
208.97	0.3
209.346	0.05
209.723	0.14
210.099	0.08
210.476	0.08
210.852	0.16
211.228	0.12
211.605	0.09
211.981	0.25
212.357	0.1
212.733	0.13
213.11	0.17
213.486	0.09
213.862	0.06
214.238	0.19
214.614	0.16
214.991	0.15
215.367	0.25
215.743	0.09
216.119	0.14
216.495	0.01
216.871	0.13
217.247	0.12
217.623	0.06
217.999	0.06
218.375	0.1
218.751	0.11
219.127	0.12
219.502	0.11
219.878	0.16
220.254	0.14
220.63	0.16
221.006	0.06
221.381	0.14
221.757	0.11
222.133	0.2
222.508	0.11
222.884	0.13
223.26	0.14
223.635	0.08
224.011	0.12
224.386	0.12
224.762	0.02
225.137	0.09
225.513	0.09
225.888	0.05
226.264	0.1
226.639	0.23
227.014	0.21
227.39	0.18
227.765	0.17
228.14	0.04
228.516	0.17
228.891	0.09
229.266	0.19
229.641	0.18
230.017	0.19
230.392	0.2
230.767	0.11
231.142	0.09
231.517	0.15
231.892	0.16
232.267	0.16
232.642	0.08
233.017	0.24
233.392	0.22
233.767	0.12
234.142	0.18
234.517	0.07
234.892	0.09
235.267	0.08
235.641	0.16
236.016	0.06
236.391	0.13
236.766	0.04
237.14	0.11
237.515	0.11
237.89	0.25
238.264	0.1
238.639	0.15
239.014	0.07
239.388	0.14
239.763	0.14
240.137	0.16
240.512	0.28
240.886	0.03
241.261	0.14
241.635	0.16
242.009	0.11
242.384	0.1
242.758	0.1
243.132	0.14
243.507	0.17
243.881	0.11
244.255	0.1
244.629	0.18
245.004	0.24
245.378	0.11
245.752	0.15
246.126	0.1
246.5	0.18
246.874	0.14
247.248	0.11
247.622	0.2
247.996	0.14
248.37	0.09
248.744	0.12
249.118	0.06
249.492	0.16
249.866	0.06
250.24	0.12
250.613	0.09
250.987	0.13
251.361	0.13
251.735	0.15
252.108	0.1
252.482	0.14
252.856	-0.01
253.229	0.11
253.603	0.13
253.977	0.07
254.35	0.1
254.724	0.09
255.097	0.13
255.471	0.1
255.844	0.08
256.218	0.08
256.591	0.08
256.964	0.09
257.338	0.17
257.711	0.12
258.084	0.1
258.458	0.11
258.831	0.13
259.204	0.13
259.577	0.12
259.95	0.1
260.323	0.11
260.697	0.1
261.07	0.12
261.443	0.14
261.816	0.16
262.189	0.16
262.562	0.17
262.935	0.12
263.308	0.1
263.68	0.07
264.053	0.1
264.426	0.16
264.799	0.07
265.172	0.07
265.545	0.07
265.917	0.11
266.29	0.15
266.663	0.1
267.035	0.08
267.408	0.07
267.781	0.05
268.153	0.1
268.526	0.09
268.898	0.17
269.271	0.1
269.643	0.16
270.016	0.13
270.388	0.12
270.76	0.12
271.133	0.12
271.505	0.04
271.877	0.18
272.25	0.08
272.622	0.13
272.994	0.07
273.366	0.16
273.739	0.11
274.111	0.12
274.483	0.09
274.855	0.11
275.227	0.25
275.599	0.07
275.971	0.13
276.343	0.13
276.715	0.16
277.087	0.1
277.459	0.11
277.831	0.08
278.203	0.15
278.574	0.11
278.946	0.11
279.318	0.11
279.69	0.11
280.061	0.15
280.433	0.09
280.805	0.18
281.176	0.04
281.548	0.09
281.92	0.16
282.291	0.07
282.663	0.15
283.034	0.09
283.406	0.13
283.777	0.12
284.148	0.07
284.52	0.08
284.891	0.1
285.262	0.06
285.634	0.16
286.005	0.13
286.376	0.14
286.747	0.15
287.119	0.07
287.49	0.06
287.861	0.07
288.232	0.17
288.603	0.08
288.974	0.05
289.345	0.15
289.716	0.09
290.087	0.1
290.458	0.13
290.829	0.03
291.2	0.04
291.571	0.07
291.941	0.15
292.312	0.1
292.683	0.12
293.054	0.11
293.424	0.12
293.795	0.16
294.166	0.09
294.536	0.08
294.907	0.07
295.277	0.1
295.648	0.06
296.018	0.15
296.389	0.08
296.759	0.12
297.13	0.1
297.5	0.09
297.871	0.1
298.241	0.06
298.611	0.04
298.981	0.1
299.352	0.06
299.722	0.05
300.092	0.08
300.462	0.07
300.832	0.05
301.202	0.05
301.573	0.07
301.943	0.07
302.313	0.06
302.683	0.05
303.053	0.05
303.422	0.06
303.792	0.04
304.162	0.05
304.532	0.05
304.902	0.06
305.272	0.05
305.641	0.06
306.011	0.05
306.381	0.05
306.75	0.04
307.12	0.05
307.49	0.06
307.859	0.05
308.229	0.05
308.598	0.05
308.968	0.05
309.337	0.05
309.707	0.06
310.076	0.06
310.445	0.06
310.815	0.06
311.184	0.07
311.553	0.06
311.923	0.06
312.292	0.05
312.661	0.06
313.03	0.06
313.399	0.07
313.768	0.06
314.137	0.06
314.506	0.06
314.875	0.06
315.244	0.06
315.613	0.06
315.982	0.06
316.351	0.06
316.72	0.06
317.089	0.06
317.458	0.06
317.826	0.05
318.195	0.06
318.564	0.06
318.933	0.06
319.301	0.06
319.67	0.06
320.038	0.05
320.407	0.06
320.775	0.05
321.144	0.06
321.512	0.06
321.881	0.06
322.249	0.06
322.618	0.05
322.986	0.05
323.354	0.05
323.723	0.05
324.091	0.04
324.459	0.05
324.827	0.05
325.195	0.05
325.564	0.05
325.932	0.05
326.3	0.05
326.668	0.05
327.036	0.04
327.404	0.04
327.772	0.05
328.14	0.05
328.508	0.05
328.875	0.05
329.243	0.04
329.611	0.05
329.979	0.05
330.346	0.05
330.714	0.05
331.082	0.04
331.449	0.05
331.817	0.05
332.185	0.05
332.552	0.05
332.92	0.05
333.287	0.05
333.655	0.05
334.022	0.05
334.389	0.05
334.757	0.05
335.124	0.05
335.491	0.05
335.859	0.05
336.226	0.06
336.593	0.06
336.96	0.06
337.327	0.05
337.695	0.06
338.062	0.06
338.429	0.06
338.796	0.06
339.163	0.06
339.53	0.05
339.897	0.06
340.263	0.06
340.63	0.07
340.997	0.06
341.364	0.07
341.731	0.07
342.097	0.07
342.464	0.07
342.831	0.07
343.197	0.07
343.564	0.07
343.931	0.07
344.297	0.07
344.664	0.08
345.03	0.08
345.396	0.08
345.763	0.07
346.129	0.08
346.496	0.08
346.862	0.08
347.228	0.08
347.594	0.08
347.961	0.09
348.327	0.09
348.693	0.08
349.059	0.09
349.425	0.09
349.791	0.09
350.157	0.09
350.523	0.09
350.889	0.1
351.255	0.1
351.621	0.1
351.987	0.1
352.353	0.11
352.719	0.11
353.084	0.12
353.45	0.11
353.816	0.11
354.181	0.11
354.547	0.12
354.913	0.12
355.278	0.12
355.644	0.12
356.009	0.13
356.375	0.13
356.74	0.14
357.106	0.13
357.471	0.14
357.836	0.15
358.202	0.15
358.567	0.15
358.932	0.15
359.297	0.15
359.663	0.16
360.028	0.16
360.393	0.16
360.758	0.16
361.123	0.17
361.488	0.16
361.853	0.17
362.218	0.17
362.583	0.17
362.948	0.18
363.312	0.18
363.677	0.18
364.042	0.19
364.407	0.19
364.772	0.19
365.136	0.2
365.501	0.2
365.865	0.21
366.23	0.21
366.595	0.21
366.959	0.22
367.324	0.22
367.688	0.23
368.052	0.23
368.417	0.24
368.781	0.24
369.145	0.24
369.51	0.25
369.874	0.25
370.238	0.25
370.602	0.25
370.967	0.24
371.331	0.25
371.695	0.24
372.059	0.25
372.423	0.25
372.787	0.24
373.151	0.24
373.515	0.24
373.878	0.24
374.242	0.24
374.606	0.25
374.97	0.24
375.334	0.24
375.697	0.25
376.061	0.25
376.425	0.25
376.788	0.25
377.152	0.26
377.515	0.26
377.879	0.26
378.242	0.26
378.606	0.26
378.969	0.27
379.333	0.27
379.696	0.27
380.059	0.28
380.422	0.28
380.786	0.29
381.149	0.3
381.512	0.3
381.875	0.31
382.238	0.32
382.601	0.33
382.964	0.33
383.327	0.34
383.69	0.35
384.053	0.36
384.416	0.37
384.779	0.38
385.142	0.39
385.504	0.39
385.867	0.4
386.23	0.4
386.593	0.41
386.955	0.41
387.318	0.41
387.68	0.41
388.043	0.4
388.405	0.41
388.768	0.4
389.13	0.4
389.493	0.39
389.855	0.39
390.217	0.39
390.58	0.39
390.942	0.39
391.304	0.39
391.666	0.4
392.028	0.4
392.391	0.42
392.753	0.42
393.115	0.45
393.477	0.46
393.839	0.48
394.201	0.49
394.563	0.51
394.924	0.53
395.286	0.55
395.648	0.58
396.01	0.6
396.371	0.61
396.733	0.62
397.095	0.64
397.456	0.64
397.818	0.65
398.18	0.64
398.541	0.63
398.903	0.62
399.264	0.59
399.625	0.58
399.987	0.56
400.348	0.53
400.709	0.5
401.071	0.48
401.432	0.45
401.793	0.42
402.154	0.4
402.515	0.37
402.876	0.34
403.238	0.32
403.599	0.3
403.96	0.28
404.32	0.25
404.681	0.24
405.042	0.22
405.403	0.2
405.764	0.19
406.125	0.17
406.485	0.16
406.846	0.15
407.207	0.15
407.567	0.14
407.928	0.13
408.288	0.12
408.649	0.11
409.009	0.11
409.37	0.11
409.73	0.1
410.091	0.09
410.451	0.09
410.811	0.08
411.171	0.08
411.532	0.08
411.892	0.08
412.252	0.07
412.612	0.07
412.972	0.07
413.332	0.06
413.692	0.07
414.052	0.06
414.412	0.06
414.772	0.05
415.132	0.06
415.492	0.06
415.851	0.06
416.211	0.05
416.571	0.05
416.931	0.05
417.29	0.05
417.65	0.04
418.009	0.05
418.369	0.04
418.728	0.05
419.088	0.04
419.447	0.04
419.807	0.04
420.166	0.04
420.525	0.04
420.884	0.04
421.244	0.04
421.603	0.04
421.962	0.04
422.321	0.04
422.68	0.03
423.039	0.04
423.398	0.04
423.757	0.03
424.116	0.03
424.475	0.04
424.834	0.04
425.193	0.03
425.551	0.04
425.91	0.03
426.269	0.04
426.628	0.03
426.986	0.03
427.345	0.03
427.703	0.04
428.062	0.03
428.42	0.04
428.779	0.04
429.137	0.03
429.496	0.03
429.854	0.03
430.212	0.02
430.57	0.03
430.929	0.03
431.287	0.04
431.645	0.03
432.003	0.03
432.361	0.03
432.719	0.03
433.077	0.03
433.435	0.03
433.793	0.03
434.151	0.03
434.509	0.03
434.866	0.04
435.224	0.03
435.582	0.03
435.94	0.03
436.297	0.03
436.655	0.02
437.012	0.02
437.37	0.04
437.727	0.02
438.085	0.02
438.442	0.03
438.8	0.02
439.157	0.02
439.514	0.03
439.872	0.02
440.229	0.02
440.586	0.02
440.943	0.02
441.3	0.03
441.657	0.03
442.014	0.02
442.371	0.02
442.728	0.02
443.085	0.02
443.442	0.02
443.799	0.01
444.156	0.02
444.513	0.02
444.869	0.02
445.226	0.03
445.583	0.02
445.939	0.02
446.296	0.02
446.652	0.03
447.009	0.01
447.365	0.03
447.722	0.02
448.078	0.02
448.434	0.02
448.791	0.02
449.147	0.02
449.503	0.01
449.859	0.02
450.215	0.01
450.571	0.02
450.928	0.01
451.284	0.02
451.64	0.01
451.995	0.01
452.351	0.01
452.707	0.01
453.063	0.01
453.419	0.02
453.775	0.02
454.13	0.02
454.486	0.02
454.842	0.01
455.197	0.01
455.553	0.01
455.908	0
456.264	0.01
456.619	0.01
456.975	0.01
457.33	0.01
457.685	0.01
458.04	0.01
458.396	-0
458.751	0.01
459.106	0
459.461	0
459.816	0.01
460.171	0.01
460.526	0
460.881	-0
461.236	-0
461.591	-0
461.946	-0
462.301	-0
462.655	-0
463.01	-0.01
463.365	-0
463.719	-0.01
464.074	-0
464.428	-0.01
464.783	-0.01
465.137	-0.02
465.492	-0.01
465.846	-0.01
466.201	-0.01
466.555	-0.01
466.909	-0.02
467.263	-0.01
467.618	-0
467.972	-0.01
468.326	-0.01
468.68	-0.01
469.034	-0.01
469.388	-0.01
469.742	-0.02
470.096	-0.01
470.45	-0.01
470.804	-0.01
471.157	-0.01
471.511	-0.02
471.865	-0.01
472.218	-0.01
472.572	-0.02
472.926	-0.02
473.279	-0.01
473.633	-0.01
473.986	-0.01
474.34	-0.01
474.693	-0
475.046	-0
475.4	-0.01
475.753	-0.01
476.106	-0
476.459	0.01
476.812	0.01
477.165	0
477.519	0
477.872	0
478.224	0.01
478.577	0.01
478.93	0.01
479.283	0.01
479.636	0.01
479.989	0.01
480.341	0.01
480.694	0.01
481.047	0.01
481.399	0.01
481.752	0.02
482.104	0.01
482.457	0.02
482.809	0.01
483.162	0.02
483.514	0.02
483.866	0.01
484.219	0.02
484.571	0.01
484.923	0.02
485.275	0.02
485.627	0.02
485.979	0.02
486.331	0.02
486.683	0.03
487.035	0.02
487.387	0.02
487.739	0.02
488.091	0.02
488.443	0.03
488.794	0.03
489.146	0.03
489.498	0.02
489.849	0.03
490.201	0.03
490.552	0.03
490.904	0.03
491.255	0.03
491.607	0.03
491.958	0.03
492.309	0.03
492.661	0.03
493.012	0.03
493.363	0.03
493.714	0.03
494.065	0.03
494.416	0.04
494.767	0.03
495.118	0.04
495.469	0.03
495.82	0.04
496.171	0.04
496.522	0.03
496.872	0.03
497.223	0.04
497.574	0.03
497.924	0.04
498.275	0.04
498.626	0.04
498.976	0.04
499.327	0.04
499.677	0.04
500.027	0.04
500.378	0.04
500.728	0.04
501.078	0.04
501.428	0.04
501.779	0.04
502.129	0.05
502.479	0.05
502.829	0.05
503.179	0.04
503.529	0.04
503.879	0.05
504.229	0.05
504.578	0.05
504.928	0.05
505.278	0.04
505.628	0.05
505.977	0.05
506.327	0.05
506.676	0.05
507.026	0.05
507.375	0.05
507.725	0.05
508.074	0.06
508.424	0.05
508.773	0.05
509.122	0.05
509.471	0.06
509.82	0.05
510.17	0.06
510.519	0.06
510.868	0.06
511.217	0.06
511.566	0.05
511.915	0.06
512.263	0.06
512.612	0.06
512.961	0.06
513.31	0.06
513.659	0.06
514.007	0.06
514.356	0.07
514.704	0.07
515.053	0.07
515.401	0.07
515.75	0.07
516.098	0.07
516.447	0.07
516.795	0.06
517.143	0.07
517.491	0.07
517.839	0.07
518.188	0.07
518.536	0.07
518.884	0.07
519.232	0.07
519.58	0.07
519.928	0.07
520.275	0.07
520.623	0.08
520.971	0.08
521.319	0.08
521.666	0.08
522.014	0.08
522.362	0.08
522.709	0.08
523.057	0.08
523.404	0.08
523.752	0.08
524.099	0.08
524.446	0.08
524.794	0.08
525.141	0.08
525.488	0.08
525.835	0.08
526.182	0.08
526.529	0.09
526.876	0.08
527.223	0.09
527.57	0.09
527.917	0.09
528.264	0.09
528.611	0.09
528.958	0.09
529.304	0.09
529.651	0.09
529.998	0.09
530.344	0.09
530.691	0.1
531.037	0.09
531.384	0.1
531.73	0.09
532.076	0.1
532.423	0.1
532.769	0.09
533.115	0.1
533.461	0.1
533.807	0.1
534.154	0.1
534.5	0.1
534.846	0.1
535.192	0.1
535.537	0.1
535.883	0.1
536.229	0.11
536.575	0.1
536.921	0.11
537.266	0.11
537.612	0.1
537.957	0.11
538.303	0.11
538.649	0.11
538.994	0.11
539.339	0.11
539.685	0.11
540.03	0.11
540.375	0.12
540.721	0.12
541.066	0.12
541.411	0.12
541.756	0.12
542.101	0.12
542.446	0.12
542.791	0.12
543.136	0.12
543.481	0.12
543.825	0.12
544.17	0.12
544.515	0.12
544.86	0.12
545.204	0.12
545.549	0.12
545.893	0.12
546.238	0.13
546.582	0.13
546.927	0.13
547.271	0.13
547.615	0.13
547.96	0.13
548.304	0.13
548.648	0.13
548.992	0.14
549.336	0.14
549.68	0.13
550.024	0.14
550.368	0.14
550.712	0.14
551.056	0.14
551.4	0.14
551.743	0.14
552.087	0.14
552.431	0.14
552.774	0.14
553.118	0.14
553.462	0.15
553.805	0.15
554.148	0.15
554.492	0.15
554.835	0.15
555.178	0.15
555.522	0.15
555.865	0.15
556.208	0.15
556.551	0.14
556.894	0.15
557.237	0.15
557.58	0.15
557.923	0.15
558.266	0.15
558.609	0.15
558.952	0.15
559.294	0.16
559.637	0.15
559.98	0.15
560.322	0.15
560.665	0.15
561.007	0.15
561.35	0.15
561.692	0.15
562.034	0.16
562.377	0.16
562.719	0.16
563.061	0.15
563.403	0.15
563.745	0.16
564.088	0.16
564.43	0.16
564.772	0.16
565.113	0.16
565.455	0.16
565.797	0.16
566.139	0.16
566.481	0.16
566.822	0.16
567.164	0.16
567.506	0.16
567.847	0.16
568.189	0.16
568.53	0.16
568.872	0.16
569.213	0.16
569.554	0.16
569.895	0.16
570.237	0.16
570.578	0.16
570.919	0.16
571.26	0.16
571.601	0.16
571.942	0.16
572.283	0.16
572.624	0.16
572.965	0.16
573.306	0.16
573.646	0.16
573.987	0.16
574.328	0.16
574.668	0.16
575.009	0.16
575.349	0.16
575.69	0.16
576.03	0.16
576.37	0.16
576.711	0.15
577.051	0.16
577.391	0.16
577.731	0.16
578.072	0.16
578.412	0.16
578.752	0.16
579.092	0.16
579.431	0.16
579.771	0.15
580.111	0.15
580.451	0.15
580.791	0.16
581.13	0.16
581.47	0.16
581.81	0.16
582.149	0.16
582.489	0.16
582.828	0.16
583.167	0.15
583.507	0.14
583.846	0.12
584.185	0.13
584.525	0.15
584.864	0.15
585.203	0.16
585.542	0.17
585.881	0.17
586.22	0.17
586.559	0.17
586.898	0.16
587.236	0.16
587.575	0.16
587.914	0.16
588.252	0.16
588.591	0.17
588.93	0.17
589.268	0.17
589.607	0.17
589.945	0.17
590.283	0.17
590.622	0.17
590.96	0.17
591.298	0.18
591.636	0.18
591.974	0.18
592.313	0.18
592.651	0.18
592.989	0.18
593.326	0.18
593.664	0.18
594.002	0.18
594.34	0.18
594.678	0.18
595.015	0.18
595.353	0.18
595.691	0.18
596.028	0.18
596.366	0.19
596.703	0.19
597.04	0.19
597.378	0.19
597.715	0.19
598.052	0.19
598.389	0.19
598.726	0.2
599.064	0.2
599.401	0.2
599.738	0.2
600.074	0.2
600.411	0.2
600.748	0.2
601.085	0.2
601.422	0.19
601.758	0.19
602.095	0.19
602.432	0.19
602.768	0.19
603.105	0.2
603.441	0.2
603.777	0.2
604.114	0.2
604.45	0.2
604.786	0.2
605.122	0.2
605.459	0.2
605.795	0.2
606.131	0.19
606.467	0.2
606.803	0.2
607.139	0.2
607.474	0.19
607.81	0.19
608.146	0.2
608.482	0.2
608.817	0.2
609.153	0.2
609.488	0.19
609.824	0.19
610.159	0.19
610.495	0.19
610.83	0.2
611.165	0.2
611.5	0.19
611.836	0.2
612.171	0.19
612.506	0.19
612.841	0.19
613.176	0.19
613.511	0.19
613.845	0.19
614.18	0.19
614.515	0.19
614.85	0.19
615.184	0.19
615.519	0.19
615.854	0.19
616.188	0.19
616.523	0.18
616.857	0.18
617.191	0.19
617.526	0.18
617.86	0.18
618.194	0.18
618.528	0.18
618.862	0.19
619.196	0.19
619.53	0.19
619.864	0.18
620.198	0.18
620.532	0.19
620.866	0.19
621.2	0.19
621.533	0.18
621.867	0.19
622.201	0.19
622.534	0.18
622.868	0.18
623.201	0.18
623.534	0.18
623.868	0.18
624.201	0.18
624.534	0.18
624.868	0.18
625.201	0.18
625.534	0.18
625.867	0.18
626.2	0.18
626.533	0.18
626.865	0.18
627.198	0.17
627.531	0.17
627.864	0.17
628.196	0.17
628.529	0.17
628.862	0.17
629.194	0.17
629.527	0.17
629.859	0.17
630.191	0.17
630.524	0.16
630.856	0.16
631.188	0.17
631.52	0.16
631.852	0.16
632.184	0.16
632.516	0.16
632.848	0.16
633.18	0.16
633.512	0.15
633.844	0.16
634.175	0.15
634.507	0.15
634.839	0.15
635.17	0.15
635.502	0.15
635.833	0.15
636.165	0.15
636.496	0.15
636.827	0.15
637.159	0.15
637.49	0.15
637.821	0.15
638.152	0.14
638.483	0.14
638.814	0.14
639.145	0.14
639.476	0.14
639.807	0.14
640.137	0.14
640.468	0.14
640.799	0.14
641.129	0.14
641.46	0.14
641.791	0.14
642.121	0.14
642.451	0.13
642.782	0.13
643.112	0.13
643.442	0.13
643.773	0.13
644.103	0.13
644.433	0.13
644.763	0.12
645.093	0.13
645.423	0.12
645.753	0.12
646.082	0.12
646.412	0.12
646.742	0.12
647.072	0.12
647.401	0.12
647.731	0.12
648.06	0.12
648.39	0.12
648.719	0.12
649.048	0.12
649.378	0.12
649.707	0.12
650.036	0.12
650.365	0.12
650.694	0.11
651.023	0.11
651.352	0.12
651.681	0.12
652.01	0.12
652.339	0.12
652.668	0.12
652.996	0.12
653.325	0.12
653.654	0.12
653.982	0.12
654.311	0.12
654.639	0.12
654.967	0.12
655.296	0.12
655.624	0.11
655.952	0.11
656.28	0.11
656.609	0.11
656.937	0.12
657.265	0.12
657.593	0.1
657.92	0
658.248	0
658.576	0
658.904	0
659.231	0.06
659.559	0.1
659.887	0.11
660.214	0.11
660.542	0.11
660.869	0.11
661.196	0.11
661.524	0.11
661.851	0.11
662.178	0.11
662.505	0.11
662.832	0.11
663.159	0.11
663.486	0.11
663.813	0.11
664.14	0.12
664.467	0.11
664.794	0.12
665.12	0.11
665.447	0.11
665.774	0.12
666.1	0.12
666.427	0.11
666.753	0.11
667.079	0.11
667.406	0.11
667.732	0.11
668.058	0.11
668.384	0.11
668.71	0.11
669.036	0.11
669.362	0.11
669.688	0.11
670.014	0.11
670.34	0.11
670.666	0.11
670.991	0.11
671.317	0.11
671.643	0.1
671.968	0.1
672.294	0.1
672.619	0.11
672.945	0.1
673.27	0.1
673.595	0.1
673.92	0.1
674.246	0.1
674.571	0.1
674.896	0.1
675.221	0.1
675.546	0.1
675.87	0.1
676.195	0.1
676.52	0.1
676.845	0.1
677.169	0.1
677.494	0.1
677.819	0.1
678.143	0.1
678.468	0.1
678.792	0.1
679.116	0.1
679.44	0.1
679.765	0.09
680.089	0.09
680.413	0.09
680.737	0.09
681.061	0.09
681.385	0.09
681.709	0.08
682.033	0.08
682.356	0.08
682.68	0.08
683.004	0.08
683.327	0.08
683.651	0.08
683.974	0.08
684.298	0.08
684.621	0.08
684.944	0.08
685.268	0.08
685.591	0.08
685.914	0.08
686.237	0.08
686.56	0.08
686.883	0.07
687.206	0.07
687.529	0.08
687.852	0.07
688.175	0.07
688.497	0.07
688.82	0.08
689.142	0.07
689.465	0.07
689.787	0.07
690.11	0.07
690.432	0.07
690.755	0.07
691.077	0.07
691.399	0.07
691.721	0.07
692.043	0.07
692.365	0.07
692.687	0.07
693.009	0.07
693.331	0.06
693.653	0.06
693.974	0.06
694.296	0.06
694.618	0.06
694.939	0.06
695.261	0.06
695.582	0.06
695.904	0.06
696.225	0.06
696.546	0.06
696.868	0.06
697.189	0.06
697.51	0.06
697.831	0.06
698.152	0.06
698.473	0.05
698.794	0.05
699.114	0.05
699.435	0.05
699.756	0.05
700.077	0.05
700.397	0.05
700.718	0.06
701.038	0.06
701.359	0.06
701.679	0.06
701.999	0.06
702.32	0.06
702.64	0.05
702.96	0.05
703.28	0.05
703.6	0.05
703.92	0.05
704.24	0.05
704.56	0.05
704.879	0.05
705.199	0.05
705.519	0.05
705.838	0.05
706.158	0.04
706.478	0.05
706.797	0.05
707.116	0.05
707.436	0.05
707.755	0.05
708.074	0.05
708.393	0.05
708.712	0.05
709.031	0.04
709.35	0.05
709.669	0.04
709.988	0.04
710.307	0.04
710.626	0.05
710.944	0.04
711.263	0.04
711.582	0.04
711.9	0.04
712.219	0.05
712.537	0.04
712.855	0.05
713.174	0.04
713.492	0.04
713.81	0.04
714.128	0.04
714.446	0.04
714.764	0.04
715.082	0.05
715.4	0.04
715.718	0.04
716.035	0.04
716.353	0.04
716.671	0.04
716.988	0.04
717.306	0.05
717.623	0.05
717.941	0.05
718.258	0.05
718.575	0.05
718.893	0.05
719.21	0.05
719.527	0.05
719.844	0.05
720.161	0.05
720.478	0.05
720.795	0.05
721.112	0.05
721.428	0.05
721.745	0.05
722.062	0.05
722.378	0.05
722.695	0.05
723.011	0.05
723.328	0.05
723.644	0.05
723.96	0.05
724.276	0.05
724.593	0.05
724.909	0.05
725.225	0.05
725.541	0.05
725.857	0.06
726.173	0.05
726.488	0.06
726.804	0.05
727.12	0.05
727.435	0.05
727.751	0.05
728.067	0.05
728.382	0.05
728.697	0.05
729.013	0.05
729.328	0.05
729.643	0.05
729.958	0.05
730.273	0.05
730.588	0.05
730.903	0.06
731.218	0.05
731.533	0.05
731.848	0.05
732.163	0.05
732.477	0.05
732.792	0.05
733.107	0.05
733.421	0.05
733.736	0.04
734.05	0.05
734.364	0.05
734.678	0.05
734.993	0.05
735.307	0.05
735.621	0.05
735.935	0.05
736.249	0.05
736.563	0.05
736.877	0.05
737.19	0.05
737.504	0.05
737.818	0.05
738.131	0.05
738.445	0.04
738.758	0.04
739.072	0.04
739.385	0.05
739.698	0.04
740.012	0.04
740.325	0.04
740.638	0.04
740.951	0.04
741.264	0.04
741.577	0.04
741.89	0.05
742.203	0.05
742.515	0.05
742.828	0.05
743.141	0.05
743.453	0.05
743.766	0.04
744.078	0.04
744.391	0.04
744.703	0.04
745.015	0.04
745.327	0.04
745.639	0.04
745.952	0.04
746.264	0.04
746.575	0.04
746.887	0.04
747.199	0.04
747.511	0.04
747.823	0.04
748.134	0.04
748.446	0.04
748.757	0.04
749.069	0.04
749.38	0.05
749.692	0.04
750.003	0.04
750.314	0.04
750.625	0.05
750.936	0.05
751.248	0.05
751.559	0.05
751.869	0.05
752.18	0.05
752.491	0.05
752.802	0.05
753.112	0.04
753.423	0.04
753.734	0.04
754.044	0.04
754.355	0.03
754.665	0.03
754.975	0.03
755.285	0.03
755.596	0.03
755.906	0.03
756.216	0.03
756.526	0.03
756.836	0.03
757.146	0.03
757.455	0.03
757.765	0.03
758.075	0.03
758.385	0.03
758.694	0.03
759.004	0.03
759.313	0.03
759.622	0.03
759.932	0.03
760.241	0.03
760.55	0.03
760.859	0.03
761.168	0.03
761.477	0.03
761.786	0.03
762.095	0.03
762.404	0.03
762.713	0.03
763.021	0.03
763.33	0.03
763.639	0.03
763.947	0.03
764.256	0.03
764.564	0.03
764.872	0.03
765.181	0.03
765.489	0.03
765.797	0.03
766.105	0.03
766.413	0.03
766.721	0.03
767.029	0.03
767.337	0.03
767.644	0.03
767.952	0.03
768.26	0.03
768.567	0.03
768.875	0.03
769.182	0.03
769.49	0.03
769.797	0.03
770.104	0.03
770.411	0.03
770.718	0.03
771.026	0.03
771.333	0.02
771.639	0.02
771.946	0.02
772.253	0.02
772.56	0.02
772.867	0.02
773.173	0.03
773.48	0.03
773.786	0.02
774.093	0.03
774.399	0.02
774.705	0.03
775.012	0.03
775.318	0.02
775.624	0.02
775.93	0.02
776.236	0.02
776.542	0.03
776.848	0.03
777.154	0.02
777.459	0.02
777.765	0.02
778.071	0.02
778.376	0.02
778.682	0.03
778.987	0.03
779.292	0.03
779.598	0.03
779.903	0.03
780.208	0.03
780.513	0.03
780.818	0.03
781.123	0.02
781.428	0.03
781.733	0.03
782.038	0.03
782.343	0.03
782.647	0.03
782.952	0.04
783.256	0.04
783.561	0.04
783.865	0.03
784.17	0.03
784.474	0.03
784.778	0.03
785.082	0.03
785.386	0.03
785.69	0.03
785.994	0.03
786.298	0.03
786.602	0.03
786.906	0.03
787.209	0.03
787.513	0.03
787.817	0.02
788.12	0.02
788.424	0.02
788.727	0.03
789.03	0.03
789.333	0.03
789.637	0.03
789.94	0.03
790.243	0.03
790.546	0.03
790.849	0.02
791.152	0.02
791.454	0.02
791.757	0.02
792.06	0.02
792.362	0.02
792.665	0.02
792.967	0.02
793.27	0.02
793.572	0.03
793.874	0.03
794.177	0.03
794.479	0.03
794.781	0.03
795.083	0.03
795.385	0.03
795.687	0.02
795.989	0.03
796.29	0.02
796.592	0.03
796.894	0.03
797.195	0.03
797.497	0.03
797.798	0.03
798.1	0.03
798.401	0.03
798.702	0.04
799.003	0.03
799.304	0.03
799.605	0.03
799.906	0.03
800.207	0.02
800.508	0.02
800.809	0.02
801.11	0.03
801.41	0.03
801.711	0.03
802.011	0.03
802.312	0.03
802.612	0.03
802.913	0.03
803.213	0.04
803.513	0.04
803.813	0.03
804.113	0.03
804.413	0.03
804.713	0.03
805.013	0.03
805.313	0.03
805.613	0.03
805.912	0.03
806.212	0.03
806.511	0.02
806.811	0.03
807.11	0.02
807.41	0.02
807.709	0.02
808.008	0.02
808.307	0.02
808.606	0.02
808.905	0.03
809.204	0.03
809.503	0.03
809.802	0.03
810.101	0.03
810.399	0.04
810.698	0.03
810.997	0.03
811.295	0.03
811.593	0.04
811.892	0.04
812.19	0.04
812.488	0.03
812.786	0.04
813.084	0.03
813.383	0.03
813.68	0.04
813.978	0.03
814.276	0.04
814.574	0.04
814.872	0.04
815.169	0.04
815.467	0.03
815.764	0.04
816.062	0.04
816.359	0.04
816.656	0.04
816.954	0.03
817.251	0.04
817.548	0.04
817.845	0.04
818.142	0.04
818.439	0.04
818.735	0.04
819.032	0.03
819.329	0.04
819.626	0.04
819.922	0.04
820.219	0.04
820.515	0.04
820.811	0.04
821.108	0.04
821.404	0.03
821.7	0.03
821.996	0.03
822.292	0.03
822.588	0.04
822.884	0.04
823.18	0.03
823.475	0.03
823.771	0.03
824.067	0.03
824.362	0.03
824.658	0.03
824.953	0.03
825.249	0.04
825.544	0.03
825.839	0.04
826.134	0.04
826.429	0.04
826.724	0.03
827.019	0.04
827.314	0.04
827.609	0.04
827.904	0.04
828.198	0.04
828.493	0.04
828.787	0.04
829.082	0.04
829.376	0.03
829.671	0.03
829.965	0.04
830.259	0.04
830.553	0.04
830.847	0.03
831.141	0.04
831.435	0.03
831.729	0.04
832.023	0.04
832.317	0.04
832.61	0.04
832.904	0.04
833.197	0.04
833.491	0.04
833.784	0.04
834.077	0.04
834.371	0.04
834.664	0.04
834.957	0.04
835.25	0.04
835.543	0.05
835.836	0.04
836.129	0.04
836.421	0.03
836.714	0.04
837.007	0.04
837.299	0.04
837.592	0.05
837.884	0.04
838.177	0.04
838.469	0.04
838.761	0.04
839.053	0.03
839.345	0.04
839.637	0.03
839.929	0.03
840.221	0.03
840.513	0.04
840.805	0.03
841.096	0.04
841.388	0.03
841.68	0.04
841.971	0.04
842.262	0.03
842.554	0.04
842.845	0.04
843.136	0.04
843.427	0.04
843.718	0.04
844.009	0.04
844.3	0.04
844.591	0.04
844.882	0.05
845.173	0.03
845.463	0.04
845.754	0.05
846.044	0.05
846.335	0.05
846.625	0.04
846.915	0.05
847.206	0.05
847.496	0.04
847.786	0.04
848.076	0.05
848.366	0.05
848.656	0.04
848.945	0.05
849.235	0.04
849.525	0.04
849.814	0.05
850.104	0.05
850.393	0.03
850.683	0.04
850.972	0.05
851.261	0.04
851.551	0.05
851.84	0.05
852.129	0.04
852.418	0.03
852.707	0.04
852.995	0.05
853.284	0.05
853.573	0.06
853.862	0.05
854.15	0.05
854.439	0.05
854.727	0.04
855.015	0.06
855.304	0.04
855.592	0.04
855.88	0.03
856.168	0.03
856.456	0.03
856.744	0.05
857.032	0.04
857.32	0.04
857.607	0.05
857.895	0.04
858.183	0.06
858.47	0.04
858.757	0.04
859.045	0.06
859.332	0.04
859.619	0.04
859.907	0.04
860.194	0.04
860.481	0.03
860.768	0.03
861.054	0.04
861.341	0.05
861.628	0.05
861.915	0.05
862.201	0.04
862.488	0.03
862.774	0.05
863.061	0.03
863.347	0.04
863.633	0.05
863.919	0.03
864.205	0.05
864.491	0.06
864.777	0.04
865.063	0.03
865.349	0.05
865.635	0.04
865.92	0.03
866.206	0.03
866.492	0.04
866.777	0.04
867.062	0.03
867.348	0.05
867.633	0.05
867.918	0.03
868.203	0.07
868.488	0.06
868.773	0.03
869.058	0.03
869.343	0.01
869.628	-0.01
869.912	0.01
870.197	0.04
870.482	0.02
870.766	0.03
871.05	0.01
871.335	-0
871.619	0.02
871.903	-0.01
872.187	0.04
872.471	0.01
872.755	0.04
873.039	0.07
873.323	0.03
873.607	-0.01
873.89	0.03
874.174	0.03
874.458	0.03
874.741	0.03
875.024	0.01
875.308	0.05
875.591	0.03
875.874	-0.01
876.157	0.03
876.44	0.09
876.723	0.07
877.006	0.07
877.289	0
877.572	0.01
877.854	0.07
878.137	0.02
878.42	0.08
878.702	0.02
878.984	0.05
879.267	0.07
879.549	0.04
879.831	0.06
880.113	-0.04
880.395	-0.02
880.677	0.05
880.959	0.03
