Data from Rubpy_EV_600_EDTA_Buffered_Absorbance_12-56-29-025.txt Node
Date: Tue Jun 30 12:56:29 BST 2026
User: fpm-admin
Spectrometer: OFX00224
Trigger mode: 0
Integration Time (sec): 7.000000E-2
Scans to average: 3
Nonlinearity correction enabled: false
Boxcar width: 0
Storing dark spectrum: false
XAxis mode: Wavelengths
Number of Pixels in Spectrum: 2136
>>>>>Begin Spectral Data<<<<<
154.91	-0
155.289	0.16
155.669	0.33
156.048	-0
156.428	-0
156.807	-0.26
157.186	-0
157.566	0.46
157.945	0.93
158.325	0.19
158.704	-0
159.083	-0.78
159.462	-0.7
159.842	-0.17
160.221	-0
160.6	0.27
160.979	-0.05
161.359	-0
161.738	-0
162.117	-0.39
162.496	-0
162.875	-0
163.254	-0.23
163.633	-0
164.012	-0
164.391	-0.27
164.77	0.09
165.149	-0.12
165.528	-0.01
165.907	-0
166.286	-0.35
166.665	-0.13
167.044	-0
167.423	-0
167.802	-0.4
168.181	-0
168.559	-0
168.938	-0.16
169.317	-0.13
169.696	-0.6
170.074	-0
170.453	-0
170.832	-0
171.21	-0
171.589	0.42
171.968	-0
172.346	0.5
172.725	-0.14
173.103	-0.16
173.482	-0.29
173.861	0.7
174.239	-0
174.617	-0
174.996	0.18
175.374	-0
175.753	-0
176.131	-0
176.51	-0.65
176.888	0.96
177.266	-0
177.645	-0.02
178.023	-0
178.401	-0.08
178.779	-0.08
179.158	0.33
179.536	-0
179.914	0.04
180.292	-0
180.67	-0
181.048	-0
181.427	-1.48
181.805	-0.09
182.183	-0.48
182.561	-0
182.939	0.28
183.317	-0
183.695	0.65
184.073	-0.24
184.451	-0
184.829	-1.08
185.206	-0.2
185.584	0.63
185.962	-0
186.34	-0
186.718	-0.32
187.096	0.2
187.473	-0
187.851	-0.31
188.229	-0.32
188.607	0.03
188.984	0.31
189.362	0.19
189.74	0.18
190.117	0.02
190.495	0.16
190.872	0.07
191.25	0.13
191.627	0.21
192.005	0.09
192.382	0.2
192.76	0.06
193.137	0.16
193.515	0.23
193.892	0.17
194.269	0.11
194.647	0.18
195.024	0.06
195.401	0.1
195.779	0.17
196.156	0.13
196.533	0.17
196.91	0.23
197.288	0.1
197.665	0.07
198.042	0.05
198.419	0.05
198.796	0.09
199.173	0.14
199.55	0.1
199.927	0.12
200.304	0.05
200.681	0.1
201.058	0.05
201.435	0.07
201.812	0.12
202.189	0.08
202.566	0.15
202.943	0.18
203.32	0.01
203.697	0.12
204.073	0.07
204.45	0.05
204.827	0.22
205.204	0.14
205.58	0.03
205.957	0.15
206.334	0.13
206.71	0.12
207.087	0.14
207.464	0.13
207.84	0.2
208.217	0.06
208.593	0.23
208.97	0.15
209.346	0.09
209.723	0.05
210.099	0.2
210.476	0.1
210.852	0.18
211.228	0.06
211.605	0.04
211.981	0.16
212.357	0.02
212.733	0.19
213.11	0.12
213.486	0.09
213.862	0.04
214.238	0.16
214.614	0.09
214.991	0.08
215.367	0.22
215.743	0.09
216.119	0.11
216.495	0.05
216.871	0.11
217.247	0.12
217.623	0.07
217.999	0.19
218.375	0.15
218.751	0.07
219.127	0.16
219.502	0.03
219.878	0.11
220.254	0.15
220.63	0.11
221.006	0.12
221.381	0.05
221.757	0.1
222.133	0.11
222.508	0.12
222.884	0.16
223.26	0.19
223.635	0.1
224.011	0.1
224.386	0.11
224.762	0.02
225.137	0.1
225.513	0.04
225.888	0.05
226.264	0.11
226.639	0.12
227.014	0.06
227.39	0.06
227.765	0.15
228.14	0.12
228.516	0.15
228.891	0.06
229.266	0.1
229.641	0.1
230.017	0.15
230.392	0.14
230.767	0.06
231.142	0.1
231.517	0.12
231.892	0.16
232.267	0.14
232.642	0.17
233.017	0.07
233.392	0.12
233.767	0.12
234.142	0.09
234.517	0.11
234.892	0.14
235.267	-0.02
235.641	0.1
236.016	0.08
236.391	0.1
236.766	0.02
237.14	0.01
237.515	0.08
237.89	0.11
238.264	0.05
238.639	0.18
239.014	0.06
239.388	-0
239.763	0.16
240.137	0.09
240.512	0.1
240.886	0.04
241.261	0.07
241.635	0.1
242.009	0.1
242.384	0.13
242.758	0.07
243.132	0.11
243.507	0.12
243.881	0.13
244.255	0.08
244.629	0.14
245.004	0.16
245.378	0.05
245.752	0.14
246.126	0.07
246.5	0.06
246.874	0.15
247.248	0.15
247.622	-0.02
247.996	0.13
248.37	0.08
248.744	0.13
249.118	0.18
249.492	0.16
249.866	0.03
250.24	0.09
250.613	0.04
250.987	0.04
251.361	0.14
251.735	0.16
252.108	0.08
252.482	0.1
252.856	0.03
253.229	0.16
253.603	0.09
253.977	0.11
254.35	0.11
254.724	0.07
255.097	0.13
255.471	0.14
255.844	0.22
256.218	0.11
256.591	0.13
256.964	0.11
257.338	0.1
257.711	0.12
258.084	0.09
258.458	0.17
258.831	0.19
259.204	0.15
259.577	0.21
259.95	0.11
260.323	0.07
260.697	0.14
261.07	0.12
261.443	0.1
261.816	0.16
262.189	0.17
262.562	0.15
262.935	0.18
263.308	0.03
263.68	0.04
264.053	0.1
264.426	0.11
264.799	0.11
265.172	0.1
265.545	0.18
265.917	0.13
266.29	0.08
266.663	0.13
267.035	0.09
267.408	0.09
267.781	0.07
268.153	0.09
268.526	0.09
268.898	0.14
269.271	0.16
269.643	0.16
270.016	0.1
270.388	0.07
270.76	0.1
271.133	0.11
271.505	0.11
271.877	0.15
272.25	0.04
272.622	0.13
272.994	0.12
273.366	0.18
273.739	0.15
274.111	0.08
274.483	0.08
274.855	0.11
275.227	0.16
275.599	0.08
275.971	0.13
276.343	0.1
276.715	0.12
277.087	0.1
277.459	0.14
277.831	0.07
278.203	0.16
278.574	0.13
278.946	0.1
279.318	0.14
279.69	0.15
280.061	0.17
280.433	0.12
280.805	0.12
281.176	0.06
281.548	0.06
281.92	0.03
282.291	0.12
282.663	0.05
283.034	0.13
283.406	0.18
283.777	0.12
284.148	0.16
284.52	0.12
284.891	0.09
285.262	0.05
285.634	0.17
286.005	0.09
286.376	0.09
286.747	0.11
287.119	0.12
287.49	0.09
287.861	0.15
288.232	0.11
288.603	0.07
288.974	0.05
289.345	0.15
289.716	0.09
290.087	0.1
290.458	0.1
290.829	0.07
291.2	0.08
291.571	0.08
291.941	0.09
292.312	0.09
292.683	0.15
293.054	0.11
293.424	0.06
293.795	0.15
294.166	0.08
294.536	0.11
294.907	0.1
295.277	0.1
295.648	0.04
296.018	0.07
296.389	0.1
296.759	0.11
297.13	0.09
297.5	0.1
297.871	0.07
298.241	0.03
298.611	0.03
298.981	0.11
299.352	0.07
299.722	0.09
300.092	0.08
300.462	0.07
300.832	0.09
301.202	0.07
301.573	0.06
301.943	0.09
302.313	0.04
302.683	0.05
303.053	0.06
303.422	0.05
303.792	0.06
304.162	0.07
304.532	0.06
304.902	0.06
305.272	0.06
305.641	0.08
306.011	0.06
306.381	0.06
306.75	0.06
307.12	0.07
307.49	0.07
307.859	0.07
308.229	0.07
308.598	0.07
308.968	0.07
309.337	0.07
309.707	0.07
310.076	0.07
310.445	0.07
310.815	0.08
311.184	0.08
311.553	0.08
311.923	0.07
312.292	0.07
312.661	0.08
313.03	0.08
313.399	0.08
313.768	0.08
314.137	0.07
314.506	0.08
314.875	0.08
315.244	0.08
315.613	0.08
315.982	0.08
316.351	0.08
316.72	0.08
317.089	0.08
317.458	0.08
317.826	0.07
318.195	0.08
318.564	0.07
318.933	0.08
319.301	0.07
319.67	0.07
320.038	0.07
320.407	0.07
320.775	0.07
321.144	0.07
321.512	0.07
321.881	0.07
322.249	0.07
322.618	0.07
322.986	0.07
323.354	0.07
323.723	0.07
324.091	0.06
324.459	0.06
324.827	0.07
325.195	0.06
325.564	0.06
325.932	0.06
326.3	0.06
326.668	0.06
327.036	0.06
327.404	0.06
327.772	0.06
328.14	0.07
328.508	0.06
328.875	0.06
329.243	0.06
329.611	0.06
329.979	0.07
330.346	0.06
330.714	0.06
331.082	0.06
331.449	0.06
331.817	0.06
332.185	0.06
332.552	0.06
332.92	0.06
333.287	0.07
333.655	0.06
334.022	0.06
334.389	0.07
334.757	0.06
335.124	0.07
335.491	0.07
335.859	0.07
336.226	0.07
336.593	0.07
336.96	0.07
337.327	0.07
337.695	0.08
338.062	0.07
338.429	0.07
338.796	0.08
339.163	0.08
339.53	0.08
339.897	0.08
340.263	0.08
340.63	0.09
340.997	0.08
341.364	0.08
341.731	0.09
342.097	0.09
342.464	0.09
342.831	0.09
343.197	0.09
343.564	0.09
343.931	0.09
344.297	0.1
344.664	0.1
345.03	0.1
345.396	0.1
345.763	0.1
346.129	0.1
346.496	0.1
346.862	0.11
347.228	0.11
347.594	0.11
347.961	0.11
348.327	0.11
348.693	0.11
349.059	0.11
349.425	0.12
349.791	0.12
350.157	0.12
350.523	0.12
350.889	0.12
351.255	0.13
351.621	0.13
351.987	0.13
352.353	0.14
352.719	0.14
353.084	0.14
353.45	0.15
353.816	0.15
354.181	0.15
354.547	0.15
354.913	0.16
355.278	0.16
355.644	0.17
356.009	0.17
356.375	0.17
356.74	0.18
357.106	0.18
357.471	0.18
357.836	0.19
358.202	0.19
358.567	0.2
358.932	0.2
359.297	0.2
359.663	0.21
360.028	0.21
360.393	0.21
360.758	0.21
361.123	0.22
361.488	0.22
361.853	0.23
362.218	0.22
362.583	0.23
362.948	0.23
363.312	0.24
363.677	0.23
364.042	0.24
364.407	0.25
364.772	0.25
365.136	0.25
365.501	0.26
365.865	0.26
366.23	0.27
366.595	0.27
366.959	0.28
367.324	0.29
367.688	0.3
368.052	0.31
368.417	0.3
368.781	0.31
369.145	0.31
369.51	0.32
369.874	0.32
370.238	0.31
370.602	0.32
370.967	0.32
371.331	0.32
371.695	0.32
372.059	0.32
372.423	0.32
372.787	0.32
373.151	0.32
373.515	0.32
373.878	0.31
374.242	0.31
374.606	0.32
374.97	0.32
375.334	0.32
375.697	0.31
376.061	0.32
376.425	0.32
376.788	0.32
377.152	0.32
377.515	0.33
377.879	0.34
378.242	0.33
378.606	0.34
378.969	0.34
379.333	0.35
379.696	0.36
380.059	0.35
380.422	0.37
380.786	0.37
381.149	0.38
381.512	0.39
381.875	0.39
382.238	0.4
382.601	0.41
382.964	0.43
383.327	0.44
383.69	0.44
384.053	0.46
384.416	0.48
384.779	0.49
385.142	0.5
385.504	0.51
385.867	0.51
386.23	0.51
386.593	0.52
386.955	0.53
387.318	0.52
387.68	0.53
388.043	0.52
388.405	0.52
388.768	0.51
389.13	0.51
389.493	0.51
389.855	0.5
390.217	0.49
390.58	0.5
390.942	0.5
391.304	0.5
391.666	0.51
392.028	0.51
392.391	0.54
392.753	0.54
393.115	0.56
393.477	0.58
393.839	0.61
394.201	0.63
394.563	0.65
394.924	0.68
395.286	0.71
395.648	0.73
396.01	0.76
396.371	0.78
396.733	0.79
397.095	0.81
397.456	0.82
397.818	0.81
398.18	0.81
398.541	0.81
398.903	0.79
399.264	0.76
399.625	0.74
399.987	0.71
400.348	0.69
400.709	0.65
401.071	0.61
401.432	0.57
401.793	0.54
402.154	0.5
402.515	0.47
402.876	0.43
403.238	0.4
403.599	0.38
403.96	0.35
404.32	0.32
404.681	0.3
405.042	0.28
405.403	0.26
405.764	0.24
406.125	0.22
406.485	0.21
406.846	0.19
407.207	0.19
407.567	0.18
407.928	0.16
408.288	0.16
408.649	0.15
409.009	0.14
409.37	0.13
409.73	0.12
410.091	0.12
410.451	0.11
410.811	0.11
411.171	0.1
411.532	0.09
411.892	0.1
412.252	0.09
412.612	0.09
412.972	0.09
413.332	0.08
413.692	0.08
414.052	0.08
414.412	0.08
414.772	0.07
415.132	0.07
415.492	0.07
415.851	0.07
416.211	0.07
416.571	0.06
416.931	0.06
417.29	0.06
417.65	0.05
418.009	0.06
418.369	0.06
418.728	0.06
419.088	0.05
419.447	0.06
419.807	0.05
420.166	0.05
420.525	0.05
420.884	0.06
421.244	0.05
421.603	0.04
421.962	0.05
422.321	0.05
422.68	0.05
423.039	0.04
423.398	0.04
423.757	0.05
424.116	0.05
424.475	0.04
424.834	0.04
425.193	0.05
425.551	0.04
425.91	0.04
426.269	0.04
426.628	0.04
426.986	0.04
427.345	0.03
427.703	0.04
428.062	0.03
428.42	0.04
428.779	0.04
429.137	0.04
429.496	0.03
429.854	0.03
430.212	0.04
430.57	0.03
430.929	0.03
431.287	0.04
431.645	0.03
432.003	0.04
432.361	0.04
432.719	0.03
433.077	0.04
433.435	0.04
433.793	0.04
434.151	0.02
434.509	0.03
434.866	0.04
435.224	0.03
435.582	0.03
435.94	0.03
436.297	0.03
436.655	0.03
437.012	0.03
437.37	0.04
437.727	0.03
438.085	0.03
438.442	0.03
438.8	0.02
439.157	0.03
439.514	0.03
439.872	0.04
440.229	0.03
440.586	0.03
440.943	0.03
441.3	0.03
441.657	0.03
442.014	0.02
442.371	0.03
442.728	0.02
443.085	0.03
443.442	0.03
443.799	0.02
444.156	0.03
444.513	0.02
444.869	0.03
445.226	0.03
445.583	0.02
445.939	0.03
446.296	0.02
446.652	0.02
447.009	0.02
447.365	0.03
447.722	0.03
448.078	0.03
448.434	0.02
448.791	0.02
449.147	0.02
449.503	0.02
449.859	0.02
450.215	0.02
450.571	0.03
450.928	0.02
451.284	0.02
451.64	0.02
451.995	0.01
452.351	0.01
452.707	0.02
453.063	0.01
453.419	0.02
453.775	0.02
454.13	0.03
454.486	0.02
454.842	0.01
455.197	0.01
455.553	0.02
455.908	0.02
456.264	0.01
456.619	0.01
456.975	0.01
457.33	0.01
457.685	0
458.04	0.01
458.396	0.01
458.751	0.01
459.106	0
459.461	0.01
459.816	0.01
460.171	0.01
460.526	0.01
460.881	0.01
461.236	-0.01
461.591	0
461.946	-0
462.301	0
462.655	0
463.01	-0
463.365	-0
463.719	-0.01
464.074	0
464.428	-0.01
464.783	-0.01
465.137	-0.01
465.492	-0.01
465.846	-0.01
466.201	-0
466.555	-0.01
466.909	-0.01
467.263	-0
467.618	-0.01
467.972	-0.01
468.326	-0.01
468.68	-0.01
469.034	-0.01
469.388	-0.01
469.742	-0.02
470.096	-0.01
470.45	-0.01
470.804	-0.01
471.157	-0.01
471.511	-0.01
471.865	-0.01
472.218	-0.01
472.572	-0.01
472.926	-0.01
473.279	-0.01
473.633	-0.01
473.986	-0
474.34	0
474.693	-0
475.046	0
475.4	-0
475.753	0
476.106	0
476.459	0.01
476.812	0.01
477.165	0.01
477.519	0.01
477.872	0.01
478.224	0.01
478.577	0.02
478.93	0.01
479.283	0.02
479.636	0.02
479.989	0.01
480.341	0.02
480.694	0.02
481.047	0.02
481.399	0.02
481.752	0.03
482.104	0.02
482.457	0.02
482.809	0.02
483.162	0.02
483.514	0.02
483.866	0.02
484.219	0.03
484.571	0.03
484.923	0.03
485.275	0.03
485.627	0.03
485.979	0.02
486.331	0.03
486.683	0.04
487.035	0.03
487.387	0.03
487.739	0.03
488.091	0.03
488.443	0.03
488.794	0.03
489.146	0.03
489.498	0.03
489.849	0.04
490.201	0.03
490.552	0.04
490.904	0.03
491.255	0.04
491.607	0.03
491.958	0.04
492.309	0.04
492.661	0.03
493.012	0.04
493.363	0.04
493.714	0.04
494.065	0.04
494.416	0.04
494.767	0.04
495.118	0.05
495.469	0.04
495.82	0.04
496.171	0.05
496.522	0.05
496.872	0.04
497.223	0.05
497.574	0.05
497.924	0.05
498.275	0.05
498.626	0.05
498.976	0.05
499.327	0.05
499.677	0.05
500.027	0.05
500.378	0.05
500.728	0.05
501.078	0.05
501.428	0.05
501.779	0.06
502.129	0.06
502.479	0.06
502.829	0.05
503.179	0.06
503.529	0.06
503.879	0.06
504.229	0.06
504.578	0.06
504.928	0.06
505.278	0.06
505.628	0.06
505.977	0.07
506.327	0.07
506.676	0.07
507.026	0.06
507.375	0.07
507.725	0.07
508.074	0.07
508.424	0.07
508.773	0.07
509.122	0.07
509.471	0.07
509.82	0.07
510.17	0.07
510.519	0.07
510.868	0.07
511.217	0.07
511.566	0.07
511.915	0.08
512.263	0.08
512.612	0.07
512.961	0.07
513.31	0.08
513.659	0.08
514.007	0.08
514.356	0.08
514.704	0.08
515.053	0.08
515.401	0.09
515.75	0.09
516.098	0.08
516.447	0.09
516.795	0.09
517.143	0.09
517.491	0.09
517.839	0.09
518.188	0.09
518.536	0.09
518.884	0.08
519.232	0.09
519.58	0.1
519.928	0.1
520.275	0.09
520.623	0.09
520.971	0.1
521.319	0.1
521.666	0.1
522.014	0.1
522.362	0.1
522.709	0.1
523.057	0.1
523.404	0.1
523.752	0.1
524.099	0.1
524.446	0.1
524.794	0.1
525.141	0.11
525.488	0.1
525.835	0.11
526.182	0.1
526.529	0.11
526.876	0.11
527.223	0.11
527.57	0.11
527.917	0.11
528.264	0.11
528.611	0.11
528.958	0.11
529.304	0.11
529.651	0.11
529.998	0.12
530.344	0.12
530.691	0.12
531.037	0.12
531.384	0.12
531.73	0.12
532.076	0.12
532.423	0.12
532.769	0.12
533.115	0.12
533.461	0.12
533.807	0.12
534.154	0.12
534.5	0.13
534.846	0.13
535.192	0.13
535.537	0.13
535.883	0.13
536.229	0.13
536.575	0.13
536.921	0.13
537.266	0.13
537.612	0.14
537.957	0.14
538.303	0.14
538.649	0.14
538.994	0.14
539.339	0.14
539.685	0.14
540.03	0.14
540.375	0.15
540.721	0.15
541.066	0.14
541.411	0.15
541.756	0.15
542.101	0.15
542.446	0.15
542.791	0.16
543.136	0.15
543.481	0.15
543.825	0.16
544.17	0.16
544.515	0.16
544.86	0.16
545.204	0.16
545.549	0.16
545.893	0.16
546.238	0.16
546.582	0.16
546.927	0.17
547.271	0.17
547.615	0.16
547.96	0.17
548.304	0.17
548.648	0.17
548.992	0.17
549.336	0.17
549.68	0.17
550.024	0.18
550.368	0.17
550.712	0.17
551.056	0.17
551.4	0.18
551.743	0.18
552.087	0.18
552.431	0.18
552.774	0.18
553.118	0.18
553.462	0.18
553.805	0.19
554.148	0.18
554.492	0.18
554.835	0.19
555.178	0.19
555.522	0.19
555.865	0.18
556.208	0.19
556.551	0.19
556.894	0.19
557.237	0.19
557.58	0.19
557.923	0.19
558.266	0.19
558.609	0.19
558.952	0.19
559.294	0.2
559.637	0.19
559.98	0.19
560.322	0.19
560.665	0.2
561.007	0.19
561.35	0.2
561.692	0.2
562.034	0.2
562.377	0.19
562.719	0.2
563.061	0.2
563.403	0.2
563.745	0.2
564.088	0.2
564.43	0.2
564.772	0.2
565.113	0.2
565.455	0.2
565.797	0.2
566.139	0.2
566.481	0.2
566.822	0.2
567.164	0.2
567.506	0.2
567.847	0.2
568.189	0.2
568.53	0.2
568.872	0.21
569.213	0.21
569.554	0.2
569.895	0.2
570.237	0.21
570.578	0.2
570.919	0.2
571.26	0.2
571.601	0.21
571.942	0.21
572.283	0.2
572.624	0.2
572.965	0.2
573.306	0.2
573.646	0.2
573.987	0.2
574.328	0.2
574.668	0.2
575.009	0.21
575.349	0.2
575.69	0.2
576.03	0.21
576.37	0.2
576.711	0.2
577.051	0.2
577.391	0.2
577.731	0.2
578.072	0.2
578.412	0.2
578.752	0.2
579.092	0.2
579.431	0.2
579.771	0.2
580.111	0.19
580.451	0.19
580.791	0.2
581.13	0.2
581.47	0.21
581.81	0.2
582.149	0.2
582.489	0.21
582.828	0.2
583.167	0.2
583.507	0.18
583.846	0.16
584.185	0.17
584.525	0.19
584.864	0.2
585.203	0.21
585.542	0.21
585.881	0.22
586.22	0.22
586.559	0.21
586.898	0.21
587.236	0.21
587.575	0.21
587.914	0.2
588.252	0.21
588.591	0.21
588.93	0.22
589.268	0.21
589.607	0.21
589.945	0.22
590.283	0.22
590.622	0.22
590.96	0.22
591.298	0.23
591.636	0.23
591.974	0.23
592.313	0.23
592.651	0.23
592.989	0.23
593.326	0.23
593.664	0.23
594.002	0.23
594.34	0.23
594.678	0.23
595.015	0.23
595.353	0.23
595.691	0.23
596.028	0.24
596.366	0.24
596.703	0.24
597.04	0.24
597.378	0.24
597.715	0.25
598.052	0.25
598.389	0.25
598.726	0.25
599.064	0.25
599.401	0.25
599.738	0.25
600.074	0.25
600.411	0.25
600.748	0.25
601.085	0.25
601.422	0.25
601.758	0.25
602.095	0.25
602.432	0.25
602.768	0.24
603.105	0.25
603.441	0.25
603.777	0.25
604.114	0.26
604.45	0.25
604.786	0.26
605.122	0.25
605.459	0.26
605.795	0.25
606.131	0.25
606.467	0.25
606.803	0.25
607.139	0.25
607.474	0.25
607.81	0.25
608.146	0.25
608.482	0.25
608.817	0.25
609.153	0.25
609.488	0.25
609.824	0.25
610.159	0.24
610.495	0.25
610.83	0.25
611.165	0.25
611.5	0.25
611.836	0.25
612.171	0.25
612.506	0.24
612.841	0.25
613.176	0.24
613.511	0.24
613.845	0.24
614.18	0.24
614.515	0.24
614.85	0.24
615.184	0.24
615.519	0.24
615.854	0.24
616.188	0.24
616.523	0.23
616.857	0.24
617.191	0.24
617.526	0.23
617.86	0.24
618.194	0.23
618.528	0.24
618.862	0.24
619.196	0.24
619.53	0.24
619.864	0.24
620.198	0.23
620.532	0.24
620.866	0.24
621.2	0.24
621.533	0.23
621.867	0.24
622.201	0.23
622.534	0.23
622.868	0.23
623.201	0.24
623.534	0.23
623.868	0.23
624.201	0.23
624.534	0.23
624.868	0.23
625.201	0.23
625.534	0.23
625.867	0.22
626.2	0.23
626.533	0.23
626.865	0.22
627.198	0.22
627.531	0.22
627.864	0.22
628.196	0.22
628.529	0.22
628.862	0.22
629.194	0.22
629.527	0.21
629.859	0.22
630.191	0.21
630.524	0.21
630.856	0.21
631.188	0.21
631.52	0.21
631.852	0.2
632.184	0.2
632.516	0.2
632.848	0.2
633.18	0.2
633.512	0.2
633.844	0.2
634.175	0.2
634.507	0.19
634.839	0.19
635.17	0.19
635.502	0.19
635.833	0.19
636.165	0.19
636.496	0.19
636.827	0.19
637.159	0.19
637.49	0.19
637.821	0.19
638.152	0.18
638.483	0.18
638.814	0.18
639.145	0.18
639.476	0.18
639.807	0.18
640.137	0.18
640.468	0.17
640.799	0.17
641.129	0.18
641.46	0.18
641.791	0.18
642.121	0.17
642.451	0.17
642.782	0.16
643.112	0.16
643.442	0.17
643.773	0.16
644.103	0.16
644.433	0.16
644.763	0.16
645.093	0.16
645.423	0.16
645.753	0.16
646.082	0.15
646.412	0.15
646.742	0.15
647.072	0.15
647.401	0.15
647.731	0.15
648.06	0.15
648.39	0.15
648.719	0.15
649.048	0.15
649.378	0.15
649.707	0.15
650.036	0.15
650.365	0.15
650.694	0.15
651.023	0.15
651.352	0.15
651.681	0.15
652.01	0.15
652.339	0.15
652.668	0.15
652.996	0.15
653.325	0.15
653.654	0.15
653.982	0.15
654.311	0.15
654.639	0.15
654.967	0.15
655.296	0.15
655.624	0.14
655.952	0.14
656.28	0.14
656.609	0.14
656.937	0.15
657.265	0.14
657.593	0.13
657.92	0.02
658.248	0
658.576	0
658.904	0.01
659.231	0.09
659.559	0.13
659.887	0.13
660.214	0.14
660.542	0.14
660.869	0.14
661.196	0.14
661.524	0.14
661.851	0.14
662.178	0.14
662.505	0.14
662.832	0.14
663.159	0.14
663.486	0.14
663.813	0.14
664.14	0.14
664.467	0.14
664.794	0.14
665.12	0.14
665.447	0.14
665.774	0.14
666.1	0.14
666.427	0.14
666.753	0.14
667.079	0.14
667.406	0.14
667.732	0.14
668.058	0.14
668.384	0.14
668.71	0.14
669.036	0.14
669.362	0.14
669.688	0.14
670.014	0.13
670.34	0.14
670.666	0.13
670.991	0.13
671.317	0.13
671.643	0.13
671.968	0.13
672.294	0.13
672.619	0.13
672.945	0.13
673.27	0.13
673.595	0.12
673.92	0.12
674.246	0.12
674.571	0.12
674.896	0.12
675.221	0.13
675.546	0.13
675.87	0.13
676.195	0.13
676.52	0.13
676.845	0.13
677.169	0.13
677.494	0.13
677.819	0.12
678.143	0.12
678.468	0.12
678.792	0.12
679.116	0.12
679.44	0.12
679.765	0.12
680.089	0.11
680.413	0.11
680.737	0.12
681.061	0.11
681.385	0.11
681.709	0.11
682.033	0.11
682.356	0.1
682.68	0.1
683.004	0.1
683.327	0.1
683.651	0.1
683.974	0.1
684.298	0.1
684.621	0.1
684.944	0.1
685.268	0.1
685.591	0.1
685.914	0.09
686.237	0.09
686.56	0.09
686.883	0.09
687.206	0.09
687.529	0.09
687.852	0.09
688.175	0.09
688.497	0.09
688.82	0.09
689.142	0.09
689.465	0.09
689.787	0.09
690.11	0.08
690.432	0.08
690.755	0.08
691.077	0.08
691.399	0.08
691.721	0.08
692.043	0.08
692.365	0.08
692.687	0.08
693.009	0.08
693.331	0.08
693.653	0.08
693.974	0.08
694.296	0.08
694.618	0.07
694.939	0.07
695.261	0.07
695.582	0.07
695.904	0.07
696.225	0.07
696.546	0.07
696.868	0.07
697.189	0.07
697.51	0.07
697.831	0.07
698.152	0.07
698.473	0.07
698.794	0.06
699.114	0.06
699.435	0.06
699.756	0.06
700.077	0.07
700.397	0.06
700.718	0.06
701.038	0.06
701.359	0.07
701.679	0.07
701.999	0.07
702.32	0.07
702.64	0.07
702.96	0.06
703.28	0.06
703.6	0.06
703.92	0.06
704.24	0.06
704.56	0.06
704.879	0.06
705.199	0.06
705.519	0.06
705.838	0.06
706.158	0.06
706.478	0.06
706.797	0.06
707.116	0.06
707.436	0.05
707.755	0.06
708.074	0.05
708.393	0.06
708.712	0.06
709.031	0.05
709.35	0.05
709.669	0.05
709.988	0.05
710.307	0.05
710.626	0.05
710.944	0.05
711.263	0.05
711.582	0.05
711.9	0.05
712.219	0.06
712.537	0.05
712.855	0.05
713.174	0.05
713.492	0.05
713.81	0.05
714.128	0.05
714.446	0.05
714.764	0.05
715.082	0.05
715.4	0.05
715.718	0.05
716.035	0.05
716.353	0.05
716.671	0.05
716.988	0.05
717.306	0.05
717.623	0.05
717.941	0.06
718.258	0.06
718.575	0.06
718.893	0.06
719.21	0.06
719.527	0.06
719.844	0.06
720.161	0.06
720.478	0.06
720.795	0.06
721.112	0.06
721.428	0.06
721.745	0.06
722.062	0.06
722.378	0.06
722.695	0.06
723.011	0.06
723.328	0.06
723.644	0.06
723.96	0.06
724.276	0.06
724.593	0.06
724.909	0.06
725.225	0.06
725.541	0.06
725.857	0.06
726.173	0.06
726.488	0.06
726.804	0.06
727.12	0.06
727.435	0.06
727.751	0.06
728.067	0.06
728.382	0.06
728.697	0.06
729.013	0.06
729.328	0.06
729.643	0.06
729.958	0.06
730.273	0.07
730.588	0.06
730.903	0.07
731.218	0.06
731.533	0.06
731.848	0.07
732.163	0.06
732.477	0.06
732.792	0.06
733.107	0.06
733.421	0.06
733.736	0.06
734.05	0.06
734.364	0.06
734.678	0.06
734.993	0.06
735.307	0.06
735.621	0.06
735.935	0.06
736.249	0.06
736.563	0.06
736.877	0.06
737.19	0.06
737.504	0.06
737.818	0.06
738.131	0.06
738.445	0.05
738.758	0.05
739.072	0.06
739.385	0.05
739.698	0.05
740.012	0.05
740.325	0.05
740.638	0.05
740.951	0.05
741.264	0.05
741.577	0.05
741.89	0.05
742.203	0.06
742.515	0.06
742.828	0.06
743.141	0.06
743.453	0.06
743.766	0.05
744.078	0.05
744.391	0.05
744.703	0.05
745.015	0.05
745.327	0.05
745.639	0.04
745.952	0.04
746.264	0.04
746.575	0.05
746.887	0.05
747.199	0.05
747.511	0.05
747.823	0.05
748.134	0.05
748.446	0.05
748.757	0.04
749.069	0.04
749.38	0.05
749.692	0.05
750.003	0.05
750.314	0.05
750.625	0.05
750.936	0.05
751.248	0.05
751.559	0.05
751.869	0.05
752.18	0.05
752.491	0.05
752.802	0.05
753.112	0.05
753.423	0.05
753.734	0.04
754.044	0.04
754.355	0.04
754.665	0.04
754.975	0.04
755.285	0.04
755.596	0.04
755.906	0.04
756.216	0.04
756.526	0.04
756.836	0.04
757.146	0.04
757.455	0.04
757.765	0.03
758.075	0.03
758.385	0.03
758.694	0.03
759.004	0.03
759.313	0.03
759.622	0.03
759.932	0.03
760.241	0.04
760.55	0.04
760.859	0.04
761.168	0.04
761.477	0.04
761.786	0.03
762.095	0.04
762.404	0.04
762.713	0.03
763.021	0.04
763.33	0.03
763.639	0.03
763.947	0.04
764.256	0.04
764.564	0.04
764.872	0.04
765.181	0.04
765.489	0.03
765.797	0.03
766.105	0.03
766.413	0.03
766.721	0.03
767.029	0.03
767.337	0.03
767.644	0.03
767.952	0.04
768.26	0.03
768.567	0.04
768.875	0.03
769.182	0.03
769.49	0.03
769.797	0.03
770.104	0.03
770.411	0.03
770.718	0.03
771.026	0.03
771.333	0.03
771.639	0.03
771.946	0.02
772.253	0.02
772.56	0.02
772.867	0.03
773.173	0.03
773.48	0.03
773.786	0.03
774.093	0.03
774.399	0.02
774.705	0.03
775.012	0.03
775.318	0.03
775.624	0.03
775.93	0.02
776.236	0.03
776.542	0.03
776.848	0.02
777.154	0.03
777.459	0.03
777.765	0.03
778.071	0.02
778.376	0.03
778.682	0.03
778.987	0.03
779.292	0.03
779.598	0.03
779.903	0.03
780.208	0.03
780.513	0.03
780.818	0.03
781.123	0.03
781.428	0.03
781.733	0.03
782.038	0.03
782.343	0.03
782.647	0.04
782.952	0.04
783.256	0.04
783.561	0.04
783.865	0.04
784.17	0.03
784.474	0.03
784.778	0.03
785.082	0.03
785.386	0.03
785.69	0.03
785.994	0.04
786.298	0.03
786.602	0.03
786.906	0.04
787.209	0.03
787.513	0.03
787.817	0.03
788.12	0.03
788.424	0.03
788.727	0.03
789.03	0.03
789.333	0.03
789.637	0.03
789.94	0.03
790.243	0.03
790.546	0.03
790.849	0.02
791.152	0.02
791.454	0.02
791.757	0.02
792.06	0.02
792.362	0.02
792.665	0.03
792.967	0.02
793.27	0.03
793.572	0.03
793.874	0.03
794.177	0.03
794.479	0.03
794.781	0.03
795.083	0.03
795.385	0.03
795.687	0.03
795.989	0.03
796.29	0.03
796.592	0.03
796.894	0.03
797.195	0.03
797.497	0.03
797.798	0.03
798.1	0.03
798.401	0.03
798.702	0.04
799.003	0.04
799.304	0.04
799.605	0.03
799.906	0.03
800.207	0.03
800.508	0.03
800.809	0.03
801.11	0.03
801.41	0.03
801.711	0.03
802.011	0.03
802.312	0.03
802.612	0.03
802.913	0.03
803.213	0.04
803.513	0.03
803.813	0.03
804.113	0.03
804.413	0.04
804.713	0.03
805.013	0.03
805.313	0.03
805.613	0.03
805.912	0.03
806.212	0.03
806.511	0.03
806.811	0.03
807.11	0.02
807.41	0.02
807.709	0.02
808.008	0.02
808.307	0.02
808.606	0.03
808.905	0.03
809.204	0.03
809.503	0.03
809.802	0.03
810.101	0.03
810.399	0.04
810.698	0.03
810.997	0.04
811.295	0.03
811.593	0.04
811.892	0.03
812.19	0.04
812.488	0.03
812.786	0.04
813.084	0.04
813.383	0.03
813.68	0.04
813.978	0.04
814.276	0.04
814.574	0.05
814.872	0.04
815.169	0.04
815.467	0.04
815.764	0.04
816.062	0.04
816.359	0.04
816.656	0.04
816.954	0.04
817.251	0.04
817.548	0.04
817.845	0.04
818.142	0.04
818.439	0.04
818.735	0.04
819.032	0.04
819.329	0.04
819.626	0.04
819.922	0.04
820.219	0.05
820.515	0.04
820.811	0.04
821.108	0.04
821.404	0.04
821.7	0.04
821.996	0.04
822.292	0.04
822.588	0.04
822.884	0.04
823.18	0.03
823.475	0.03
823.771	0.03
824.067	0.03
824.362	0.03
824.658	0.03
824.953	0.03
825.249	0.03
825.544	0.03
825.839	0.03
826.134	0.04
826.429	0.04
826.724	0.04
827.019	0.04
827.314	0.04
827.609	0.04
827.904	0.04
828.198	0.03
828.493	0.03
828.787	0.03
829.082	0.03
829.376	0.04
829.671	0.03
829.965	0.04
830.259	0.04
830.553	0.04
830.847	0.03
831.141	0.04
831.435	0.04
831.729	0.04
832.023	0.04
832.317	0.05
832.61	0.04
832.904	0.04
833.197	0.04
833.491	0.04
833.784	0.05
834.077	0.04
834.371	0.04
834.664	0.05
834.957	0.04
835.25	0.04
835.543	0.04
835.836	0.04
836.129	0.04
836.421	0.03
836.714	0.04
837.007	0.04
837.299	0.04
837.592	0.04
837.884	0.04
838.177	0.04
838.469	0.04
838.761	0.04
839.053	0.03
839.345	0.04
839.637	0.03
839.929	0.04
840.221	0.03
840.513	0.03
840.805	0.03
841.096	0.04
841.388	0.04
841.68	0.04
841.971	0.04
842.262	0.04
842.554	0.04
842.845	0.04
843.136	0.04
843.427	0.03
843.718	0.04
844.009	0.04
844.3	0.04
844.591	0.05
844.882	0.05
845.173	0.03
845.463	0.04
845.754	0.05
846.044	0.05
846.335	0.06
846.625	0.06
846.915	0.05
847.206	0.04
847.496	0.05
847.786	0.05
848.076	0.05
848.366	0.05
848.656	0.04
848.945	0.05
849.235	0.05
849.525	0.04
849.814	0.05
850.104	0.05
850.393	0.04
850.683	0.04
850.972	0.03
851.261	0.04
851.551	0.05
851.84	0.04
852.129	0.05
852.418	0.04
852.707	0.05
852.995	0.04
853.284	0.05
853.573	0.05
853.862	0.06
854.15	0.05
854.439	0.04
854.727	0.06
855.015	0.06
855.304	0.03
855.592	0.04
855.88	0.03
856.168	0.04
856.456	0.03
856.744	0.04
857.032	0.04
857.32	0.04
857.607	0.03
857.895	0.03
858.183	0.05
858.47	0.03
858.757	0.04
859.045	0.04
859.332	0.05
859.619	0.03
859.907	0.04
860.194	0.04
860.481	0.04
860.768	0.05
861.054	0.04
861.341	0.04
861.628	0.04
861.915	0.04
862.201	0.03
862.488	0.03
862.774	0.04
863.061	0.04
863.347	0.03
863.633	0.07
863.919	0.04
864.205	0.03
864.491	0.06
864.777	0.03
865.063	0.04
865.349	0.03
865.635	0.02
865.92	0.04
866.206	0.03
866.492	0.04
866.777	0.03
867.062	0.03
867.348	0.05
867.633	0.03
867.918	0.05
868.203	0.04
868.488	0.03
868.773	0.02
869.058	0.01
869.343	0.03
869.628	0.04
869.912	0.01
870.197	0.01
870.482	0.02
870.766	0.04
871.05	0.01
871.335	-0.01
871.619	0.04
871.903	0.01
872.187	0.05
872.471	0.02
872.755	0.02
873.039	0.02
873.323	0.05
873.607	0.04
873.89	0.04
874.174	0.06
874.458	0.02
874.741	0.01
875.024	-0.01
875.308	0.01
875.591	-0.01
875.874	-0.03
876.157	0.01
876.44	0.08
876.723	0.07
877.006	0.05
877.289	0.03
877.572	0.05
877.854	0.02
878.137	-0
878.42	0.01
878.702	-0.01
878.984	0.04
879.267	-0
879.549	0.07
879.831	-0.01
880.113	0.01
880.395	0.01
880.677	0.02
880.959	-0.02
