Data from Rubpy_BV_600_EDTA_Buffered_Absorbance_12-23-21-476.txt Node
Date: Wed Jul 01 12:23:21 BST 2026
User: fpm-admin
Spectrometer: OFX00224
Trigger mode: 0
Integration Time (sec): 7.000000E-2
Scans to average: 3
Nonlinearity correction enabled: false
Boxcar width: 0
Storing dark spectrum: false
XAxis mode: Wavelengths
Number of Pixels in Spectrum: 2136
>>>>>Begin Spectral Data<<<<<
154.91	-0.23
155.289	0.93
155.669	-0
156.048	-1.28
156.428	-0
156.807	-0
157.186	0.2
157.566	-1.23
157.945	-0
158.325	-0.27
158.704	-0.11
159.083	-0
159.462	-0
159.842	0.12
160.221	0.07
160.6	-0
160.979	0.43
161.359	-0.44
161.738	-0
162.117	-0
162.496	-0
162.875	-0
163.254	-0
163.633	-0
164.012	-0.26
164.391	-0.13
164.77	-0.12
165.149	0.01
165.528	-0
165.907	-0.51
166.286	-0
166.665	-0
167.044	-0
167.423	-0.33
167.802	-0
168.181	-0.04
168.559	-0.01
168.938	-0.78
169.317	0.18
169.696	-1.08
170.074	-0.21
170.453	-0
170.832	-0.04
171.21	-1.11
171.589	1.4
171.968	0.43
172.346	-0
172.725	-0
173.103	0.4
173.482	0.26
173.861	-0.3
174.239	-0.74
174.617	-0
174.996	-0
175.374	1.28
175.753	-0
176.131	0.07
176.51	-0.29
176.888	0.21
177.266	0.42
177.645	-0.03
178.023	0.14
178.401	-0.25
178.779	0.1
179.158	0.02
179.536	0.36
179.914	0.4
180.292	-0
180.67	-0.3
181.048	-0
181.427	0.12
181.805	0.49
182.183	-0.15
182.561	-0
182.939	0.25
183.317	-0
183.695	-0
184.073	0.5
184.451	-0.68
184.829	0.05
185.206	0.04
185.584	0.19
185.962	-0
186.34	-0.83
186.718	-0.35
187.096	-0.93
187.473	0.14
187.851	-0.24
188.229	-0
188.607	0.08
188.984	0.08
189.362	0.01
189.74	0.06
190.117	0.02
190.495	0.02
190.872	-0.07
191.25	0.01
191.627	0.01
192.005	0.06
192.382	-0.02
192.76	-0.03
193.137	0.11
193.515	-0.09
193.892	0.06
194.269	-0.01
194.647	0.14
195.024	0.07
195.401	0.08
195.779	-0.09
196.156	0.12
196.533	0.08
196.91	-0.03
197.288	-0.02
197.665	0.07
198.042	0.09
198.419	0.02
198.796	0
199.173	-0.05
199.55	-0.08
199.927	0.06
200.304	-0
200.681	0.1
201.058	-0.11
201.435	-0.01
201.812	0.08
202.189	0.11
202.566	-0.05
202.943	0.08
203.32	0.07
203.697	-0.01
204.073	-0.01
204.45	-0
204.827	0.08
205.204	-0.07
205.58	0.01
205.957	-0.06
206.334	0.08
206.71	0.1
207.087	0.04
207.464	0.03
207.84	0.01
208.217	0.04
208.593	0.05
208.97	-0.03
209.346	0.03
209.723	0.03
210.099	-0.07
210.476	-0.02
210.852	-0
211.228	0.07
211.605	0.05
211.981	0.12
212.357	-0.01
212.733	0.03
213.11	-0
213.486	-0.09
213.862	0.01
214.238	-0.01
214.614	0.07
214.991	0.08
215.367	0.04
215.743	0.07
216.119	0.03
216.495	0.14
216.871	0.12
217.247	0.09
217.623	0
217.999	-0
218.375	-0.02
218.751	0.09
219.127	-0.01
219.502	-0.01
219.878	0.05
220.254	0.06
220.63	0.01
221.006	0.02
221.381	0.05
221.757	0.05
222.133	0.08
222.508	0.02
222.884	0.05
223.26	0.01
223.635	0.05
224.011	0.04
224.386	0.06
224.762	0.05
225.137	0.04
225.513	0.03
225.888	0.02
226.264	-0.01
226.639	0.06
227.014	-0.02
227.39	-0.01
227.765	0.05
228.14	0.07
228.516	0.08
228.891	0.08
229.266	0.07
229.641	0.07
230.017	-0.02
230.392	0.06
230.767	0.04
231.142	0.14
231.517	0.03
231.892	0.08
232.267	0.07
232.642	0.01
233.017	0.02
233.392	-0.04
233.767	0.05
234.142	0.16
234.517	-0.06
234.892	0.11
235.267	0.04
235.641	0.05
236.016	-0.01
236.391	0.12
236.766	0.05
237.14	0.01
237.515	0.02
237.89	0
238.264	0.02
238.639	-0
239.014	0.08
239.388	-0
239.763	0.06
240.137	0.06
240.512	0.07
240.886	-0.06
241.261	0.04
241.635	0.11
242.009	0.12
242.384	0.05
242.758	-0.05
243.132	0.04
243.507	0.03
243.881	0.03
244.255	0.08
244.629	0.01
245.004	0.02
245.378	0.05
245.752	-0.02
246.126	0.04
246.5	-0.06
246.874	-0.01
247.248	0.05
247.622	0.01
247.996	-0.01
248.37	0.01
248.744	0.11
249.118	0.02
249.492	0.07
249.866	0.07
250.24	0.09
250.613	0.2
250.987	0.1
251.361	0.04
251.735	-0.01
252.108	0.03
252.482	0.04
252.856	-0.04
253.229	-0.04
253.603	0.01
253.977	0.07
254.35	0.06
254.724	0.06
255.097	0.1
255.471	0.02
255.844	0.02
256.218	-0.01
256.591	0.06
256.964	0.07
257.338	0.05
257.711	0.04
258.084	0.07
258.458	0
258.831	0.07
259.204	0.02
259.577	0.04
259.95	0.07
260.323	0.06
260.697	0.05
261.07	0.01
261.443	0.03
261.816	0.1
262.189	0.02
262.562	0.03
262.935	0.01
263.308	0.01
263.68	0.05
264.053	-0
264.426	0.06
264.799	0.1
265.172	0.03
265.545	0.04
265.917	0.08
266.29	0.07
266.663	0.05
267.035	0.05
267.408	0.06
267.781	0.1
268.153	0.04
268.526	0
268.898	0.04
269.271	0.08
269.643	-0.01
270.016	0.03
270.388	0.11
270.76	0.04
271.133	0.04
271.505	0.11
271.877	0.07
272.25	0.08
272.622	0.11
272.994	0.12
273.366	0.09
273.739	0.1
274.111	0.06
274.483	0.08
274.855	0.06
275.227	0.03
275.599	0.06
275.971	-0.01
276.343	0.08
276.715	0.08
277.087	0.02
277.459	-0
277.831	0.06
278.203	0.09
278.574	0.07
278.946	-0
279.318	0.08
279.69	0.08
280.061	0.07
280.433	0.09
280.805	0.08
281.176	0.08
281.548	0.09
281.92	0.07
282.291	0.06
282.663	0.04
283.034	0.1
283.406	0.05
283.777	0.06
284.148	0.05
284.52	0.07
284.891	0.03
285.262	0.05
285.634	0.05
286.005	0.07
286.376	0.06
286.747	0.07
287.119	0.06
287.49	0.07
287.861	0.02
288.232	0.07
288.603	0.02
288.974	0.08
289.345	0.06
289.716	0.08
290.087	0.06
290.458	0.03
290.829	0.05
291.2	0.05
291.571	0.04
291.941	-0
292.312	0.12
292.683	0.01
293.054	0.08
293.424	0
293.795	0.03
294.166	0.02
294.536	0.1
294.907	0.06
295.277	0.06
295.648	0.07
296.018	0.09
296.389	0.09
296.759	0.02
297.13	0.05
297.5	0.05
297.871	0.06
298.241	0.02
298.611	0
298.981	0
299.352	0.04
299.722	0.03
300.092	0.06
300.462	0.01
300.832	0.05
301.202	0.07
301.573	0.07
301.943	0.03
302.313	0.02
302.683	0.05
303.053	0.04
303.422	0.02
303.792	0.05
304.162	0.03
304.532	0.02
304.902	0.03
305.272	0.04
305.641	0.06
306.011	0.02
306.381	0
306.75	0.02
307.12	0.02
307.49	0.01
307.859	0.03
308.229	0.03
308.598	0.04
308.968	0.03
309.337	0.04
309.707	0.04
310.076	0.03
310.445	0.02
310.815	0.04
311.184	0.04
311.553	0.05
311.923	0.04
312.292	0.04
312.661	0.04
313.03	0.04
313.399	0.04
313.768	0.04
314.137	0.05
314.506	0.04
314.875	0.04
315.244	0.05
315.613	0.05
315.982	0.05
316.351	0.06
316.72	0.04
317.089	0.05
317.458	0.05
317.826	0.05
318.195	0.05
318.564	0.05
318.933	0.05
319.301	0.06
319.67	0.06
320.038	0.06
320.407	0.05
320.775	0.05
321.144	0.05
321.512	0.06
321.881	0.06
322.249	0.06
322.618	0.06
322.986	0.06
323.354	0.06
323.723	0.06
324.091	0.07
324.459	0.06
324.827	0.06
325.195	0.06
325.564	0.06
325.932	0.06
326.3	0.07
326.668	0.06
327.036	0.07
327.404	0.07
327.772	0.07
328.14	0.08
328.508	0.07
328.875	0.07
329.243	0.08
329.611	0.07
329.979	0.07
330.346	0.08
330.714	0.08
331.082	0.08
331.449	0.08
331.817	0.08
332.185	0.08
332.552	0.08
332.92	0.08
333.287	0.08
333.655	0.09
334.022	0.09
334.389	0.09
334.757	0.09
335.124	0.09
335.491	0.1
335.859	0.09
336.226	0.1
336.593	0.1
336.96	0.1
337.327	0.1
337.695	0.11
338.062	0.11
338.429	0.11
338.796	0.11
339.163	0.11
339.53	0.12
339.897	0.12
340.263	0.12
340.63	0.12
340.997	0.12
341.364	0.12
341.731	0.12
342.097	0.12
342.464	0.13
342.831	0.13
343.197	0.13
343.564	0.14
343.931	0.14
344.297	0.14
344.664	0.14
345.03	0.15
345.396	0.15
345.763	0.15
346.129	0.15
346.496	0.15
346.862	0.15
347.228	0.16
347.594	0.16
347.961	0.16
348.327	0.17
348.693	0.16
349.059	0.17
349.425	0.17
349.791	0.18
350.157	0.18
350.523	0.18
350.889	0.18
351.255	0.18
351.621	0.18
351.987	0.18
352.353	0.19
352.719	0.19
353.084	0.19
353.45	0.2
353.816	0.2
354.181	0.2
354.547	0.2
354.913	0.21
355.278	0.21
355.644	0.21
356.009	0.21
356.375	0.22
356.74	0.22
357.106	0.22
357.471	0.22
357.836	0.23
358.202	0.23
358.567	0.24
358.932	0.24
359.297	0.24
359.663	0.25
360.028	0.25
360.393	0.25
360.758	0.26
361.123	0.27
361.488	0.26
361.853	0.27
362.218	0.27
362.583	0.28
362.948	0.28
363.312	0.28
363.677	0.29
364.042	0.29
364.407	0.3
364.772	0.3
365.136	0.3
365.501	0.31
365.865	0.31
366.23	0.31
366.595	0.31
366.959	0.32
367.324	0.32
367.688	0.32
368.052	0.33
368.417	0.33
368.781	0.33
369.145	0.33
369.51	0.34
369.874	0.34
370.238	0.35
370.602	0.35
370.967	0.35
371.331	0.35
371.695	0.36
372.059	0.36
372.423	0.36
372.787	0.36
373.151	0.36
373.515	0.36
373.878	0.36
374.242	0.35
374.606	0.36
374.97	0.36
375.334	0.36
375.697	0.35
376.061	0.35
376.425	0.35
376.788	0.34
377.152	0.34
377.515	0.34
377.879	0.33
378.242	0.33
378.606	0.33
378.969	0.33
379.333	0.33
379.696	0.32
380.059	0.32
380.422	0.32
380.786	0.32
381.149	0.32
381.512	0.31
381.875	0.31
382.238	0.31
382.601	0.31
382.964	0.31
383.327	0.3
383.69	0.3
384.053	0.3
384.416	0.3
384.779	0.3
385.142	0.3
385.504	0.3
385.867	0.3
386.23	0.3
386.593	0.3
386.955	0.31
387.318	0.31
387.68	0.31
388.043	0.32
388.405	0.32
388.768	0.32
389.13	0.32
389.493	0.32
389.855	0.32
390.217	0.32
390.58	0.32
390.942	0.32
391.304	0.32
391.666	0.31
392.028	0.31
392.391	0.31
392.753	0.3
393.115	0.3
393.477	0.3
393.839	0.3
394.201	0.3
394.563	0.3
394.924	0.3
395.286	0.3
395.648	0.3
396.01	0.3
396.371	0.31
396.733	0.32
397.095	0.33
397.456	0.33
397.818	0.34
398.18	0.35
398.541	0.36
398.903	0.38
399.264	0.38
399.625	0.4
399.987	0.41
400.348	0.41
400.709	0.41
401.071	0.42
401.432	0.42
401.793	0.43
402.154	0.43
402.515	0.42
402.876	0.42
403.238	0.41
403.599	0.4
403.96	0.38
404.32	0.37
404.681	0.36
405.042	0.34
405.403	0.33
405.764	0.31
406.125	0.3
406.485	0.28
406.846	0.26
407.207	0.25
407.567	0.23
407.928	0.22
408.288	0.21
408.649	0.2
409.009	0.18
409.37	0.17
409.73	0.17
410.091	0.15
410.451	0.14
410.811	0.13
411.171	0.13
411.532	0.12
411.892	0.12
412.252	0.11
412.612	0.1
412.972	0.1
413.332	0.09
413.692	0.09
414.052	0.08
414.412	0.08
414.772	0.08
415.132	0.08
415.492	0.08
415.851	0.07
416.211	0.07
416.571	0.07
416.931	0.07
417.29	0.06
417.65	0.06
418.009	0.06
418.369	0.06
418.728	0.05
419.088	0.05
419.447	0.05
419.807	0.05
420.166	0.04
420.525	0.05
420.884	0.05
421.244	0.04
421.603	0.05
421.962	0.04
422.321	0.04
422.68	0.05
423.039	0.04
423.398	0.04
423.757	0.03
424.116	0.04
424.475	0.04
424.834	0.03
425.193	0.04
425.551	0.04
425.91	0.03
426.269	0.04
426.628	0.03
426.986	0.04
427.345	0.04
427.703	0.03
428.062	0.03
428.42	0.04
428.779	0.03
429.137	0.04
429.496	0.03
429.854	0.03
430.212	0.03
430.57	0.04
430.929	0.03
431.287	0.02
431.645	0.03
432.003	0.03
432.361	0.03
432.719	0.03
433.077	0.03
433.435	0.03
433.793	0.03
434.151	0.02
434.509	0.02
434.866	0.03
435.224	0.03
435.582	0.03
435.94	0.03
436.297	0.02
436.655	0.03
437.012	0.03
437.37	0.03
437.727	0.03
438.085	0.03
438.442	0.03
438.8	0.02
439.157	0.02
439.514	0.02
439.872	0.03
440.229	0.03
440.586	0.02
440.943	0.03
441.3	0.02
441.657	0.03
442.014	0.02
442.371	0.02
442.728	0.02
443.085	0.03
443.442	0.02
443.799	0.03
444.156	0.02
444.513	0.03
444.869	0.02
445.226	0.02
445.583	0.02
445.939	0.02
446.296	0.02
446.652	0.02
447.009	0.01
447.365	0.03
447.722	0.02
448.078	0.02
448.434	0.01
448.791	0.02
449.147	0.02
449.503	0.03
449.859	0.02
450.215	0.02
450.571	0.02
450.928	0.02
451.284	0.02
451.64	0.01
451.995	0.01
452.351	0.01
452.707	0.02
453.063	0.02
453.419	0.02
453.775	0.01
454.13	0.02
454.486	0.01
454.842	0.02
455.197	0.01
455.553	0.01
455.908	0
456.264	0.01
456.619	0.01
456.975	0.01
457.33	0.01
457.685	0
458.04	0
458.396	0
458.751	-0.01
459.106	-0.01
459.461	-0.01
459.816	-0.01
460.171	-0.01
460.526	-0.01
460.881	-0.01
461.236	-0.01
461.591	-0.02
461.946	-0.02
462.301	-0.02
462.655	-0.02
463.01	-0.02
463.365	-0.03
463.719	-0.04
464.074	-0.03
464.428	-0.04
464.783	-0.04
465.137	-0.03
465.492	-0.04
465.846	-0.04
466.201	-0.04
466.555	-0.03
466.909	-0.04
467.263	-0.03
467.618	-0.03
467.972	-0.04
468.326	-0.04
468.68	-0.04
469.034	-0.04
469.388	-0.04
469.742	-0.04
470.096	-0.04
470.45	-0.03
470.804	-0.04
471.157	-0.04
471.511	-0.04
471.865	-0.04
472.218	-0.03
472.572	-0.03
472.926	-0.03
473.279	-0.03
473.633	-0.02
473.986	-0.02
474.34	-0.02
474.693	-0.02
475.046	-0.01
475.4	-0.01
475.753	-0.01
476.106	-0
476.459	0
476.812	0.01
477.165	0.01
477.519	0.01
477.872	0.01
478.224	0.01
478.577	0.02
478.93	0.02
479.283	0.02
479.636	0.02
479.989	0.02
480.341	0.03
480.694	0.03
481.047	0.03
481.399	0.03
481.752	0.04
482.104	0.04
482.457	0.03
482.809	0.04
483.162	0.04
483.514	0.04
483.866	0.04
484.219	0.04
484.571	0.05
484.923	0.04
485.275	0.05
485.627	0.05
485.979	0.04
486.331	0.05
486.683	0.05
487.035	0.05
487.387	0.05
487.739	0.05
488.091	0.06
488.443	0.06
488.794	0.06
489.146	0.06
489.498	0.06
489.849	0.06
490.201	0.06
490.552	0.06
490.904	0.06
491.255	0.07
491.607	0.07
491.958	0.06
492.309	0.07
492.661	0.07
493.012	0.07
493.363	0.07
493.714	0.07
494.065	0.07
494.416	0.07
494.767	0.07
495.118	0.07
495.469	0.07
495.82	0.08
496.171	0.08
496.522	0.07
496.872	0.07
497.223	0.08
497.574	0.08
497.924	0.08
498.275	0.08
498.626	0.08
498.976	0.08
499.327	0.08
499.677	0.08
500.027	0.08
500.378	0.08
500.728	0.09
501.078	0.09
501.428	0.08
501.779	0.09
502.129	0.09
502.479	0.09
502.829	0.09
503.179	0.09
503.529	0.09
503.879	0.09
504.229	0.09
504.578	0.1
504.928	0.09
505.278	0.09
505.628	0.09
505.977	0.1
506.327	0.1
506.676	0.1
507.026	0.1
507.375	0.1
507.725	0.1
508.074	0.1
508.424	0.1
508.773	0.1
509.122	0.11
509.471	0.1
509.82	0.1
510.17	0.11
510.519	0.1
510.868	0.11
511.217	0.11
511.566	0.11
511.915	0.11
512.263	0.11
512.612	0.11
512.961	0.11
513.31	0.11
513.659	0.11
514.007	0.11
514.356	0.12
514.704	0.11
515.053	0.11
515.401	0.11
515.75	0.11
516.098	0.12
516.447	0.12
516.795	0.12
517.143	0.12
517.491	0.12
517.839	0.12
518.188	0.12
518.536	0.12
518.884	0.12
519.232	0.12
519.58	0.13
519.928	0.13
520.275	0.12
520.623	0.13
520.971	0.13
521.319	0.13
521.666	0.13
522.014	0.13
522.362	0.13
522.709	0.13
523.057	0.13
523.404	0.13
523.752	0.13
524.099	0.13
524.446	0.13
524.794	0.13
525.141	0.13
525.488	0.13
525.835	0.13
526.182	0.13
526.529	0.14
526.876	0.14
527.223	0.14
527.57	0.14
527.917	0.14
528.264	0.14
528.611	0.14
528.958	0.14
529.304	0.14
529.651	0.14
529.998	0.14
530.344	0.14
530.691	0.14
531.037	0.14
531.384	0.14
531.73	0.14
532.076	0.15
532.423	0.15
532.769	0.15
533.115	0.14
533.461	0.14
533.807	0.14
534.154	0.15
534.5	0.15
534.846	0.14
535.192	0.15
535.537	0.15
535.883	0.15
536.229	0.14
536.575	0.15
536.921	0.15
537.266	0.15
537.612	0.15
537.957	0.15
538.303	0.15
538.649	0.15
538.994	0.15
539.339	0.15
539.685	0.15
540.03	0.16
540.375	0.15
540.721	0.15
541.066	0.15
541.411	0.16
541.756	0.16
542.101	0.15
542.446	0.16
542.791	0.16
543.136	0.16
543.481	0.16
543.825	0.16
544.17	0.16
544.515	0.16
544.86	0.16
545.204	0.16
545.549	0.16
545.893	0.16
546.238	0.16
546.582	0.16
546.927	0.16
547.271	0.16
547.615	0.16
547.96	0.16
548.304	0.16
548.648	0.16
548.992	0.16
549.336	0.16
549.68	0.16
550.024	0.16
550.368	0.17
550.712	0.16
551.056	0.17
551.4	0.17
551.743	0.16
552.087	0.16
552.431	0.17
552.774	0.16
553.118	0.17
553.462	0.16
553.805	0.16
554.148	0.16
554.492	0.16
554.835	0.17
555.178	0.17
555.522	0.17
555.865	0.17
556.208	0.16
556.551	0.17
556.894	0.17
557.237	0.16
557.58	0.16
557.923	0.17
558.266	0.17
558.609	0.17
558.952	0.17
559.294	0.17
559.637	0.16
559.98	0.17
560.322	0.17
560.665	0.17
561.007	0.17
561.35	0.17
561.692	0.17
562.034	0.17
562.377	0.17
562.719	0.17
563.061	0.17
563.403	0.17
563.745	0.17
564.088	0.17
564.43	0.17
564.772	0.17
565.113	0.17
565.455	0.17
565.797	0.17
566.139	0.17
566.481	0.17
566.822	0.17
567.164	0.17
567.506	0.17
567.847	0.17
568.189	0.17
568.53	0.16
568.872	0.17
569.213	0.17
569.554	0.17
569.895	0.17
570.237	0.16
570.578	0.17
570.919	0.16
571.26	0.16
571.601	0.16
571.942	0.16
572.283	0.16
572.624	0.16
572.965	0.16
573.306	0.16
573.646	0.15
573.987	0.15
574.328	0.16
574.668	0.16
575.009	0.16
575.349	0.15
575.69	0.15
576.03	0.15
576.37	0.14
576.711	0.13
577.051	0.13
577.391	0.14
577.731	0.15
578.072	0.15
578.412	0.14
578.752	0.14
579.092	0.13
579.431	0.1
579.771	0.08
580.111	0.07
580.451	0.08
580.791	0.11
581.13	0.12
581.47	0.14
581.81	0.13
582.149	0.13
582.489	0.14
582.828	0.11
583.167	0.07
583.507	0.04
583.846	0.03
584.185	0.05
584.525	0.07
584.864	0.1
585.203	0.13
585.542	0.14
585.881	0.15
586.22	0.15
586.559	0.12
586.898	0.1
587.236	0.08
587.575	0.08
587.914	0.09
588.252	0.11
588.591	0.13
588.93	0.13
589.268	0.12
589.607	0.12
589.945	0.12
590.283	0.12
590.622	0.13
590.96	0.14
591.298	0.15
591.636	0.15
591.974	0.15
592.313	0.15
592.651	0.16
592.989	0.15
593.326	0.16
593.664	0.15
594.002	0.15
594.34	0.15
594.678	0.13
595.015	0.11
595.353	0.1
595.691	0.11
596.028	0.13
596.366	0.14
596.703	0.15
597.04	0.15
597.378	0.15
597.715	0.15
598.052	0.16
598.389	0.16
598.726	0.16
599.064	0.16
599.401	0.16
599.738	0.15
600.074	0.16
600.411	0.15
600.748	0.13
601.085	0.12
601.422	0.11
601.758	0.12
602.095	0.12
602.432	0.12
602.768	0.13
603.105	0.14
603.441	0.15
603.777	0.16
604.114	0.16
604.45	0.16
604.786	0.16
605.122	0.16
605.459	0.16
605.795	0.15
606.131	0.15
606.467	0.15
606.803	0.16
607.139	0.16
607.474	0.15
607.81	0.14
608.146	0.15
608.482	0.15
608.817	0.14
609.153	0.14
609.488	0.14
609.824	0.14
610.159	0.15
610.495	0.15
610.83	0.15
611.165	0.15
611.5	0.15
611.836	0.15
612.171	0.15
612.506	0.15
612.841	0.15
613.176	0.15
613.511	0.15
613.845	0.15
614.18	0.15
614.515	0.15
614.85	0.15
615.184	0.15
615.519	0.15
615.854	0.15
616.188	0.15
616.523	0.15
616.857	0.14
617.191	0.14
617.526	0.14
617.86	0.15
618.194	0.14
618.528	0.15
618.862	0.15
619.196	0.15
619.53	0.15
619.864	0.15
620.198	0.14
620.532	0.15
620.866	0.15
621.2	0.15
621.533	0.15
621.867	0.14
622.201	0.15
622.534	0.15
622.868	0.15
623.201	0.14
623.534	0.14
623.868	0.14
624.201	0.14
624.534	0.14
624.868	0.14
625.201	0.14
625.534	0.14
625.867	0.14
626.2	0.14
626.533	0.14
626.865	0.14
627.198	0.14
627.531	0.14
627.864	0.13
628.196	0.13
628.529	0.13
628.862	0.13
629.194	0.13
629.527	0.13
629.859	0.13
630.191	0.13
630.524	0.13
630.856	0.13
631.188	0.13
631.52	0.13
631.852	0.13
632.184	0.12
632.516	0.12
632.848	0.13
633.18	0.12
633.512	0.12
633.844	0.12
634.175	0.13
634.507	0.12
634.839	0.12
635.17	0.12
635.502	0.12
635.833	0.12
636.165	0.12
636.496	0.12
636.827	0.11
637.159	0.12
637.49	0.11
637.821	0.11
638.152	0.11
638.483	0.11
638.814	0.11
639.145	0.11
639.476	0.11
639.807	0.11
640.137	0.1
640.468	0.1
640.799	0.1
641.129	0.1
641.46	0.1
641.791	0.1
642.121	0.1
642.451	0.1
642.782	0.1
643.112	0.1
643.442	0.1
643.773	0.1
644.103	0.1
644.433	0.1
644.763	0.1
645.093	0.09
645.423	0.09
645.753	0.1
646.082	0.09
646.412	0.09
646.742	0.09
647.072	0.09
647.401	0.09
647.731	0.09
648.06	0.09
648.39	0.09
648.719	0.09
649.048	0.09
649.378	0.09
649.707	0.09
650.036	0.09
650.365	0.09
650.694	0.08
651.023	0.08
651.352	0.08
651.681	0.08
652.01	0.09
652.339	0.09
652.668	0.09
652.996	0.09
653.325	0.08
653.654	0.09
653.982	0.09
654.311	0.09
654.639	0.08
654.967	0.09
655.296	0.08
655.624	0.08
655.952	0.08
656.28	0.08
656.609	0.08
656.937	0.08
657.265	0.08
657.593	0
657.92	-0
658.248	-0
658.576	0
658.904	-0
659.231	0
659.559	0.04
659.887	0.08
660.214	0.08
660.542	0.08
660.869	0.08
661.196	0.08
661.524	0.08
661.851	0.08
662.178	0.08
662.505	0.08
662.832	0.08
663.159	0.08
663.486	0.08
663.813	0.08
664.14	0.08
664.467	0.08
664.794	0.08
665.12	0.08
665.447	0.08
665.774	0.08
666.1	0.08
666.427	0.08
666.753	0.08
667.079	0.08
667.406	0.08
667.732	0.07
668.058	0.08
668.384	0.08
668.71	0.08
669.036	0.07
669.362	0.07
669.688	0.08
670.014	0.07
670.34	0.08
670.666	0.07
670.991	0.07
671.317	0.07
671.643	0.07
671.968	0.07
672.294	0.07
672.619	0.07
672.945	0.06
673.27	0.06
673.595	0.06
673.92	0.05
674.246	0.05
674.571	0.05
674.896	0.06
675.221	0.06
675.546	0.06
675.87	0.06
676.195	0.06
676.52	0.06
676.845	0.06
677.169	0.06
677.494	0.06
677.819	0.06
678.143	0.05
678.468	0.05
678.792	0.05
679.116	0.05
679.44	0.05
679.765	0.05
680.089	0.04
680.413	0.04
680.737	0.04
681.061	0.04
681.385	0.04
681.709	0.03
682.033	0.03
682.356	0.03
682.68	0.04
683.004	0.03
683.327	0.03
683.651	0.03
683.974	0.03
684.298	0.03
684.621	0.03
684.944	0.03
685.268	0.03
685.591	0.03
685.914	0.02
686.237	0.02
686.56	0.01
686.883	0.01
687.206	0.01
687.529	0.01
687.852	0
688.175	0
688.497	0.01
688.82	0.01
689.142	0.01
689.465	0.01
689.787	0.01
690.11	0.01
690.432	0.01
690.755	0.01
691.077	0.01
691.399	0
691.721	0.01
692.043	0.01
692.365	0.01
692.687	0
693.009	0
693.331	0
693.653	0
693.974	0
694.296	0
694.618	0
694.939	0
695.261	0
695.582	0
695.904	0
696.225	0
696.546	0
696.868	0
697.189	0
697.51	0
697.831	0
698.152	0
698.473	0
698.794	0
699.114	-0
699.435	0
699.756	-0
700.077	0
700.397	0
700.718	0
701.038	0
701.359	0
701.679	0
701.999	0
702.32	0
702.64	0
702.96	0
703.28	0
703.6	0
703.92	0
704.24	0
704.56	0
704.879	-0
705.199	0
705.519	0
705.838	0
706.158	0
706.478	0
706.797	0
707.116	0
707.436	0
707.755	0
708.074	0
708.393	0
708.712	-0
709.031	0
709.35	-0
709.669	0
709.988	0
710.307	0
710.626	-0
710.944	0
711.263	0
711.582	0
711.9	0
712.219	0
712.537	0
712.855	0
713.174	-0
713.492	0
713.81	0
714.128	0
714.446	0
714.764	0
715.082	0
715.4	-0
715.718	0
716.035	-0
716.353	0
716.671	0
716.988	0
717.306	-0
717.623	0
717.941	0
718.258	0
718.575	0
718.893	0
719.21	0
719.527	0
719.844	-0
720.161	0
720.478	0
720.795	0
721.112	0
721.428	0
721.745	0
722.062	0
722.378	0
722.695	0
723.011	0
723.328	0
723.644	0
723.96	0
724.276	0
724.593	0
724.909	0
725.225	0
725.541	0
725.857	0
726.173	0
726.488	0
726.804	0
727.12	0
727.435	0
727.751	0
728.067	0
728.382	0
728.697	0
729.013	0
729.328	0
729.643	0
729.958	0
730.273	0
730.588	0
730.903	0
731.218	0
731.533	0
731.848	0
732.163	0
732.477	0
732.792	0
733.107	0
733.421	0
733.736	0
734.05	0
734.364	0
734.678	0
734.993	0
735.307	0
735.621	0
735.935	0
736.249	0
736.563	0
736.877	0
737.19	0
737.504	0
737.818	0
738.131	0
738.445	0
738.758	0.01
739.072	0
739.385	0.01
739.698	0.01
740.012	0.01
740.325	0.01
740.638	0.01
740.951	0
741.264	0
741.577	0
741.89	0.01
742.203	0.01
742.515	0.01
742.828	0.01
743.141	0.01
743.453	0.01
743.766	0.01
744.078	0.01
744.391	0.01
744.703	0.01
745.015	0.01
745.327	0.01
745.639	0.01
745.952	0.01
746.264	0.01
746.575	0.01
746.887	0.01
747.199	0.01
747.511	0.01
747.823	0.01
748.134	0.01
748.446	0.01
748.757	0.01
749.069	0.01
749.38	0.01
749.692	0.01
750.003	0.01
750.314	0.01
750.625	0.01
750.936	0
751.248	0
751.559	0
751.869	0
752.18	0
752.491	0
752.802	0
753.112	0
753.423	0
753.734	0
754.044	0
754.355	0
754.665	0
754.975	0
755.285	0
755.596	0
755.906	0
756.216	0
756.526	0
756.836	0
757.146	0
757.455	0
757.765	0
758.075	0
758.385	0
758.694	0
759.004	-0
759.313	-0
759.622	0
759.932	0
760.241	0
760.55	0
760.859	0
761.168	0
761.477	0
761.786	0
762.095	0
762.404	0
762.713	0
763.021	0
763.33	0
763.639	0
763.947	0
764.256	0
764.564	0
764.872	0
765.181	0
765.489	0
765.797	0
766.105	0
766.413	0
766.721	0
767.029	0
767.337	0
767.644	0
767.952	0
768.26	0
768.567	0.01
768.875	0
769.182	0
769.49	0.01
769.797	0.01
770.104	0.01
770.411	0.01
770.718	0.01
771.026	0.01
771.333	0.01
771.639	0.01
771.946	0.01
772.253	0.01
772.56	0.01
772.867	0.01
773.173	0.01
773.48	0.01
773.786	0.01
774.093	0.01
774.399	0.01
774.705	0.01
775.012	0.01
775.318	0.01
775.624	0.01
775.93	0.01
776.236	0.01
776.542	0.01
776.848	0.01
777.154	0.01
777.459	0.01
777.765	0.01
778.071	0
778.376	0
778.682	0
778.987	0
779.292	0.01
779.598	0
779.903	0.01
780.208	0.01
780.513	0.01
780.818	0.01
781.123	0.01
781.428	0.01
781.733	0.01
782.038	0.01
782.343	0.01
782.647	0.01
782.952	0.01
783.256	0.01
783.561	0.01
783.865	0.01
784.17	0.01
784.474	0.01
784.778	0.01
785.082	0.01
785.386	0.01
785.69	0.01
785.994	0.01
786.298	0.01
786.602	0.01
786.906	0.01
787.209	0.01
787.513	0.01
787.817	0.01
788.12	0.01
788.424	0.01
788.727	0.01
789.03	0
789.333	0
789.637	0
789.94	0
790.243	0.01
790.546	0.01
790.849	0.01
791.152	0.01
791.454	0.01
791.757	0.01
792.06	0.01
792.362	0.01
792.665	0.01
792.967	0.01
793.27	0
793.572	0
793.874	0
794.177	0
794.479	0
794.781	0.01
795.083	0.01
795.385	0.01
795.687	0.01
795.989	0.01
796.29	0.01
796.592	0.01
796.894	0.01
797.195	0.01
797.497	0.01
797.798	0.01
798.1	0.01
798.401	0.01
798.702	0.01
799.003	0.01
799.304	0.01
799.605	0.01
799.906	0.01
800.207	0.01
800.508	0.01
800.809	0.01
801.11	0.01
801.41	0.01
801.711	0.01
802.011	0.01
802.312	0.01
802.612	0.01
802.913	0.01
803.213	0
803.513	0
803.813	0
804.113	0
804.413	0
804.713	0.01
805.013	0
805.313	0.01
805.613	0.01
805.912	0.01
806.212	0.01
806.511	0.01
806.811	0.01
807.11	0.01
807.41	0.01
807.709	0.01
808.008	0
808.307	0.01
808.606	0.01
808.905	0.01
809.204	0.01
809.503	0.01
809.802	0.01
810.101	0
810.399	0.01
810.698	0.01
810.997	0
811.295	0
811.593	0.01
811.892	0.01
812.19	0
812.488	0.01
812.786	0
813.084	0
813.383	0
813.68	0.01
813.978	0.01
814.276	0.01
814.574	0.01
814.872	0.01
815.169	0.01
815.467	0.01
815.764	0.01
816.062	0.01
816.359	0.01
816.656	0.01
816.954	0.01
817.251	0.01
817.548	0.01
817.845	0.02
818.142	0.01
818.439	0.02
818.735	0.02
819.032	0.01
819.329	0.01
819.626	0.01
819.922	0.01
820.219	0.01
820.515	0.02
820.811	0.01
821.108	0.01
821.404	0.01
821.7	0.01
821.996	0.01
822.292	0.02
822.588	0.01
822.884	0.02
823.18	0.02
823.475	0.01
823.771	0.02
824.067	0.02
824.362	0.02
824.658	0.02
824.953	0.01
825.249	0.01
825.544	0.01
825.839	0.01
826.134	0.01
826.429	0.01
826.724	0.01
827.019	0.01
827.314	0.01
827.609	0.01
827.904	0.01
828.198	0.01
828.493	0.01
828.787	0.01
829.082	0.01
829.376	0.02
829.671	0.02
829.965	0.02
830.259	0.01
830.553	0.02
830.847	0.02
831.141	0.02
831.435	0.01
831.729	0.01
832.023	0.01
832.317	0.01
832.61	0.01
832.904	0.01
833.197	0.01
833.491	0.01
833.784	0.01
834.077	0.01
834.371	0.01
834.664	0.01
834.957	0.01
835.25	0.02
835.543	0.01
835.836	0.01
836.129	0.01
836.421	0.01
836.714	0.01
837.007	0.02
837.299	0.02
837.592	0.02
837.884	0.02
838.177	0.01
838.469	0.01
838.761	0.02
839.053	0.01
839.345	0.02
839.637	0.02
839.929	0.01
840.221	0.01
840.513	0.01
840.805	0.02
841.096	0.02
841.388	0.02
841.68	0.02
841.971	0.01
842.262	0.01
842.554	0.01
842.845	0.01
843.136	0.01
843.427	0.01
843.718	0.01
844.009	0.01
844.3	0.02
844.591	0.02
844.882	0.02
845.173	0.01
845.463	0.02
845.754	0.02
846.044	0.01
846.335	0.02
846.625	0.01
846.915	0.02
847.206	0.01
847.496	0.01
847.786	0.01
848.076	0.03
848.366	0.01
848.656	0.01
848.945	0.01
849.235	0.02
849.525	0.02
849.814	0.02
850.104	0.01
850.393	0.02
850.683	0.02
850.972	0.01
851.261	0.01
851.551	0.02
851.84	0.02
852.129	0.01
852.418	0.01
852.707	0.02
852.995	0.02
853.284	0.01
853.573	0.01
853.862	0.02
854.15	0.01
854.439	0.02
854.727	0.02
855.015	0.02
855.304	0.02
855.592	0.03
855.88	0.02
856.168	0.02
856.456	0.03
856.744	0.03
857.032	0.02
857.32	0.03
857.607	0.02
857.895	0.03
858.183	0.03
858.47	0.02
858.757	0.02
859.045	0.03
859.332	0.02
859.619	0.03
859.907	0.04
860.194	0.04
860.481	0.03
860.768	0.03
861.054	0.03
861.341	0.02
861.628	0.03
861.915	0.03
862.201	0.02
862.488	0.01
862.774	0.02
863.061	0.03
863.347	0.02
863.633	0.02
863.919	0.04
864.205	0.03
864.491	0.02
864.777	0.01
865.063	0.02
865.349	0.02
865.635	0.01
865.92	0.01
866.206	-0
866.492	0.02
866.777	0.04
867.062	0.01
867.348	0.02
867.633	0.02
867.918	0.01
868.203	0.04
868.488	0.01
868.773	0.03
869.058	0.03
869.343	0.02
869.628	0.01
869.912	0.03
870.197	0.01
870.482	0.03
870.766	0.01
871.05	-0
871.335	0.01
871.619	0.01
871.903	0.01
872.187	0.01
872.471	0
872.755	0.03
873.039	-0.01
873.323	0
873.607	0.03
873.89	0.02
874.174	0.04
874.458	-0
874.741	0.03
875.024	-0.01
875.308	0
875.591	-0.02
875.874	0.03
876.157	0.01
876.44	0.03
876.723	-0.01
877.006	0.01
877.289	0.01
877.572	-0.02
877.854	0
878.137	0.02
878.42	0.05
878.702	0.02
878.984	-0.04
879.267	0
879.549	0.01
879.831	0.06
880.113	-0.02
880.395	-0.09
880.677	0.02
880.959	-0.01
