Data from Rubpy_BV_600_EDTA_Buffered_Absorbance_12-48-12-623.txt Node
Date: Wed Jul 01 12:48:12 BST 2026
User: fpm-admin
Spectrometer: OFX00224
Trigger mode: 0
Integration Time (sec): 7.000000E-2
Scans to average: 3
Nonlinearity correction enabled: false
Boxcar width: 0
Storing dark spectrum: false
XAxis mode: Wavelengths
Number of Pixels in Spectrum: 2136
>>>>>Begin Spectral Data<<<<<
154.91	-0.26
155.289	-0.11
155.669	-0
156.048	-0
156.428	1.41
156.807	-0
157.186	0.01
157.566	-0
157.945	-0
158.325	-0.06
158.704	-0
159.083	-0.07
159.462	-0
159.842	-0
160.221	0.48
160.6	-0
160.979	0.43
161.359	-0.47
161.738	-0
162.117	-0
162.496	-0
162.875	-0
163.254	0.03
163.633	-0
164.012	0.22
164.391	-0
164.77	0.01
165.149	-0.11
165.528	-0
165.907	-0.11
166.286	-0
166.665	-0
167.044	-0
167.423	0.16
167.802	-0
168.181	0.45
168.559	-0.16
168.938	-0.6
169.317	-0
169.696	-1.3
170.074	0.65
170.453	-0
170.832	0.27
171.21	-0.92
171.589	0.4
171.968	-0
172.346	-0
172.725	-0
173.103	-0
173.482	0.61
173.861	-0
174.239	-1.11
174.617	-0
174.996	-0
175.374	-0
175.753	-0
176.131	-0
176.51	0.39
176.888	-0
177.266	-0
177.645	-0.02
178.023	0.55
178.401	-0.42
178.779	0.08
179.158	0.1
179.536	-0
179.914	-0.43
180.292	0.48
180.67	-0.3
181.048	0.5
181.427	-0.35
181.805	-0
182.183	-0.67
182.561	-0
182.939	0.39
183.317	1.35
183.695	0.27
184.073	-0
184.451	-0.2
184.829	-0
185.206	-0
185.584	0.02
185.962	-0
186.34	-0.67
186.718	-0.6
187.096	-0
187.473	-0
187.851	-0.31
188.229	-0
188.607	0.07
188.984	0.01
189.362	0.07
189.74	0.11
190.117	-0.03
190.495	0.08
190.872	0.06
191.25	0.02
191.627	0.04
192.005	0.12
192.382	0.1
192.76	0.07
193.137	0.1
193.515	0.01
193.892	0.16
194.269	0.09
194.647	0.12
195.024	0.04
195.401	0.06
195.779	0.15
196.156	0.09
196.533	0.1
196.91	0.17
197.288	-0.06
197.665	0.08
198.042	0.06
198.419	0.12
198.796	0.08
199.173	0.01
199.55	-0.01
199.927	0.11
200.304	0.11
200.681	0.14
201.058	-0.04
201.435	0.04
201.812	0.14
202.189	0.14
202.566	0.05
202.943	0.12
203.32	0.11
203.697	0.01
204.073	0.04
204.45	0.06
204.827	0.12
205.204	0.02
205.58	0.13
205.957	0.13
206.334	0.18
206.71	0.19
207.087	0.01
207.464	0.09
207.84	0.08
208.217	0.17
208.593	0.04
208.97	0.07
209.346	0.05
209.723	0.06
210.099	0
210.476	0.18
210.852	0.01
211.228	0.19
211.605	0.12
211.981	0.24
212.357	0.08
212.733	0.12
213.11	0.16
213.486	0.02
213.862	0.1
214.238	0.08
214.614	0.07
214.991	0.13
215.367	0.12
215.743	-0
216.119	0.03
216.495	0.11
216.871	0.07
217.247	0.03
217.623	0.08
217.999	0.07
218.375	0.04
218.751	0.09
219.127	0.02
219.502	0.14
219.878	0.07
220.254	0.08
220.63	0.13
221.006	0.12
221.381	0.15
221.757	0.1
222.133	0.11
222.508	0.15
222.884	0.06
223.26	0.1
223.635	0.05
224.011	0.03
224.386	0.14
224.762	0.12
225.137	0.16
225.513	0.11
225.888	0.06
226.264	0.05
226.639	0.12
227.014	0.16
227.39	0.15
227.765	0.13
228.14	0.15
228.516	0.12
228.891	0.23
229.266	0.15
229.641	0.11
230.017	0.06
230.392	0.21
230.767	0.14
231.142	0.15
231.517	0.09
231.892	0.19
232.267	0.17
232.642	-0.01
233.017	0.11
233.392	0.01
233.767	0.17
234.142	0.1
234.517	0.06
234.892	0.13
235.267	0.14
235.641	0.12
236.016	0.17
236.391	0.15
236.766	0.13
237.14	0.06
237.515	0.14
237.89	0.08
238.264	0.09
238.639	0.13
239.014	0.11
239.388	0.14
239.763	0.17
240.137	0.14
240.512	0.05
240.886	0.07
241.261	0.09
241.635	0.14
242.009	0.21
242.384	0.1
242.758	0.09
243.132	0.14
243.507	0.1
243.881	0.11
244.255	0.18
244.629	0.17
245.004	0.07
245.378	0.14
245.752	0.09
246.126	0.24
246.5	0.12
246.874	0.15
247.248	0.08
247.622	0.2
247.996	0.13
248.37	0.11
248.744	0.17
249.118	0.29
249.492	0.18
249.866	0.08
250.24	0.12
250.613	0.16
250.987	0.13
251.361	0.13
251.735	0.11
252.108	0.16
252.482	0.27
252.856	0.04
253.229	0.05
253.603	0.06
253.977	0.13
254.35	0.14
254.724	0.15
255.097	0.17
255.471	0.15
255.844	0.15
256.218	0.12
256.591	0.13
256.964	0.13
257.338	0.13
257.711	0.15
258.084	0.16
258.458	0.2
258.831	0.15
259.204	0.11
259.577	0.21
259.95	0.16
260.323	0.12
260.697	0.11
261.07	0.17
261.443	0.14
261.816	0.16
262.189	0.1
262.562	0.08
262.935	0.23
263.308	0.17
263.68	0.12
264.053	0.18
264.426	0.17
264.799	0.16
265.172	0.09
265.545	0.18
265.917	0.15
266.29	0.14
266.663	0.09
267.035	0.23
267.408	0.15
267.781	0.16
268.153	0.17
268.526	0.14
268.898	0.11
269.271	0.27
269.643	0.11
270.016	0.17
270.388	0.2
270.76	0.14
271.133	0.16
271.505	0.14
271.877	0.13
272.25	0.15
272.622	0.3
272.994	0.18
273.366	0.2
273.739	0.14
274.111	0.13
274.483	0.18
274.855	0.16
275.227	0.13
275.599	0.19
275.971	0.04
276.343	0.16
276.715	0.17
277.087	0.18
277.459	0.1
277.831	0.11
278.203	0.14
278.574	0.13
278.946	0.13
279.318	0.19
279.69	0.18
280.061	0.16
280.433	0.15
280.805	0.19
281.176	0.17
281.548	0.13
281.92	0.15
282.291	0.27
282.663	0.2
283.034	0.16
283.406	0.19
283.777	0.14
284.148	0.2
284.52	0.12
284.891	0.16
285.262	0.2
285.634	0.15
286.005	0.12
286.376	0.21
286.747	0.16
287.119	0.15
287.49	0.15
287.861	0.18
288.232	0.15
288.603	0.18
288.974	0.17
289.345	0.14
289.716	0.15
290.087	0.15
290.458	0.16
290.829	0.12
291.2	0.17
291.571	0.08
291.941	0.17
292.312	0.23
292.683	0.18
293.054	0.2
293.424	0.11
293.795	0.17
294.166	0.14
294.536	0.15
294.907	0.15
295.277	0.18
295.648	0.12
296.018	0.16
296.389	0.17
296.759	0.17
297.13	0.16
297.5	0.16
297.871	0.14
298.241	0.14
298.611	0.11
298.981	0.12
299.352	0.15
299.722	0.15
300.092	0.14
300.462	0.1
300.832	0.13
301.202	0.18
301.573	0.1
301.943	0.08
302.313	0.11
302.683	0.1
303.053	0.14
303.422	0.09
303.792	0.09
304.162	0.1
304.532	0.06
304.902	0.07
305.272	0.09
305.641	0.1
306.011	0.06
306.381	0.06
306.75	0.06
307.12	0.07
307.49	0.07
307.859	0.07
308.229	0.09
308.598	0.09
308.968	0.09
309.337	0.09
309.707	0.09
310.076	0.1
310.445	0.09
310.815	0.1
311.184	0.1
311.553	0.11
311.923	0.11
312.292	0.11
312.661	0.12
313.03	0.12
313.399	0.12
313.768	0.12
314.137	0.13
314.506	0.13
314.875	0.13
315.244	0.14
315.613	0.14
315.982	0.14
316.351	0.15
316.72	0.15
317.089	0.15
317.458	0.15
317.826	0.16
318.195	0.16
318.564	0.16
318.933	0.16
319.301	0.16
319.67	0.17
320.038	0.17
320.407	0.16
320.775	0.17
321.144	0.17
321.512	0.17
321.881	0.18
322.249	0.19
322.618	0.19
322.986	0.19
323.354	0.19
323.723	0.19
324.091	0.2
324.459	0.2
324.827	0.2
325.195	0.2
325.564	0.21
325.932	0.21
326.3	0.22
326.668	0.22
327.036	0.22
327.404	0.22
327.772	0.22
328.14	0.23
328.508	0.23
328.875	0.24
329.243	0.24
329.611	0.24
329.979	0.24
330.346	0.25
330.714	0.26
331.082	0.26
331.449	0.26
331.817	0.27
332.185	0.27
332.552	0.28
332.92	0.28
333.287	0.28
333.655	0.29
334.022	0.29
334.389	0.3
334.757	0.31
335.124	0.31
335.491	0.32
335.859	0.32
336.226	0.33
336.593	0.34
336.96	0.34
337.327	0.35
337.695	0.35
338.062	0.36
338.429	0.37
338.796	0.37
339.163	0.38
339.53	0.39
339.897	0.39
340.263	0.4
340.63	0.4
340.997	0.41
341.364	0.42
341.731	0.43
342.097	0.44
342.464	0.44
342.831	0.44
343.197	0.46
343.564	0.47
343.931	0.47
344.297	0.48
344.664	0.49
345.03	0.49
345.396	0.5
345.763	0.5
346.129	0.52
346.496	0.52
346.862	0.53
347.228	0.54
347.594	0.54
347.961	0.55
348.327	0.56
348.693	0.56
349.059	0.57
349.425	0.58
349.791	0.58
350.157	0.59
350.523	0.6
350.889	0.6
351.255	0.61
351.621	0.62
351.987	0.62
352.353	0.64
352.719	0.64
353.084	0.65
353.45	0.66
353.816	0.66
354.181	0.67
354.547	0.69
354.913	0.68
355.278	0.69
355.644	0.71
356.009	0.72
356.375	0.73
356.74	0.74
357.106	0.74
357.471	0.76
357.836	0.76
358.202	0.77
358.567	0.78
358.932	0.79
359.297	0.8
359.663	0.81
360.028	0.83
360.393	0.84
360.758	0.84
361.123	0.87
361.488	0.87
361.853	0.89
362.218	0.9
362.583	0.9
362.948	0.9
363.312	0.92
363.677	0.94
364.042	0.95
364.407	0.96
364.772	0.97
365.136	0.96
365.501	0.99
365.865	0.99
366.23	1
366.595	1.01
366.959	1.02
367.324	1.03
367.688	1.03
368.052	1.05
368.417	1.06
368.781	1.06
369.145	1.06
369.51	1.08
369.874	1.1
370.238	1.09
370.602	1.1
370.967	1.11
371.331	1.11
371.695	1.11
372.059	1.12
372.423	1.12
372.787	1.13
373.151	1.13
373.515	1.12
373.878	1.12
374.242	1.11
374.606	1.11
374.97	1.09
375.334	1.08
375.697	1.08
376.061	1.07
376.425	1.07
376.788	1.06
377.152	1.05
377.515	1.04
377.879	1.03
378.242	1.02
378.606	1.01
378.969	1
379.333	0.99
379.696	0.98
380.059	0.97
380.422	0.96
380.786	0.94
381.149	0.93
381.512	0.92
381.875	0.92
382.238	0.9
382.601	0.89
382.964	0.89
383.327	0.88
383.69	0.88
384.053	0.87
384.416	0.86
384.779	0.86
385.142	0.85
385.504	0.85
385.867	0.84
386.23	0.84
386.593	0.84
386.955	0.84
387.318	0.84
387.68	0.84
388.043	0.84
388.405	0.84
388.768	0.84
389.13	0.84
389.493	0.84
389.855	0.83
390.217	0.83
390.58	0.81
390.942	0.82
391.304	0.81
391.666	0.79
392.028	0.79
392.391	0.78
392.753	0.77
393.115	0.77
393.477	0.76
393.839	0.75
394.201	0.75
394.563	0.74
394.924	0.74
395.286	0.74
395.648	0.75
396.01	0.75
396.371	0.76
396.733	0.77
397.095	0.78
397.456	0.8
397.818	0.82
398.18	0.83
398.541	0.85
398.903	0.88
399.264	0.9
399.625	0.92
399.987	0.94
400.348	0.95
400.709	0.96
401.071	0.98
401.432	0.98
401.793	0.98
402.154	0.97
402.515	0.96
402.876	0.95
403.238	0.94
403.599	0.91
403.96	0.87
404.32	0.84
404.681	0.82
405.042	0.79
405.403	0.76
405.764	0.72
406.125	0.69
406.485	0.64
406.846	0.61
407.207	0.58
407.567	0.55
407.928	0.52
408.288	0.49
408.649	0.47
409.009	0.43
409.37	0.41
409.73	0.39
410.091	0.37
410.451	0.35
410.811	0.33
411.171	0.31
411.532	0.29
411.892	0.28
412.252	0.27
412.612	0.25
412.972	0.24
413.332	0.23
413.692	0.23
414.052	0.21
414.412	0.2
414.772	0.2
415.132	0.19
415.492	0.18
415.851	0.17
416.211	0.17
416.571	0.17
416.931	0.16
417.29	0.16
417.65	0.15
418.009	0.15
418.369	0.15
418.728	0.14
419.088	0.13
419.447	0.13
419.807	0.13
420.166	0.13
420.525	0.12
420.884	0.12
421.244	0.12
421.603	0.12
421.962	0.11
422.321	0.11
422.68	0.11
423.039	0.11
423.398	0.1
423.757	0.1
424.116	0.11
424.475	0.11
424.834	0.09
425.193	0.1
425.551	0.09
425.91	0.1
426.269	0.1
426.628	0.09
426.986	0.1
427.345	0.1
427.703	0.09
428.062	0.09
428.42	0.09
428.779	0.09
429.137	0.09
429.496	0.09
429.854	0.09
430.212	0.08
430.57	0.09
430.929	0.08
431.287	0.08
431.645	0.09
432.003	0.08
432.361	0.09
432.719	0.08
433.077	0.08
433.435	0.08
433.793	0.09
434.151	0.07
434.509	0.09
434.866	0.08
435.224	0.08
435.582	0.08
435.94	0.08
436.297	0.08
436.655	0.08
437.012	0.08
437.37	0.09
437.727	0.08
438.085	0.07
438.442	0.08
438.8	0.07
439.157	0.08
439.514	0.08
439.872	0.08
440.229	0.08
440.586	0.07
440.943	0.07
441.3	0.08
441.657	0.08
442.014	0.07
442.371	0.08
442.728	0.08
443.085	0.08
443.442	0.08
443.799	0.08
444.156	0.08
444.513	0.08
444.869	0.08
445.226	0.08
445.583	0.08
445.939	0.09
446.296	0.07
446.652	0.08
447.009	0.08
447.365	0.09
447.722	0.08
448.078	0.08
448.434	0.07
448.791	0.08
449.147	0.08
449.503	0.08
449.859	0.08
450.215	0.08
450.571	0.07
450.928	0.08
451.284	0.07
451.64	0.08
451.995	0.08
452.351	0.08
452.707	0.08
453.063	0.07
453.419	0.08
453.775	0.08
454.13	0.08
454.486	0.08
454.842	0.08
455.197	0.08
455.553	0.08
455.908	0.08
456.264	0.07
456.619	0.08
456.975	0.07
457.33	0.07
457.685	0.07
458.04	0.07
458.396	0.06
458.751	0.06
459.106	0.07
459.461	0.06
459.816	0.06
460.171	0.06
460.526	0.06
460.881	0.06
461.236	0.06
461.591	0.05
461.946	0.06
462.301	0.06
462.655	0.06
463.01	0.06
463.365	0.06
463.719	0.05
464.074	0.05
464.428	0.05
464.783	0.05
465.137	0.05
465.492	0.04
465.846	0.04
466.201	0.04
466.555	0.05
466.909	0.05
467.263	0.06
467.618	0.05
467.972	0.06
468.326	0.06
468.68	0.06
469.034	0.05
469.388	0.05
469.742	0.05
470.096	0.05
470.45	0.06
470.804	0.06
471.157	0.06
471.511	0.06
471.865	0.06
472.218	0.07
472.572	0.07
472.926	0.07
473.279	0.08
473.633	0.08
473.986	0.08
474.34	0.09
474.693	0.1
475.046	0.1
475.4	0.1
475.753	0.11
476.106	0.12
476.459	0.12
476.812	0.12
477.165	0.13
477.519	0.13
477.872	0.13
478.224	0.13
478.577	0.14
478.93	0.15
479.283	0.15
479.636	0.15
479.989	0.16
480.341	0.16
480.694	0.16
481.047	0.16
481.399	0.17
481.752	0.18
482.104	0.18
482.457	0.18
482.809	0.18
483.162	0.19
483.514	0.19
483.866	0.19
484.219	0.19
484.571	0.19
484.923	0.2
485.275	0.2
485.627	0.2
485.979	0.21
486.331	0.21
486.683	0.21
487.035	0.21
487.387	0.21
487.739	0.22
488.091	0.23
488.443	0.23
488.794	0.23
489.146	0.23
489.498	0.23
489.849	0.24
490.201	0.24
490.552	0.23
490.904	0.24
491.255	0.24
491.607	0.25
491.958	0.25
492.309	0.25
492.661	0.25
493.012	0.25
493.363	0.26
493.714	0.26
494.065	0.26
494.416	0.26
494.767	0.27
495.118	0.26
495.469	0.27
495.82	0.28
496.171	0.27
496.522	0.27
496.872	0.28
497.223	0.28
497.574	0.28
497.924	0.29
498.275	0.29
498.626	0.29
498.976	0.3
499.327	0.3
499.677	0.3
500.027	0.3
500.378	0.3
500.728	0.3
501.078	0.31
501.428	0.31
501.779	0.31
502.129	0.32
502.479	0.32
502.829	0.32
503.179	0.32
503.529	0.33
503.879	0.32
504.229	0.33
504.578	0.33
504.928	0.33
505.278	0.33
505.628	0.34
505.977	0.33
506.327	0.34
506.676	0.34
507.026	0.35
507.375	0.35
507.725	0.35
508.074	0.35
508.424	0.35
508.773	0.36
509.122	0.36
509.471	0.36
509.82	0.36
510.17	0.36
510.519	0.36
510.868	0.37
511.217	0.37
511.566	0.37
511.915	0.38
512.263	0.37
512.612	0.38
512.961	0.38
513.31	0.38
513.659	0.38
514.007	0.38
514.356	0.39
514.704	0.39
515.053	0.39
515.401	0.39
515.75	0.4
516.098	0.4
516.447	0.4
516.795	0.4
517.143	0.41
517.491	0.41
517.839	0.41
518.188	0.41
518.536	0.41
518.884	0.41
519.232	0.41
519.58	0.41
519.928	0.42
520.275	0.41
520.623	0.42
520.971	0.42
521.319	0.43
521.666	0.42
522.014	0.42
522.362	0.43
522.709	0.43
523.057	0.43
523.404	0.43
523.752	0.43
524.099	0.44
524.446	0.44
524.794	0.44
525.141	0.44
525.488	0.45
525.835	0.44
526.182	0.44
526.529	0.45
526.876	0.45
527.223	0.45
527.57	0.45
527.917	0.46
528.264	0.46
528.611	0.46
528.958	0.46
529.304	0.46
529.651	0.46
529.998	0.46
530.344	0.46
530.691	0.47
531.037	0.46
531.384	0.46
531.73	0.47
532.076	0.47
532.423	0.47
532.769	0.47
533.115	0.47
533.461	0.47
533.807	0.47
534.154	0.47
534.5	0.48
534.846	0.47
535.192	0.48
535.537	0.48
535.883	0.48
536.229	0.48
536.575	0.48
536.921	0.49
537.266	0.48
537.612	0.48
537.957	0.48
538.303	0.49
538.649	0.49
538.994	0.49
539.339	0.49
539.685	0.49
540.03	0.49
540.375	0.5
540.721	0.49
541.066	0.5
541.411	0.5
541.756	0.5
542.101	0.49
542.446	0.5
542.791	0.5
543.136	0.5
543.481	0.5
543.825	0.5
544.17	0.5
544.515	0.5
544.86	0.5
545.204	0.5
545.549	0.51
545.893	0.51
546.238	0.51
546.582	0.51
546.927	0.51
547.271	0.51
547.615	0.51
547.96	0.51
548.304	0.51
548.648	0.51
548.992	0.51
549.336	0.51
549.68	0.51
550.024	0.51
550.368	0.52
550.712	0.51
551.056	0.51
551.4	0.52
551.743	0.52
552.087	0.52
552.431	0.52
552.774	0.52
553.118	0.51
553.462	0.52
553.805	0.51
554.148	0.52
554.492	0.51
554.835	0.52
555.178	0.52
555.522	0.51
555.865	0.51
556.208	0.51
556.551	0.51
556.894	0.51
557.237	0.51
557.58	0.51
557.923	0.51
558.266	0.51
558.609	0.52
558.952	0.51
559.294	0.52
559.637	0.51
559.98	0.51
560.322	0.51
560.665	0.52
561.007	0.51
561.35	0.51
561.692	0.51
562.034	0.51
562.377	0.51
562.719	0.51
563.061	0.51
563.403	0.51
563.745	0.51
564.088	0.51
564.43	0.51
564.772	0.51
565.113	0.51
565.455	0.51
565.797	0.51
566.139	0.51
566.481	0.5
566.822	0.51
567.164	0.5
567.506	0.51
567.847	0.51
568.189	0.5
568.53	0.5
568.872	0.5
569.213	0.5
569.554	0.5
569.895	0.5
570.237	0.5
570.578	0.5
570.919	0.5
571.26	0.49
571.601	0.49
571.942	0.49
572.283	0.49
572.624	0.49
572.965	0.49
573.306	0.48
573.646	0.48
573.987	0.48
574.328	0.48
574.668	0.48
575.009	0.48
575.349	0.47
575.69	0.47
576.03	0.46
576.37	0.46
576.711	0.45
577.051	0.45
577.391	0.45
577.731	0.47
578.072	0.46
578.412	0.46
578.752	0.46
579.092	0.44
579.431	0.41
579.771	0.39
580.111	0.37
580.451	0.38
580.791	0.41
581.13	0.44
581.47	0.45
581.81	0.45
582.149	0.44
582.489	0.45
582.828	0.41
583.167	0.37
583.507	0.34
583.846	0.32
584.185	0.35
584.525	0.37
584.864	0.4
585.203	0.44
585.542	0.45
585.881	0.45
586.22	0.45
586.559	0.43
586.898	0.4
587.236	0.38
587.575	0.38
587.914	0.39
588.252	0.41
588.591	0.43
588.93	0.43
589.268	0.42
589.607	0.42
589.945	0.42
590.283	0.42
590.622	0.43
590.96	0.44
591.298	0.45
591.636	0.45
591.974	0.45
592.313	0.46
592.651	0.46
592.989	0.46
593.326	0.46
593.664	0.46
594.002	0.46
594.34	0.44
594.678	0.43
595.015	0.41
595.353	0.39
595.691	0.41
596.028	0.43
596.366	0.44
596.703	0.45
597.04	0.45
597.378	0.45
597.715	0.46
598.052	0.46
598.389	0.46
598.726	0.46
599.064	0.46
599.401	0.45
599.738	0.45
600.074	0.45
600.411	0.44
600.748	0.43
601.085	0.41
601.422	0.4
601.758	0.41
602.095	0.41
602.432	0.41
602.768	0.42
603.105	0.43
603.441	0.44
603.777	0.45
604.114	0.45
604.45	0.46
604.786	0.45
605.122	0.45
605.459	0.44
605.795	0.44
606.131	0.44
606.467	0.44
606.803	0.44
607.139	0.44
607.474	0.44
607.81	0.43
608.146	0.43
608.482	0.43
608.817	0.43
609.153	0.42
609.488	0.42
609.824	0.42
610.159	0.43
610.495	0.43
610.83	0.43
611.165	0.43
611.5	0.43
611.836	0.43
612.171	0.43
612.506	0.43
612.841	0.43
613.176	0.42
613.511	0.43
613.845	0.42
614.18	0.42
614.515	0.42
614.85	0.42
615.184	0.42
615.519	0.42
615.854	0.42
616.188	0.41
616.523	0.41
616.857	0.41
617.191	0.41
617.526	0.41
617.86	0.41
618.194	0.4
618.528	0.41
618.862	0.41
619.196	0.41
619.53	0.41
619.864	0.4
620.198	0.4
620.532	0.4
620.866	0.4
621.2	0.4
621.533	0.4
621.867	0.4
622.201	0.4
622.534	0.39
622.868	0.39
623.201	0.39
623.534	0.39
623.868	0.38
624.201	0.38
624.534	0.38
624.868	0.38
625.201	0.38
625.534	0.38
625.867	0.38
626.2	0.37
626.533	0.38
626.865	0.37
627.198	0.37
627.531	0.37
627.864	0.37
628.196	0.36
628.529	0.36
628.862	0.36
629.194	0.36
629.527	0.35
629.859	0.35
630.191	0.35
630.524	0.35
630.856	0.35
631.188	0.35
631.52	0.35
631.852	0.34
632.184	0.34
632.516	0.34
632.848	0.34
633.18	0.33
633.512	0.33
633.844	0.33
634.175	0.33
634.507	0.33
634.839	0.33
635.17	0.32
635.502	0.32
635.833	0.32
636.165	0.32
636.496	0.32
636.827	0.31
637.159	0.31
637.49	0.31
637.821	0.3
638.152	0.3
638.483	0.3
638.814	0.3
639.145	0.29
639.476	0.29
639.807	0.29
640.137	0.29
640.468	0.29
640.799	0.28
641.129	0.28
641.46	0.28
641.791	0.28
642.121	0.28
642.451	0.27
642.782	0.28
643.112	0.28
643.442	0.28
643.773	0.28
644.103	0.27
644.433	0.27
644.763	0.27
645.093	0.26
645.423	0.26
645.753	0.26
646.082	0.26
646.412	0.26
646.742	0.26
647.072	0.25
647.401	0.25
647.731	0.25
648.06	0.25
648.39	0.25
648.719	0.25
649.048	0.25
649.378	0.25
649.707	0.25
650.036	0.24
650.365	0.24
650.694	0.24
651.023	0.24
651.352	0.24
651.681	0.24
652.01	0.24
652.339	0.24
652.668	0.24
652.996	0.24
653.325	0.23
653.654	0.24
653.982	0.23
654.311	0.23
654.639	0.23
654.967	0.23
655.296	0.23
655.624	0.23
655.952	0.23
656.28	0.23
656.609	0.23
656.937	0.23
657.265	0.22
657.593	0.07
657.92	0
658.248	0
658.576	-0
658.904	0.04
659.231	0.12
659.559	0.18
659.887	0.22
660.214	0.22
660.542	0.22
660.869	0.22
661.196	0.22
661.524	0.22
661.851	0.22
662.178	0.22
662.505	0.21
662.832	0.21
663.159	0.21
663.486	0.21
663.813	0.21
664.14	0.21
664.467	0.21
664.794	0.21
665.12	0.21
665.447	0.21
665.774	0.21
666.1	0.21
666.427	0.21
666.753	0.21
667.079	0.2
667.406	0.2
667.732	0.2
668.058	0.2
668.384	0.2
668.71	0.2
669.036	0.2
669.362	0.19
669.688	0.19
670.014	0.19
670.34	0.19
670.666	0.19
670.991	0.19
671.317	0.19
671.643	0.18
671.968	0.18
672.294	0.18
672.619	0.18
672.945	0.17
673.27	0.17
673.595	0.17
673.92	0.16
674.246	0.16
674.571	0.16
674.896	0.16
675.221	0.16
675.546	0.16
675.87	0.16
676.195	0.16
676.52	0.16
676.845	0.16
677.169	0.16
677.494	0.16
677.819	0.16
678.143	0.15
678.468	0.15
678.792	0.15
679.116	0.15
679.44	0.14
679.765	0.14
680.089	0.13
680.413	0.13
680.737	0.13
681.061	0.12
681.385	0.12
681.709	0.11
682.033	0.11
682.356	0.12
682.68	0.12
683.004	0.12
683.327	0.11
683.651	0.11
683.974	0.11
684.298	0.11
684.621	0.11
684.944	0.11
685.268	0.11
685.591	0.1
685.914	0.09
686.237	0.09
686.56	0.08
686.883	0.07
687.206	0.07
687.529	0.06
687.852	0.06
688.175	0.06
688.497	0.07
688.82	0.07
689.142	0.07
689.465	0.06
689.787	0.07
690.11	0.07
690.432	0.07
690.755	0.06
691.077	0.06
691.399	0.06
691.721	0.06
692.043	0.06
692.365	0.05
692.687	0.05
693.009	0.05
693.331	0.04
693.653	0.04
693.974	0.04
694.296	0.04
694.618	0.04
694.939	0.04
695.261	0.03
695.582	0.04
695.904	0.03
696.225	0.04
696.546	0.04
696.868	0.04
697.189	0.04
697.51	0.03
697.831	0.03
698.152	0.03
698.473	0.03
698.794	0.02
699.114	0.02
699.435	0.01
699.756	0.01
700.077	0.02
700.397	0.02
700.718	0.03
701.038	0.03
701.359	0.03
701.679	0.03
701.999	0.03
702.32	0.03
702.64	0.03
702.96	0.03
703.28	0.03
703.6	0.03
703.92	0.02
704.24	0.02
704.56	0.01
704.879	0.01
705.199	0.02
705.519	0.02
705.838	0.02
706.158	0.02
706.478	0.01
706.797	0.02
707.116	0.02
707.436	0.02
707.755	0.02
708.074	0.02
708.393	0.01
708.712	0.01
709.031	0
709.35	0
709.669	0
709.988	0
710.307	0
710.626	0
710.944	0.01
711.263	0.01
711.582	0.01
711.9	0.01
712.219	0.01
712.537	0.01
712.855	0.01
713.174	0.01
713.492	0.01
713.81	0.01
714.128	0.01
714.446	0.01
714.764	0.01
715.082	0
715.4	0.01
715.718	0.01
716.035	0.01
716.353	0.01
716.671	0.01
716.988	0.01
717.306	0
717.623	0.01
717.941	0.01
718.258	0.02
718.575	0.02
718.893	0.02
719.21	0.01
719.527	0.02
719.844	0.01
720.161	0.02
720.478	0.01
720.795	0.01
721.112	0.01
721.428	0.02
721.745	0.02
722.062	0.02
722.378	0.02
722.695	0.02
723.011	0.02
723.328	0.02
723.644	0.02
723.96	0.02
724.276	0.02
724.593	0.02
724.909	0.03
725.225	0.02
725.541	0.03
725.857	0.03
726.173	0.03
726.488	0.03
726.804	0.03
727.12	0.03
727.435	0.02
727.751	0.03
728.067	0.02
728.382	0.03
728.697	0.03
729.013	0.03
729.328	0.03
729.643	0.03
729.958	0.03
730.273	0.03
730.588	0.03
730.903	0.03
731.218	0.03
731.533	0.03
731.848	0.02
732.163	0.02
732.477	0.02
732.792	0.02
733.107	0.01
733.421	0.02
733.736	0.02
734.05	0.02
734.364	0.02
734.678	0.03
734.993	0.02
735.307	0.02
735.621	0.02
735.935	0.02
736.249	0.02
736.563	0.02
736.877	0.02
737.19	0.03
737.504	0.03
737.818	0.02
738.131	0.02
738.445	0.03
738.758	0.03
739.072	0.03
739.385	0.03
739.698	0.04
740.012	0.04
740.325	0.03
740.638	0.03
740.951	0.03
741.264	0.02
741.577	0.03
741.89	0.04
742.203	0.04
742.515	0.04
742.828	0.04
743.141	0.04
743.453	0.04
743.766	0.04
744.078	0.04
744.391	0.03
744.703	0.04
745.015	0.04
745.327	0.04
745.639	0.04
745.952	0.04
746.264	0.03
746.575	0.04
746.887	0.03
747.199	0.04
747.511	0.03
747.823	0.04
748.134	0.04
748.446	0.03
748.757	0.03
749.069	0.03
749.38	0.03
749.692	0.03
750.003	0.03
750.314	0.03
750.625	0.03
750.936	0.02
751.248	0.02
751.559	0.02
751.869	0.01
752.18	0.02
752.491	0.02
752.802	0.02
753.112	0.02
753.423	0.01
753.734	0.02
754.044	0.02
754.355	0.02
754.665	0.02
754.975	0.01
755.285	0.01
755.596	0.01
755.906	0.01
756.216	0.01
756.526	0.01
756.836	0.01
757.146	0.01
757.455	0.01
757.765	0.01
758.075	0.01
758.385	0
758.694	0
759.004	0
759.313	0
759.622	0
759.932	0
760.241	0
760.55	0.01
760.859	0.01
761.168	0.01
761.477	0.01
761.786	0.01
762.095	0.01
762.404	0
762.713	0.01
763.021	0.01
763.33	0.01
763.639	0.01
763.947	0.01
764.256	0.01
764.564	0.01
764.872	0.01
765.181	0.01
765.489	0.01
765.797	0.01
766.105	0.01
766.413	0.01
766.721	0.01
767.029	0.01
767.337	0.01
767.644	0.02
767.952	0.02
768.26	0.02
768.567	0.02
768.875	0.02
769.182	0.02
769.49	0.02
769.797	0.02
770.104	0.02
770.411	0.02
770.718	0.02
771.026	0.03
771.333	0.03
771.639	0.03
771.946	0.03
772.253	0.03
772.56	0.03
772.867	0.03
773.173	0.03
773.48	0.03
773.786	0.03
774.093	0.03
774.399	0.03
774.705	0.03
775.012	0.03
775.318	0.03
775.624	0.03
775.93	0.03
776.236	0.03
776.542	0.03
776.848	0.02
777.154	0.03
777.459	0.02
777.765	0.03
778.071	0.02
778.376	0.02
778.682	0.02
778.987	0.03
779.292	0.02
779.598	0.03
779.903	0.03
780.208	0.03
780.513	0.02
780.818	0.03
781.123	0.03
781.428	0.03
781.733	0.03
782.038	0.03
782.343	0.03
782.647	0.03
782.952	0.03
783.256	0.03
783.561	0.03
783.865	0.03
784.17	0.03
784.474	0.03
784.778	0.03
785.082	0.03
785.386	0.03
785.69	0.03
785.994	0.03
786.298	0.03
786.602	0.03
786.906	0.03
787.209	0.03
787.513	0.03
787.817	0.03
788.12	0.03
788.424	0.03
788.727	0.03
789.03	0.02
789.333	0.02
789.637	0.03
789.94	0.03
790.243	0.03
790.546	0.03
790.849	0.03
791.152	0.03
791.454	0.03
791.757	0.03
792.06	0.03
792.362	0.03
792.665	0.03
792.967	0.03
793.27	0.03
793.572	0.03
793.874	0.02
794.177	0.03
794.479	0.03
794.781	0.03
795.083	0.03
795.385	0.03
795.687	0.03
795.989	0.03
796.29	0.03
796.592	0.03
796.894	0.04
797.195	0.04
797.497	0.04
797.798	0.04
798.1	0.03
798.401	0.03
798.702	0.04
799.003	0.04
799.304	0.04
799.605	0.03
799.906	0.03
800.207	0.03
800.508	0.04
800.809	0.04
801.11	0.04
801.41	0.04
801.711	0.04
802.011	0.04
802.312	0.04
802.612	0.04
802.913	0.04
803.213	0.03
803.513	0.04
803.813	0.03
804.113	0.03
804.413	0.03
804.713	0.03
805.013	0.03
805.313	0.04
805.613	0.04
805.912	0.04
806.212	0.04
806.511	0.04
806.811	0.04
807.11	0.04
807.41	0.04
807.709	0.04
808.008	0.03
808.307	0.04
808.606	0.04
808.905	0.03
809.204	0.04
809.503	0.04
809.802	0.04
810.101	0.04
810.399	0.04
810.698	0.04
810.997	0.03
811.295	0.04
811.593	0.04
811.892	0.04
812.19	0.04
812.488	0.04
812.786	0.04
813.084	0.04
813.383	0.04
813.68	0.03
813.978	0.04
814.276	0.04
814.574	0.04
814.872	0.04
815.169	0.04
815.467	0.05
815.764	0.04
816.062	0.05
816.359	0.05
816.656	0.05
816.954	0.05
817.251	0.05
817.548	0.05
817.845	0.05
818.142	0.04
818.439	0.05
818.735	0.04
819.032	0.05
819.329	0.05
819.626	0.05
819.922	0.05
820.219	0.04
820.515	0.05
820.811	0.05
821.108	0.05
821.404	0.05
821.7	0.05
821.996	0.05
822.292	0.05
822.588	0.05
822.884	0.05
823.18	0.05
823.475	0.05
823.771	0.05
824.067	0.05
824.362	0.05
824.658	0.06
824.953	0.05
825.249	0.05
825.544	0.04
825.839	0.05
826.134	0.05
826.429	0.05
826.724	0.05
827.019	0.05
827.314	0.05
827.609	0.05
827.904	0.05
828.198	0.05
828.493	0.05
828.787	0.05
829.082	0.05
829.376	0.05
829.671	0.05
829.965	0.05
830.259	0.05
830.553	0.06
830.847	0.06
831.141	0.06
831.435	0.06
831.729	0.05
832.023	0.05
832.317	0.05
832.61	0.05
832.904	0.05
833.197	0.05
833.491	0.05
833.784	0.05
834.077	0.05
834.371	0.05
834.664	0.06
834.957	0.06
835.25	0.06
835.543	0.06
835.836	0.06
836.129	0.05
836.421	0.06
836.714	0.06
837.007	0.06
837.299	0.06
837.592	0.06
837.884	0.06
838.177	0.06
838.469	0.06
838.761	0.06
839.053	0.06
839.345	0.06
839.637	0.06
839.929	0.06
840.221	0.05
840.513	0.06
840.805	0.06
841.096	0.06
841.388	0.07
841.68	0.06
841.971	0.06
842.262	0.06
842.554	0.06
842.845	0.05
843.136	0.06
843.427	0.05
843.718	0.06
844.009	0.06
844.3	0.06
844.591	0.06
844.882	0.07
845.173	0.06
845.463	0.06
845.754	0.07
846.044	0.06
846.335	0.07
846.625	0.06
846.915	0.07
847.206	0.06
847.496	0.07
847.786	0.06
848.076	0.07
848.366	0.06
848.656	0.06
848.945	0.06
849.235	0.07
849.525	0.07
849.814	0.06
850.104	0.07
850.393	0.07
850.683	0.07
850.972	0.07
851.261	0.06
851.551	0.07
851.84	0.07
852.129	0.07
852.418	0.08
852.707	0.07
852.995	0.07
853.284	0.07
853.573	0.07
853.862	0.07
854.15	0.07
854.439	0.07
854.727	0.07
855.015	0.08
855.304	0.08
855.592	0.08
855.88	0.07
856.168	0.07
856.456	0.08
856.744	0.08
857.032	0.08
857.32	0.09
857.607	0.08
857.895	0.08
858.183	0.08
858.47	0.07
858.757	0.07
859.045	0.07
859.332	0.08
859.619	0.07
859.907	0.08
860.194	0.11
860.481	0.1
860.768	0.09
861.054	0.08
861.341	0.08
861.628	0.08
861.915	0.07
862.201	0.06
862.488	0.07
862.774	0.08
863.061	0.1
863.347	0.08
863.633	0.06
863.919	0.09
864.205	0.07
864.491	0.06
864.777	0.07
865.063	0.08
865.349	0.06
865.635	0.07
865.92	0.06
866.206	0.06
866.492	0.08
866.777	0.08
867.062	0.08
867.348	0.06
867.633	0.06
867.918	0.07
868.203	0.09
868.488	0.05
868.773	0.07
869.058	0.06
869.343	0.07
869.628	0.08
869.912	0.08
870.197	0.07
870.482	0.08
870.766	0.07
871.05	0.07
871.335	0.03
871.619	0.05
871.903	0.03
872.187	0.05
872.471	0.07
872.755	0.05
873.039	0.04
873.323	0.04
873.607	0.03
873.89	0.06
874.174	0.08
874.458	0.08
874.741	0.09
875.024	0.03
875.308	0.03
875.591	0.01
875.874	0.06
876.157	0.05
876.44	0.01
876.723	0.05
877.006	0.1
877.289	0.07
877.572	0.03
877.854	0.06
878.137	0.1
878.42	0.07
878.702	0.01
878.984	0.01
879.267	-0.02
879.549	0
879.831	-0.01
880.113	-0.01
880.395	-0
880.677	-0.01
880.959	-0.02
