Data from Rubpy_BV_600_EDTA_Buffered_Absorbance_12-28-09-650.txt Node
Date: Wed Jul 01 12:28:09 BST 2026
User: fpm-admin
Spectrometer: OFX00224
Trigger mode: 0
Integration Time (sec): 7.000000E-2
Scans to average: 3
Nonlinearity correction enabled: false
Boxcar width: 0
Storing dark spectrum: false
XAxis mode: Wavelengths
Number of Pixels in Spectrum: 2136
>>>>>Begin Spectral Data<<<<<
154.91	-0
155.289	0.19
155.669	-0
156.048	-0
156.428	-0
156.807	-0
157.186	0.13
157.566	-0
157.945	-0.3
158.325	-0
158.704	0.21
159.083	0.78
159.462	0.18
159.842	0.37
160.221	-0
160.6	0.13
160.979	0.03
161.359	-0.48
161.738	-0
162.117	-0
162.496	-0
162.875	-0
163.254	-0
163.633	-0.52
164.012	-0.26
164.391	-0
164.77	-0.02
165.149	-0.22
165.528	-0
165.907	0.7
166.286	-0
166.665	0.05
167.044	-0
167.423	-0.02
167.802	-0
168.181	-0.08
168.559	-0.11
168.938	-1.04
169.317	-0
169.696	-0.65
170.074	-0.42
170.453	0.1
170.832	0.02
171.21	-0.3
171.589	-0.02
171.968	-0
172.346	-0.18
172.725	-0
173.103	-0
173.482	0.61
173.861	-0
174.239	-0
174.617	0.3
174.996	-0
175.374	-0
175.753	1.26
176.131	0.16
176.51	-0.25
176.888	1.59
177.266	0.74
177.645	-0.05
178.023	0.66
178.401	-0.11
178.779	0.02
179.158	0.05
179.536	-0
179.914	0.1
180.292	-0
180.67	0.36
181.048	0.21
181.427	0.92
181.805	-0.06
182.183	-0
182.561	-0
182.939	0.21
183.317	0.61
183.695	-0
184.073	-0
184.451	-0.48
184.829	-0.05
185.206	-0.14
185.584	-0
185.962	-0
186.34	-0.41
186.718	-0.1
187.096	-0.4
187.473	-0.08
187.851	-0.23
188.229	-0.12
188.607	0.04
188.984	0.19
189.362	-0
189.74	0.05
190.117	0.05
190.495	0.15
190.872	0
191.25	0.09
191.627	0.1
192.005	0.14
192.382	0.09
192.76	0.03
193.137	0.04
193.515	0.01
193.892	0.19
194.269	0.05
194.647	0.03
195.024	0.12
195.401	0.11
195.779	0.13
196.156	0.09
196.533	0.03
196.91	0.12
197.288	0.05
197.665	0.12
198.042	0.24
198.419	-0
198.796	0.03
199.173	0.12
199.55	0.03
199.927	0.12
200.304	0.14
200.681	0.16
201.058	-0.07
201.435	-0.02
201.812	0.17
202.189	0.17
202.566	0.09
202.943	0.09
203.32	0.15
203.697	0.12
204.073	0.07
204.45	0.03
204.827	0.11
205.204	0.03
205.58	0.16
205.957	0
206.334	0.11
206.71	0.18
207.087	-0
207.464	0.11
207.84	0.12
208.217	0.19
208.593	0.1
208.97	0.11
209.346	0.13
209.723	0.05
210.099	0.05
210.476	0.16
210.852	0.14
211.228	0.14
211.605	0.08
211.981	0.17
212.357	0.05
212.733	0.13
213.11	0.15
213.486	0.12
213.862	0.11
214.238	0.14
214.614	0.07
214.991	0.22
215.367	0.15
215.743	0.1
216.119	0.04
216.495	0.21
216.871	0.19
217.247	0.07
217.623	0.09
217.999	0.17
218.375	0.06
218.751	0.15
219.127	0.06
219.502	0.06
219.878	0.05
220.254	0.08
220.63	0.15
221.006	0.08
221.381	0.17
221.757	0.07
222.133	0.06
222.508	0.16
222.884	0.11
223.26	0.13
223.635	0.18
224.011	0.11
224.386	0.13
224.762	0.21
225.137	0.14
225.513	0.03
225.888	0.11
226.264	0.1
226.639	0.13
227.014	0.08
227.39	0.19
227.765	0.1
228.14	0.21
228.516	0.13
228.891	0.19
229.266	0.13
229.641	0.1
230.017	0.13
230.392	0.14
230.767	0.1
231.142	0.17
231.517	0.17
231.892	0.19
232.267	0.21
232.642	0.12
233.017	0.09
233.392	0.14
233.767	0.2
234.142	0.13
234.517	0.1
234.892	0.11
235.267	0.11
235.641	0.14
236.016	0.12
236.391	0.13
236.766	0.22
237.14	0.17
237.515	0.08
237.89	0.1
238.264	0.09
238.639	0.11
239.014	0.11
239.388	0.16
239.763	0.13
240.137	0.12
240.512	0.1
240.886	0.07
241.261	0.13
241.635	0.14
242.009	0.15
242.384	0.1
242.758	0.09
243.132	0.15
243.507	0.1
243.881	0.12
244.255	0.18
244.629	0.09
245.004	0.13
245.378	0.14
245.752	0.05
246.126	0.2
246.5	0.1
246.874	0.11
247.248	0.15
247.622	0.18
247.996	0.08
248.37	0.17
248.744	0.12
249.118	0.17
249.492	0.23
249.866	0.07
250.24	0.15
250.613	0.25
250.987	0.13
251.361	0.13
251.735	0.1
252.108	0.12
252.482	0.19
252.856	0.02
253.229	0.06
253.603	0.07
253.977	0.11
254.35	0.16
254.724	0.17
255.097	0.16
255.471	0.13
255.844	0.13
256.218	0.07
256.591	0.14
256.964	0.09
257.338	0.11
257.711	0.17
258.084	0.2
258.458	0.12
258.831	0.05
259.204	0.12
259.577	0.2
259.95	0.14
260.323	0.17
260.697	0.09
261.07	0.04
261.443	0.1
261.816	0.15
262.189	0.08
262.562	0.11
262.935	0.15
263.308	0.11
263.68	0.13
264.053	0.11
264.426	0.16
264.799	0.21
265.172	0.13
265.545	0.19
265.917	0.13
266.29	0.15
266.663	0.22
267.035	0.17
267.408	0.16
267.781	0.16
268.153	0.17
268.526	0.05
268.898	0.07
269.271	0.15
269.643	0.16
270.016	0.14
270.388	0.11
270.76	0.13
271.133	0.15
271.505	0.15
271.877	0.2
272.25	0.17
272.622	0.19
272.994	0.13
273.366	0.25
273.739	0.17
274.111	0.21
274.483	0.17
274.855	0.18
275.227	0.17
275.599	0.15
275.971	0.12
276.343	0.16
276.715	0.2
277.087	0.12
277.459	0.1
277.831	0.09
278.203	0.12
278.574	0.08
278.946	0.16
279.318	0.15
279.69	0.19
280.061	0.14
280.433	0.18
280.805	0.18
281.176	0.16
281.548	0.1
281.92	0.16
282.291	0.17
282.663	0.13
283.034	0.15
283.406	0.11
283.777	0.14
284.148	0.13
284.52	0.14
284.891	0.1
285.262	0.11
285.634	0.13
286.005	0.1
286.376	0.17
286.747	0.17
287.119	0.14
287.49	0.15
287.861	0.15
288.232	0.11
288.603	0.06
288.974	0.16
289.345	0.15
289.716	0.14
290.087	0.13
290.458	0.16
290.829	0.12
291.2	0.19
291.571	0.11
291.941	0.09
292.312	0.2
292.683	0.11
293.054	0.14
293.424	0.11
293.795	0.1
294.166	0.11
294.536	0.14
294.907	0.14
295.277	0.13
295.648	0.13
296.018	0.17
296.389	0.17
296.759	0.13
297.13	0.1
297.5	0.16
297.871	0.12
298.241	0.18
298.611	0.06
298.981	0.11
299.352	0.12
299.722	0.12
300.092	0.14
300.462	0.06
300.832	0.11
301.202	0.1
301.573	0.12
301.943	0.08
302.313	0.1
302.683	0.14
303.053	0.11
303.422	0.05
303.792	0.08
304.162	0.07
304.532	0.04
304.902	0.07
305.272	0.09
305.641	0.09
306.011	0.05
306.381	0.05
306.75	0.06
307.12	0.06
307.49	0.07
307.859	0.05
308.229	0.06
308.598	0.06
308.968	0.07
309.337	0.09
309.707	0.07
310.076	0.07
310.445	0.07
310.815	0.09
311.184	0.08
311.553	0.09
311.923	0.1
312.292	0.09
312.661	0.1
313.03	0.1
313.399	0.1
313.768	0.1
314.137	0.11
314.506	0.1
314.875	0.11
315.244	0.12
315.613	0.11
315.982	0.12
316.351	0.12
316.72	0.11
317.089	0.11
317.458	0.12
317.826	0.12
318.195	0.13
318.564	0.13
318.933	0.12
319.301	0.13
319.67	0.13
320.038	0.14
320.407	0.13
320.775	0.14
321.144	0.14
321.512	0.13
321.881	0.14
322.249	0.14
322.618	0.15
322.986	0.14
323.354	0.15
323.723	0.15
324.091	0.16
324.459	0.15
324.827	0.16
325.195	0.15
325.564	0.17
325.932	0.16
326.3	0.16
326.668	0.17
327.036	0.17
327.404	0.17
327.772	0.18
328.14	0.19
328.508	0.18
328.875	0.18
329.243	0.19
329.611	0.19
329.979	0.19
330.346	0.19
330.714	0.19
331.082	0.2
331.449	0.2
331.817	0.2
332.185	0.2
332.552	0.21
332.92	0.21
333.287	0.22
333.655	0.22
334.022	0.23
334.389	0.23
334.757	0.24
335.124	0.24
335.491	0.24
335.859	0.24
336.226	0.25
336.593	0.26
336.96	0.26
337.327	0.27
337.695	0.27
338.062	0.28
338.429	0.28
338.796	0.28
339.163	0.29
339.53	0.29
339.897	0.3
340.263	0.31
340.63	0.31
340.997	0.32
341.364	0.32
341.731	0.33
342.097	0.33
342.464	0.34
342.831	0.34
343.197	0.35
343.564	0.36
343.931	0.36
344.297	0.36
344.664	0.37
345.03	0.38
345.396	0.38
345.763	0.38
346.129	0.4
346.496	0.39
346.862	0.4
347.228	0.41
347.594	0.41
347.961	0.42
348.327	0.43
348.693	0.43
349.059	0.43
349.425	0.44
349.791	0.45
350.157	0.45
350.523	0.46
350.889	0.46
351.255	0.47
351.621	0.48
351.987	0.48
352.353	0.49
352.719	0.49
353.084	0.5
353.45	0.5
353.816	0.51
354.181	0.51
354.547	0.52
354.913	0.53
355.278	0.53
355.644	0.54
356.009	0.55
356.375	0.56
356.74	0.57
357.106	0.57
357.471	0.58
357.836	0.58
358.202	0.59
358.567	0.61
358.932	0.61
359.297	0.62
359.663	0.63
360.028	0.63
360.393	0.64
360.758	0.65
361.123	0.67
361.488	0.67
361.853	0.68
362.218	0.7
362.583	0.7
362.948	0.71
363.312	0.72
363.677	0.72
364.042	0.73
364.407	0.74
364.772	0.75
365.136	0.76
365.501	0.76
365.865	0.78
366.23	0.78
366.595	0.79
366.959	0.81
367.324	0.8
367.688	0.81
368.052	0.82
368.417	0.82
368.781	0.83
369.145	0.83
369.51	0.85
369.874	0.85
370.238	0.86
370.602	0.86
370.967	0.86
371.331	0.88
371.695	0.87
372.059	0.88
372.423	0.88
372.787	0.88
373.151	0.88
373.515	0.87
373.878	0.87
374.242	0.88
374.606	0.86
374.97	0.86
375.334	0.85
375.697	0.85
376.061	0.84
376.425	0.84
376.788	0.82
377.152	0.82
377.515	0.81
377.879	0.8
378.242	0.8
378.606	0.78
378.969	0.78
379.333	0.77
379.696	0.77
380.059	0.75
380.422	0.75
380.786	0.74
381.149	0.73
381.512	0.72
381.875	0.73
382.238	0.71
382.601	0.71
382.964	0.7
383.327	0.69
383.69	0.68
384.053	0.68
384.416	0.68
384.779	0.67
385.142	0.67
385.504	0.67
385.867	0.67
386.23	0.67
386.593	0.66
386.955	0.66
387.318	0.66
387.68	0.67
388.043	0.67
388.405	0.67
388.768	0.67
389.13	0.67
389.493	0.67
389.855	0.67
390.217	0.67
390.58	0.65
390.942	0.65
391.304	0.65
391.666	0.64
392.028	0.63
392.391	0.62
392.753	0.62
393.115	0.61
393.477	0.61
393.839	0.6
394.201	0.6
394.563	0.59
394.924	0.6
395.286	0.59
395.648	0.6
396.01	0.6
396.371	0.61
396.733	0.62
397.095	0.63
397.456	0.65
397.818	0.66
398.18	0.67
398.541	0.69
398.903	0.71
399.264	0.73
399.625	0.74
399.987	0.77
400.348	0.78
400.709	0.78
401.071	0.8
401.432	0.8
401.793	0.8
402.154	0.8
402.515	0.79
402.876	0.78
403.238	0.76
403.599	0.74
403.96	0.72
404.32	0.69
404.681	0.67
405.042	0.64
405.403	0.62
405.764	0.58
406.125	0.55
406.485	0.53
406.846	0.5
407.207	0.48
407.567	0.44
407.928	0.42
408.288	0.39
408.649	0.38
409.009	0.35
409.37	0.34
409.73	0.31
410.091	0.3
410.451	0.28
410.811	0.26
411.171	0.25
411.532	0.24
411.892	0.23
412.252	0.21
412.612	0.2
412.972	0.19
413.332	0.19
413.692	0.18
414.052	0.17
414.412	0.16
414.772	0.16
415.132	0.15
415.492	0.15
415.851	0.14
416.211	0.14
416.571	0.13
416.931	0.13
417.29	0.12
417.65	0.12
418.009	0.12
418.369	0.12
418.728	0.11
419.088	0.11
419.447	0.11
419.807	0.1
420.166	0.1
420.525	0.1
420.884	0.1
421.244	0.09
421.603	0.09
421.962	0.09
422.321	0.09
422.68	0.09
423.039	0.09
423.398	0.09
423.757	0.07
424.116	0.08
424.475	0.09
424.834	0.08
425.193	0.08
425.551	0.07
425.91	0.07
426.269	0.08
426.628	0.07
426.986	0.08
427.345	0.07
427.703	0.07
428.062	0.07
428.42	0.07
428.779	0.07
429.137	0.07
429.496	0.08
429.854	0.07
430.212	0.06
430.57	0.07
430.929	0.06
431.287	0.06
431.645	0.07
432.003	0.07
432.361	0.06
432.719	0.07
433.077	0.07
433.435	0.07
433.793	0.07
434.151	0.07
434.509	0.06
434.866	0.07
435.224	0.07
435.582	0.06
435.94	0.07
436.297	0.06
436.655	0.07
437.012	0.06
437.37	0.07
437.727	0.06
438.085	0.07
438.442	0.07
438.8	0.06
439.157	0.06
439.514	0.06
439.872	0.07
440.229	0.06
440.586	0.05
440.943	0.06
441.3	0.05
441.657	0.07
442.014	0.06
442.371	0.06
442.728	0.06
443.085	0.07
443.442	0.07
443.799	0.07
444.156	0.06
444.513	0.06
444.869	0.06
445.226	0.07
445.583	0.06
445.939	0.06
446.296	0.06
446.652	0.05
447.009	0.06
447.365	0.07
447.722	0.06
448.078	0.06
448.434	0.05
448.791	0.07
449.147	0.06
449.503	0.06
449.859	0.06
450.215	0.06
450.571	0.06
450.928	0.06
451.284	0.05
451.64	0.06
451.995	0.07
452.351	0.06
452.707	0.06
453.063	0.05
453.419	0.06
453.775	0.06
454.13	0.06
454.486	0.06
454.842	0.06
455.197	0.05
455.553	0.05
455.908	0.05
456.264	0.05
456.619	0.05
456.975	0.04
457.33	0.05
457.685	0.06
458.04	0.05
458.396	0.04
458.751	0.04
459.106	0.04
459.461	0.04
459.816	0.04
460.171	0.04
460.526	0.04
460.881	0.04
461.236	0.03
461.591	0.02
461.946	0.03
462.301	0.03
462.655	0.03
463.01	0.03
463.365	0.03
463.719	0.02
464.074	0.02
464.428	0.02
464.783	0.02
465.137	0.02
465.492	0.01
465.846	0.02
466.201	0.02
466.555	0.02
466.909	0.01
467.263	0.03
467.618	0.03
467.972	0.02
468.326	0.02
468.68	0.02
469.034	0.02
469.388	0.02
469.742	0.02
470.096	0.02
470.45	0.03
470.804	0.02
471.157	0.02
471.511	0.02
471.865	0.03
472.218	0.03
472.572	0.03
472.926	0.03
473.279	0.04
473.633	0.05
473.986	0.05
474.34	0.05
474.693	0.06
475.046	0.05
475.4	0.06
475.753	0.07
476.106	0.07
476.459	0.08
476.812	0.09
477.165	0.09
477.519	0.09
477.872	0.09
478.224	0.09
478.577	0.1
478.93	0.11
479.283	0.1
479.636	0.11
479.989	0.11
480.341	0.11
480.694	0.11
481.047	0.12
481.399	0.13
481.752	0.13
482.104	0.13
482.457	0.13
482.809	0.13
483.162	0.14
483.514	0.14
483.866	0.14
484.219	0.14
484.571	0.15
484.923	0.15
485.275	0.15
485.627	0.15
485.979	0.15
486.331	0.16
486.683	0.16
487.035	0.16
487.387	0.16
487.739	0.16
488.091	0.17
488.443	0.17
488.794	0.17
489.146	0.17
489.498	0.17
489.849	0.17
490.201	0.18
490.552	0.18
490.904	0.18
491.255	0.18
491.607	0.19
491.958	0.19
492.309	0.19
492.661	0.19
493.012	0.19
493.363	0.19
493.714	0.19
494.065	0.19
494.416	0.2
494.767	0.2
495.118	0.2
495.469	0.2
495.82	0.21
496.171	0.21
496.522	0.21
496.872	0.21
497.223	0.22
497.574	0.22
497.924	0.22
498.275	0.22
498.626	0.22
498.976	0.23
499.327	0.23
499.677	0.23
500.027	0.23
500.378	0.23
500.728	0.23
501.078	0.24
501.428	0.23
501.779	0.24
502.129	0.24
502.479	0.24
502.829	0.24
503.179	0.24
503.529	0.25
503.879	0.25
504.229	0.26
504.578	0.25
504.928	0.25
505.278	0.26
505.628	0.26
505.977	0.26
506.327	0.26
506.676	0.26
507.026	0.27
507.375	0.27
507.725	0.27
508.074	0.27
508.424	0.28
508.773	0.27
509.122	0.28
509.471	0.27
509.82	0.28
510.17	0.28
510.519	0.28
510.868	0.28
511.217	0.29
511.566	0.28
511.915	0.29
512.263	0.29
512.612	0.29
512.961	0.29
513.31	0.29
513.659	0.3
514.007	0.3
514.356	0.3
514.704	0.3
515.053	0.3
515.401	0.3
515.75	0.31
516.098	0.31
516.447	0.31
516.795	0.31
517.143	0.31
517.491	0.31
517.839	0.31
518.188	0.31
518.536	0.32
518.884	0.32
519.232	0.32
519.58	0.32
519.928	0.32
520.275	0.32
520.623	0.33
520.971	0.33
521.319	0.33
521.666	0.33
522.014	0.33
522.362	0.33
522.709	0.33
523.057	0.33
523.404	0.34
523.752	0.33
524.099	0.33
524.446	0.34
524.794	0.34
525.141	0.34
525.488	0.34
525.835	0.34
526.182	0.34
526.529	0.34
526.876	0.35
527.223	0.35
527.57	0.35
527.917	0.35
528.264	0.35
528.611	0.35
528.958	0.36
529.304	0.35
529.651	0.36
529.998	0.36
530.344	0.36
530.691	0.36
531.037	0.36
531.384	0.36
531.73	0.36
532.076	0.36
532.423	0.36
532.769	0.37
533.115	0.36
533.461	0.36
533.807	0.36
534.154	0.36
534.5	0.37
534.846	0.37
535.192	0.37
535.537	0.37
535.883	0.37
536.229	0.37
536.575	0.37
536.921	0.37
537.266	0.37
537.612	0.38
537.957	0.37
538.303	0.38
538.649	0.37
538.994	0.38
539.339	0.38
539.685	0.38
540.03	0.38
540.375	0.38
540.721	0.38
541.066	0.38
541.411	0.39
541.756	0.38
542.101	0.38
542.446	0.39
542.791	0.38
543.136	0.39
543.481	0.39
543.825	0.39
544.17	0.39
544.515	0.39
544.86	0.39
545.204	0.39
545.549	0.39
545.893	0.39
546.238	0.39
546.582	0.39
546.927	0.39
547.271	0.4
547.615	0.4
547.96	0.39
548.304	0.4
548.648	0.4
548.992	0.4
549.336	0.4
549.68	0.4
550.024	0.4
550.368	0.4
550.712	0.4
551.056	0.4
551.4	0.4
551.743	0.4
552.087	0.4
552.431	0.4
552.774	0.4
553.118	0.4
553.462	0.4
553.805	0.4
554.148	0.4
554.492	0.4
554.835	0.41
555.178	0.4
555.522	0.4
555.865	0.4
556.208	0.4
556.551	0.4
556.894	0.4
557.237	0.4
557.58	0.4
557.923	0.4
558.266	0.4
558.609	0.4
558.952	0.4
559.294	0.4
559.637	0.4
559.98	0.4
560.322	0.4
560.665	0.4
561.007	0.4
561.35	0.4
561.692	0.4
562.034	0.4
562.377	0.4
562.719	0.4
563.061	0.4
563.403	0.4
563.745	0.4
564.088	0.4
564.43	0.4
564.772	0.4
565.113	0.4
565.455	0.39
565.797	0.4
566.139	0.4
566.481	0.39
566.822	0.4
567.164	0.39
567.506	0.39
567.847	0.39
568.189	0.4
568.53	0.39
568.872	0.39
569.213	0.39
569.554	0.39
569.895	0.39
570.237	0.39
570.578	0.39
570.919	0.39
571.26	0.39
571.601	0.38
571.942	0.38
572.283	0.38
572.624	0.38
572.965	0.38
573.306	0.38
573.646	0.37
573.987	0.37
574.328	0.37
574.668	0.37
575.009	0.37
575.349	0.36
575.69	0.36
576.03	0.36
576.37	0.35
576.711	0.34
577.051	0.34
577.391	0.35
577.731	0.36
578.072	0.36
578.412	0.35
578.752	0.35
579.092	0.34
579.431	0.31
579.771	0.28
580.111	0.27
580.451	0.28
580.791	0.31
581.13	0.33
581.47	0.34
581.81	0.34
582.149	0.33
582.489	0.34
582.828	0.31
583.167	0.27
583.507	0.23
583.846	0.22
584.185	0.25
584.525	0.27
584.864	0.3
585.203	0.33
585.542	0.35
585.881	0.35
586.22	0.35
586.559	0.32
586.898	0.3
587.236	0.28
587.575	0.28
587.914	0.29
588.252	0.31
588.591	0.33
588.93	0.33
589.268	0.32
589.607	0.31
589.945	0.32
590.283	0.32
590.622	0.33
590.96	0.34
591.298	0.35
591.636	0.35
591.974	0.35
592.313	0.36
592.651	0.36
592.989	0.36
593.326	0.36
593.664	0.36
594.002	0.36
594.34	0.35
594.678	0.33
595.015	0.31
595.353	0.29
595.691	0.31
596.028	0.33
596.366	0.35
596.703	0.35
597.04	0.35
597.378	0.35
597.715	0.35
598.052	0.36
598.389	0.36
598.726	0.36
599.064	0.36
599.401	0.36
599.738	0.35
600.074	0.35
600.411	0.35
600.748	0.33
601.085	0.32
601.422	0.31
601.758	0.31
602.095	0.32
602.432	0.32
602.768	0.32
603.105	0.34
603.441	0.34
603.777	0.35
604.114	0.36
604.45	0.36
604.786	0.36
605.122	0.35
605.459	0.35
605.795	0.35
606.131	0.35
606.467	0.35
606.803	0.35
607.139	0.35
607.474	0.34
607.81	0.33
608.146	0.34
608.482	0.33
608.817	0.33
609.153	0.33
609.488	0.33
609.824	0.33
610.159	0.34
610.495	0.34
610.83	0.34
611.165	0.34
611.5	0.34
611.836	0.34
612.171	0.34
612.506	0.34
612.841	0.34
613.176	0.34
613.511	0.34
613.845	0.33
614.18	0.33
614.515	0.34
614.85	0.33
615.184	0.33
615.519	0.33
615.854	0.33
616.188	0.32
616.523	0.32
616.857	0.32
617.191	0.32
617.526	0.32
617.86	0.32
618.194	0.31
618.528	0.32
618.862	0.32
619.196	0.32
619.53	0.32
619.864	0.32
620.198	0.31
620.532	0.32
620.866	0.32
621.2	0.32
621.533	0.32
621.867	0.32
622.201	0.31
622.534	0.31
622.868	0.31
623.201	0.31
623.534	0.31
623.868	0.31
624.201	0.3
624.534	0.3
624.868	0.3
625.201	0.3
625.534	0.3
625.867	0.3
626.2	0.3
626.533	0.29
626.865	0.3
627.198	0.3
627.531	0.29
627.864	0.29
628.196	0.29
628.529	0.29
628.862	0.28
629.194	0.28
629.527	0.28
629.859	0.28
630.191	0.28
630.524	0.28
630.856	0.28
631.188	0.28
631.52	0.28
631.852	0.27
632.184	0.27
632.516	0.27
632.848	0.27
633.18	0.27
633.512	0.26
633.844	0.27
634.175	0.27
634.507	0.26
634.839	0.26
635.17	0.26
635.502	0.25
635.833	0.25
636.165	0.25
636.496	0.25
636.827	0.25
637.159	0.25
637.49	0.25
637.821	0.24
638.152	0.24
638.483	0.24
638.814	0.24
639.145	0.23
639.476	0.23
639.807	0.23
640.137	0.23
640.468	0.23
640.799	0.22
641.129	0.23
641.46	0.22
641.791	0.22
642.121	0.22
642.451	0.22
642.782	0.22
643.112	0.22
643.442	0.22
643.773	0.22
644.103	0.21
644.433	0.21
644.763	0.21
645.093	0.21
645.423	0.21
645.753	0.21
646.082	0.2
646.412	0.2
646.742	0.2
647.072	0.2
647.401	0.2
647.731	0.2
648.06	0.2
648.39	0.2
648.719	0.2
649.048	0.2
649.378	0.2
649.707	0.2
650.036	0.19
650.365	0.19
650.694	0.19
651.023	0.19
651.352	0.19
651.681	0.18
652.01	0.19
652.339	0.19
652.668	0.19
652.996	0.19
653.325	0.18
653.654	0.19
653.982	0.19
654.311	0.19
654.639	0.18
654.967	0.18
655.296	0.18
655.624	0.18
655.952	0.18
656.28	0.18
656.609	0.18
656.937	0.18
657.265	0.18
657.593	0.03
657.92	-0
658.248	0
658.576	-0
658.904	0.01
659.231	0.07
659.559	0.14
659.887	0.17
660.214	0.17
660.542	0.17
660.869	0.17
661.196	0.17
661.524	0.17
661.851	0.17
662.178	0.17
662.505	0.17
662.832	0.17
663.159	0.17
663.486	0.17
663.813	0.17
664.14	0.17
664.467	0.17
664.794	0.17
665.12	0.17
665.447	0.17
665.774	0.17
666.1	0.17
666.427	0.16
666.753	0.16
667.079	0.16
667.406	0.16
667.732	0.16
668.058	0.16
668.384	0.16
668.71	0.16
669.036	0.16
669.362	0.16
669.688	0.15
670.014	0.15
670.34	0.16
670.666	0.15
670.991	0.15
671.317	0.15
671.643	0.15
671.968	0.14
672.294	0.14
672.619	0.14
672.945	0.14
673.27	0.14
673.595	0.13
673.92	0.13
674.246	0.12
674.571	0.12
674.896	0.13
675.221	0.13
675.546	0.13
675.87	0.13
676.195	0.13
676.52	0.13
676.845	0.13
677.169	0.13
677.494	0.13
677.819	0.12
678.143	0.12
678.468	0.12
678.792	0.11
679.116	0.11
679.44	0.11
679.765	0.11
680.089	0.1
680.413	0.1
680.737	0.1
681.061	0.09
681.385	0.1
681.709	0.09
682.033	0.09
682.356	0.09
682.68	0.09
683.004	0.09
683.327	0.08
683.651	0.08
683.974	0.08
684.298	0.08
684.621	0.09
684.944	0.08
685.268	0.08
685.591	0.08
685.914	0.07
686.237	0.06
686.56	0.06
686.883	0.05
687.206	0.04
687.529	0.04
687.852	0.04
688.175	0.04
688.497	0.05
688.82	0.05
689.142	0.04
689.465	0.04
689.787	0.05
690.11	0.05
690.432	0.04
690.755	0.04
691.077	0.04
691.399	0.04
691.721	0.04
692.043	0.04
692.365	0.04
692.687	0.03
693.009	0.03
693.331	0.02
693.653	0.02
693.974	0.03
694.296	0.02
694.618	0.03
694.939	0.03
695.261	0.02
695.582	0.02
695.904	0.02
696.225	0.03
696.546	0.02
696.868	0.03
697.189	0.02
697.51	0.02
697.831	0.02
698.152	0.02
698.473	0.02
698.794	0.01
699.114	0.01
699.435	0
699.756	0
700.077	0.01
700.397	0.01
700.718	0.01
701.038	0.02
701.359	0.01
701.679	0.01
701.999	0.02
702.32	0.01
702.64	0.01
702.96	0.02
703.28	0.02
703.6	0.02
703.92	0.01
704.24	0.01
704.56	0.01
704.879	0
705.199	0.01
705.519	0.01
705.838	0.01
706.158	0.01
706.478	0.01
706.797	0.01
707.116	0.01
707.436	0.01
707.755	0.01
708.074	0.01
708.393	0.01
708.712	0
709.031	0
709.35	0
709.669	0
709.988	0
710.307	0
710.626	0
710.944	0
711.263	0
711.582	0
711.9	0
712.219	0
712.537	0
712.855	0
713.174	0
713.492	0
713.81	0
714.128	0
714.446	0
714.764	0
715.082	0
715.4	0
715.718	0
716.035	0
716.353	0
716.671	0
716.988	0
717.306	0
717.623	0
717.941	0
718.258	0.01
718.575	0.01
718.893	0.01
719.21	0
719.527	0.01
719.844	0
720.161	0.01
720.478	0
720.795	0
721.112	0.01
721.428	0.01
721.745	0.01
722.062	0.01
722.378	0.01
722.695	0.01
723.011	0.01
723.328	0.01
723.644	0.01
723.96	0.01
724.276	0.01
724.593	0.01
724.909	0.02
725.225	0.01
725.541	0.02
725.857	0.02
726.173	0.01
726.488	0.02
726.804	0.01
727.12	0.01
727.435	0.01
727.751	0.02
728.067	0.01
728.382	0.01
728.697	0.02
729.013	0.02
729.328	0.02
729.643	0.02
729.958	0.01
730.273	0.02
730.588	0.02
730.903	0.02
731.218	0.02
731.533	0.02
731.848	0.01
732.163	0.01
732.477	0.01
732.792	0.01
733.107	0.01
733.421	0.01
733.736	0.01
734.05	0.01
734.364	0.01
734.678	0.02
734.993	0.01
735.307	0.02
735.621	0.01
735.935	0.01
736.249	0.01
736.563	0.01
736.877	0.02
737.19	0.02
737.504	0.02
737.818	0.01
738.131	0.01
738.445	0.02
738.758	0.02
739.072	0.02
739.385	0.02
739.698	0.02
740.012	0.03
740.325	0.02
740.638	0.02
740.951	0.02
741.264	0.01
741.577	0.02
741.89	0.03
742.203	0.03
742.515	0.03
742.828	0.04
743.141	0.03
743.453	0.03
743.766	0.03
744.078	0.03
744.391	0.02
744.703	0.03
745.015	0.03
745.327	0.03
745.639	0.03
745.952	0.03
746.264	0.02
746.575	0.03
746.887	0.02
747.199	0.03
747.511	0.02
747.823	0.03
748.134	0.03
748.446	0.03
748.757	0.03
749.069	0.02
749.38	0.02
749.692	0.02
750.003	0.02
750.314	0.02
750.625	0.02
750.936	0.02
751.248	0.01
751.559	0.01
751.869	0.01
752.18	0.01
752.491	0.01
752.802	0.01
753.112	0.01
753.423	0.01
753.734	0.01
754.044	0.01
754.355	0.01
754.665	0.01
754.975	0.01
755.285	0.01
755.596	0
755.906	0.01
756.216	0.01
756.526	0.01
756.836	0.01
757.146	0
757.455	0
757.765	0.01
758.075	0
758.385	0
758.694	0
759.004	0
759.313	0
759.622	0
759.932	0
760.241	0
760.55	0
760.859	0
761.168	0
761.477	0.01
761.786	0
762.095	0
762.404	0
762.713	0.01
763.021	0
763.33	0.01
763.639	0.01
763.947	0.01
764.256	0.01
764.564	0.01
764.872	0.01
765.181	0.01
765.489	0.01
765.797	0.01
766.105	0.01
766.413	0
766.721	0.01
767.029	0.01
767.337	0.01
767.644	0.01
767.952	0.01
768.26	0.01
768.567	0.02
768.875	0.02
769.182	0.02
769.49	0.02
769.797	0.02
770.104	0.02
770.411	0.02
770.718	0.02
771.026	0.02
771.333	0.02
771.639	0.02
771.946	0.02
772.253	0.02
772.56	0.02
772.867	0.02
773.173	0.02
773.48	0.02
773.786	0.02
774.093	0.02
774.399	0.02
774.705	0.02
775.012	0.02
775.318	0.02
775.624	0.02
775.93	0.02
776.236	0.02
776.542	0.02
776.848	0.02
777.154	0.02
777.459	0.02
777.765	0.02
778.071	0.02
778.376	0.02
778.682	0.02
778.987	0.02
779.292	0.02
779.598	0.02
779.903	0.02
780.208	0.02
780.513	0.02
780.818	0.02
781.123	0.02
781.428	0.02
781.733	0.02
782.038	0.02
782.343	0.02
782.647	0.02
782.952	0.02
783.256	0.02
783.561	0.02
783.865	0.02
784.17	0.02
784.474	0.03
784.778	0.02
785.082	0.02
785.386	0.02
785.69	0.02
785.994	0.02
786.298	0.02
786.602	0.02
786.906	0.02
787.209	0.02
787.513	0.02
787.817	0.03
788.12	0.02
788.424	0.02
788.727	0.02
789.03	0.02
789.333	0.02
789.637	0.02
789.94	0.02
790.243	0.02
790.546	0.02
790.849	0.02
791.152	0.03
791.454	0.03
791.757	0.03
792.06	0.03
792.362	0.03
792.665	0.03
792.967	0.02
793.27	0.02
793.572	0.02
793.874	0.02
794.177	0.02
794.479	0.02
794.781	0.02
795.083	0.02
795.385	0.02
795.687	0.03
795.989	0.02
796.29	0.03
796.592	0.03
796.894	0.03
797.195	0.03
797.497	0.03
797.798	0.03
798.1	0.03
798.401	0.03
798.702	0.03
799.003	0.03
799.304	0.03
799.605	0.03
799.906	0.03
800.207	0.02
800.508	0.03
800.809	0.03
801.11	0.03
801.41	0.03
801.711	0.03
802.011	0.03
802.312	0.03
802.612	0.03
802.913	0.03
803.213	0.02
803.513	0.02
803.813	0.02
804.113	0.03
804.413	0.02
804.713	0.02
805.013	0.03
805.313	0.03
805.613	0.03
805.912	0.03
806.212	0.03
806.511	0.03
806.811	0.03
807.11	0.03
807.41	0.03
807.709	0.03
808.008	0.03
808.307	0.03
808.606	0.03
808.905	0.03
809.204	0.03
809.503	0.03
809.802	0.03
810.101	0.03
810.399	0.03
810.698	0.03
810.997	0.03
811.295	0.02
811.593	0.03
811.892	0.03
812.19	0.02
812.488	0.03
812.786	0.02
813.084	0.03
813.383	0.03
813.68	0.03
813.978	0.03
814.276	0.03
814.574	0.03
814.872	0.03
815.169	0.03
815.467	0.03
815.764	0.03
816.062	0.04
816.359	0.04
816.656	0.03
816.954	0.03
817.251	0.03
817.548	0.04
817.845	0.04
818.142	0.03
818.439	0.04
818.735	0.03
819.032	0.04
819.329	0.04
819.626	0.04
819.922	0.04
820.219	0.04
820.515	0.04
820.811	0.04
821.108	0.04
821.404	0.04
821.7	0.04
821.996	0.04
822.292	0.04
822.588	0.04
822.884	0.04
823.18	0.04
823.475	0.04
823.771	0.04
824.067	0.04
824.362	0.04
824.658	0.04
824.953	0.04
825.249	0.04
825.544	0.03
825.839	0.04
826.134	0.04
826.429	0.04
826.724	0.04
827.019	0.04
827.314	0.04
827.609	0.04
827.904	0.04
828.198	0.04
828.493	0.04
828.787	0.04
829.082	0.04
829.376	0.04
829.671	0.04
829.965	0.05
830.259	0.04
830.553	0.04
830.847	0.05
831.141	0.05
831.435	0.04
831.729	0.04
832.023	0.04
832.317	0.04
832.61	0.03
832.904	0.04
833.197	0.04
833.491	0.04
833.784	0.04
834.077	0.04
834.371	0.04
834.664	0.05
834.957	0.04
835.25	0.05
835.543	0.05
835.836	0.05
836.129	0.04
836.421	0.05
836.714	0.05
837.007	0.05
837.299	0.04
837.592	0.05
837.884	0.05
838.177	0.04
838.469	0.04
838.761	0.05
839.053	0.05
839.345	0.04
839.637	0.05
839.929	0.05
840.221	0.04
840.513	0.05
840.805	0.05
841.096	0.05
841.388	0.05
841.68	0.05
841.971	0.05
842.262	0.05
842.554	0.04
842.845	0.04
843.136	0.05
843.427	0.04
843.718	0.04
844.009	0.04
844.3	0.05
844.591	0.05
844.882	0.05
845.173	0.04
845.463	0.05
845.754	0.06
846.044	0.05
846.335	0.06
846.625	0.05
846.915	0.05
847.206	0.05
847.496	0.05
847.786	0.05
848.076	0.06
848.366	0.05
848.656	0.05
848.945	0.05
849.235	0.05
849.525	0.05
849.814	0.05
850.104	0.06
850.393	0.05
850.683	0.06
850.972	0.05
851.261	0.05
851.551	0.05
851.84	0.05
852.129	0.05
852.418	0.05
852.707	0.05
852.995	0.06
853.284	0.06
853.573	0.06
853.862	0.06
854.15	0.05
854.439	0.07
854.727	0.06
855.015	0.06
855.304	0.06
855.592	0.07
855.88	0.05
856.168	0.07
856.456	0.08
856.744	0.06
857.032	0.07
857.32	0.07
857.607	0.06
857.895	0.07
858.183	0.07
858.47	0.05
858.757	0.05
859.045	0.05
859.332	0.05
859.619	0.06
859.907	0.07
860.194	0.09
860.481	0.07
860.768	0.08
861.054	0.06
861.341	0.06
861.628	0.06
861.915	0.05
862.201	0.06
862.488	0.06
862.774	0.05
863.061	0.08
863.347	0.07
863.633	0.06
863.919	0.07
864.205	0.07
864.491	0.05
864.777	0.04
865.063	0.06
865.349	0.05
865.635	0.04
865.92	0.04
866.206	0.04
866.492	0.07
866.777	0.07
867.062	0.05
867.348	0.07
867.633	0.05
867.918	0.06
868.203	0.1
868.488	0.06
868.773	0.07
869.058	0.06
869.343	0.05
869.628	0.06
869.912	0.07
870.197	0.05
870.482	0.07
870.766	0.06
871.05	0.06
871.335	0.04
871.619	0.07
871.903	0.02
872.187	0.01
872.471	0.06
872.755	0.08
873.039	0.02
873.323	0.04
873.607	0.04
873.89	0.03
874.174	0.05
874.458	0.08
874.741	0.08
875.024	0.03
875.308	0.06
875.591	0
875.874	0.05
876.157	0.05
876.44	0.06
876.723	0.06
877.006	0.09
877.289	0.06
877.572	0.07
877.854	0.05
878.137	0.04
878.42	0.07
878.702	0.06
878.984	-0.01
879.267	-0.01
879.549	0.04
879.831	0.06
880.113	0.06
880.395	-0.01
880.677	-0.03
880.959	0.02
