Data from Rubpy_BV_600_EDTA_Buffered_Absorbance_12-38-24-562.txt Node
Date: Wed Jul 01 12:38:24 BST 2026
User: fpm-admin
Spectrometer: OFX00224
Trigger mode: 0
Integration Time (sec): 7.000000E-2
Scans to average: 3
Nonlinearity correction enabled: false
Boxcar width: 0
Storing dark spectrum: false
XAxis mode: Wavelengths
Number of Pixels in Spectrum: 2136
>>>>>Begin Spectral Data<<<<<
154.91	-0.12
155.289	-0.36
155.669	0.14
156.048	-0
156.428	0.07
156.807	-0
157.186	0.93
157.566	-0
157.945	-0.24
158.325	0.7
158.704	-0.05
159.083	-0
159.462	-0
159.842	-0
160.221	0.39
160.6	-0.32
160.979	-0.04
161.359	0.18
161.738	-0
162.117	-0
162.496	0.3
162.875	-0
163.254	-0
163.633	-0.58
164.012	-0.34
164.391	0.19
164.77	0.22
165.149	-0.07
165.528	-0
165.907	0.1
166.286	-0
166.665	0.14
167.044	-0
167.423	-0.17
167.802	-0
168.181	-0
168.559	0.21
168.938	-1.19
169.317	-0
169.696	-0
170.074	0.3
170.453	-0
170.832	0.36
171.21	-0.43
171.589	-0.16
171.968	-0.06
172.346	-0.22
172.725	-0
173.103	0.3
173.482	0.88
173.861	-0
174.239	-0
174.617	0.1
174.996	1.02
175.374	-0
175.753	0.14
176.131	-0
176.51	-0.18
176.888	-0
177.266	0.86
177.645	-0.01
178.023	0.66
178.401	-0.22
178.779	0.31
179.158	0.18
179.536	-0
179.914	0.18
180.292	-0
180.67	-0.17
181.048	-0
181.427	0.06
181.805	1.15
182.183	-0.45
182.561	-0
182.939	0.02
183.317	-0
183.695	-0
184.073	0.37
184.451	-0
184.829	0.44
185.206	-0.17
185.584	1.1
185.962	-0
186.34	-0.41
186.718	-0
187.096	-0.65
187.473	0.16
187.851	-0.25
188.229	-0
188.607	0.08
188.984	0.09
189.362	0.06
189.74	0.08
190.117	0.11
190.495	0.11
190.872	-0.01
191.25	0.02
191.627	0.14
192.005	0.24
192.382	0.1
192.76	0.07
193.137	0.12
193.515	0.04
193.892	0.2
194.269	0.06
194.647	0.16
195.024	0.03
195.401	0.1
195.779	0.07
196.156	0.11
196.533	0.06
196.91	0.15
197.288	0.09
197.665	0.11
198.042	0.11
198.419	-0.02
198.796	0
199.173	0.11
199.55	-0
199.927	0.29
200.304	0.15
200.681	0.15
201.058	-0.1
201.435	0.03
201.812	0.17
202.189	0.17
202.566	0.08
202.943	0.15
203.32	0.06
203.697	0.01
204.073	0.16
204.45	0.03
204.827	0.14
205.204	0.08
205.58	0.15
205.957	0.11
206.334	0.15
206.71	0.2
207.087	0.06
207.464	0.14
207.84	0.11
208.217	0.07
208.593	0.07
208.97	0.07
209.346	0.08
209.723	0.05
210.099	0.1
210.476	0.1
210.852	0.18
211.228	0.12
211.605	0.05
211.981	0.21
212.357	0.16
212.733	0.05
213.11	0.11
213.486	0.02
213.862	0.15
214.238	0.19
214.614	0.18
214.991	0.19
215.367	0.03
215.743	0.09
216.119	0.11
216.495	0.11
216.871	0.1
217.247	0.05
217.623	0.13
217.999	0.15
218.375	0.11
218.751	0.19
219.127	0.09
219.502	0.03
219.878	0.05
220.254	0.1
220.63	0.1
221.006	0.11
221.381	0.09
221.757	0.12
222.133	0.14
222.508	0.09
222.884	0.1
223.26	0.1
223.635	0.07
224.011	0.06
224.386	0.15
224.762	0.12
225.137	0.1
225.513	0.09
225.888	0.07
226.264	0.15
226.639	0.15
227.014	0.16
227.39	0.07
227.765	0.15
228.14	0.19
228.516	0.14
228.891	0.15
229.266	0.14
229.641	0.1
230.017	0.21
230.392	0.2
230.767	0.11
231.142	0.18
231.517	0.1
231.892	0.09
232.267	0.15
232.642	0.09
233.017	0.13
233.392	0.08
233.767	0.22
234.142	0.12
234.517	0.1
234.892	0.16
235.267	0.11
235.641	0.15
236.016	0.12
236.391	0.08
236.766	0.22
237.14	0.15
237.515	0.12
237.89	0.04
238.264	0.05
238.639	0.06
239.014	0.19
239.388	0.13
239.763	0.08
240.137	0.1
240.512	0.2
240.886	0.02
241.261	0.13
241.635	0.22
242.009	0.2
242.384	0.14
242.758	0.11
243.132	0.23
243.507	0.11
243.881	0.07
244.255	0.2
244.629	0.12
245.004	0.1
245.378	0.19
245.752	0.08
246.126	0.2
246.5	0.14
246.874	0.09
247.248	0.12
247.622	0.12
247.996	0.04
248.37	0.11
248.744	0.16
249.118	0.14
249.492	0.16
249.866	0.16
250.24	0.07
250.613	0.21
250.987	0.17
251.361	0.13
251.735	0.1
252.108	0.09
252.482	0.19
252.856	0.01
253.229	0.12
253.603	0.06
253.977	0.12
254.35	0.18
254.724	0.14
255.097	0.18
255.471	0.18
255.844	0.11
256.218	0.08
256.591	0.13
256.964	0.11
257.338	0.11
257.711	0.1
258.084	0.19
258.458	0.14
258.831	0.13
259.204	0.13
259.577	0.16
259.95	0.2
260.323	0.13
260.697	0.13
261.07	0.08
261.443	0.12
261.816	0.12
262.189	0.12
262.562	0.11
262.935	0.11
263.308	0.13
263.68	0.17
264.053	0.13
264.426	0.14
264.799	0.17
265.172	0.08
265.545	0.13
265.917	0.15
266.29	0.12
266.663	0.17
267.035	0.17
267.408	0.17
267.781	0.18
268.153	0.11
268.526	0.08
268.898	0.14
269.271	0.26
269.643	0.09
270.016	0.07
270.388	0.16
270.76	0.13
271.133	0.13
271.505	0.09
271.877	0.14
272.25	0.17
272.622	0.21
272.994	0.15
273.366	0.19
273.739	0.19
274.111	0.16
274.483	0.12
274.855	0.13
275.227	0.13
275.599	0.16
275.971	0.14
276.343	0.27
276.715	0.18
277.087	0.16
277.459	0.15
277.831	0.16
278.203	0.07
278.574	0.13
278.946	0.16
279.318	0.13
279.69	0.14
280.061	0.11
280.433	0.15
280.805	0.22
281.176	0.21
281.548	0.16
281.92	0.15
282.291	0.14
282.663	0.19
283.034	0.16
283.406	0.15
283.777	0.2
284.148	0.23
284.52	0.13
284.891	0.1
285.262	0.19
285.634	0.18
286.005	0.13
286.376	0.17
286.747	0.11
287.119	0.15
287.49	0.16
287.861	0.18
288.232	0.14
288.603	0.14
288.974	0.15
289.345	0.14
289.716	0.15
290.087	0.15
290.458	0.12
290.829	0.15
291.2	0.19
291.571	0.13
291.941	0.16
292.312	0.22
292.683	0.18
293.054	0.15
293.424	0.11
293.795	0.09
294.166	0.1
294.536	0.17
294.907	0.2
295.277	0.15
295.648	0.15
296.018	0.21
296.389	0.14
296.759	0.17
297.13	0.13
297.5	0.17
297.871	0.1
298.241	0.17
298.611	0.09
298.981	0.14
299.352	0.15
299.722	0.16
300.092	0.13
300.462	0.09
300.832	0.12
301.202	0.16
301.573	0.13
301.943	0.07
302.313	0.09
302.683	0.1
303.053	0.11
303.422	0.08
303.792	0.08
304.162	0.11
304.532	0.05
304.902	0.07
305.272	0.08
305.641	0.07
306.011	0.05
306.381	0.07
306.75	0.06
307.12	0.06
307.49	0.06
307.859	0.07
308.229	0.09
308.598	0.09
308.968	0.08
309.337	0.1
309.707	0.08
310.076	0.1
310.445	0.07
310.815	0.09
311.184	0.1
311.553	0.1
311.923	0.11
312.292	0.1
312.661	0.1
313.03	0.11
313.399	0.11
313.768	0.12
314.137	0.12
314.506	0.12
314.875	0.12
315.244	0.12
315.613	0.13
315.982	0.13
316.351	0.13
316.72	0.13
317.089	0.14
317.458	0.14
317.826	0.14
318.195	0.14
318.564	0.15
318.933	0.15
319.301	0.16
319.67	0.16
320.038	0.15
320.407	0.14
320.775	0.16
321.144	0.16
321.512	0.16
321.881	0.17
322.249	0.17
322.618	0.17
322.986	0.17
323.354	0.18
323.723	0.18
324.091	0.18
324.459	0.18
324.827	0.19
325.195	0.19
325.564	0.19
325.932	0.19
326.3	0.19
326.668	0.19
327.036	0.19
327.404	0.19
327.772	0.2
328.14	0.21
328.508	0.21
328.875	0.21
329.243	0.22
329.611	0.22
329.979	0.22
330.346	0.23
330.714	0.23
331.082	0.23
331.449	0.24
331.817	0.24
332.185	0.24
332.552	0.24
332.92	0.25
333.287	0.26
333.655	0.26
334.022	0.27
334.389	0.27
334.757	0.27
335.124	0.28
335.491	0.29
335.859	0.29
336.226	0.3
336.593	0.3
336.96	0.31
337.327	0.32
337.695	0.32
338.062	0.32
338.429	0.33
338.796	0.34
339.163	0.34
339.53	0.35
339.897	0.36
340.263	0.36
340.63	0.36
340.997	0.37
341.364	0.37
341.731	0.38
342.097	0.39
342.464	0.4
342.831	0.4
343.197	0.41
343.564	0.42
343.931	0.42
344.297	0.43
344.664	0.44
345.03	0.44
345.396	0.45
345.763	0.46
346.129	0.47
346.496	0.47
346.862	0.48
347.228	0.48
347.594	0.49
347.961	0.5
348.327	0.51
348.693	0.51
349.059	0.51
349.425	0.52
349.791	0.53
350.157	0.53
350.523	0.54
350.889	0.55
351.255	0.55
351.621	0.56
351.987	0.57
352.353	0.57
352.719	0.58
353.084	0.59
353.45	0.59
353.816	0.6
354.181	0.6
354.547	0.61
354.913	0.62
355.278	0.63
355.644	0.64
356.009	0.64
356.375	0.65
356.74	0.66
357.106	0.67
357.471	0.69
357.836	0.69
358.202	0.69
358.567	0.71
358.932	0.71
359.297	0.72
359.663	0.73
360.028	0.74
360.393	0.76
360.758	0.76
361.123	0.79
361.488	0.79
361.853	0.8
362.218	0.81
362.583	0.82
362.948	0.82
363.312	0.84
363.677	0.85
364.042	0.85
364.407	0.87
364.772	0.87
365.136	0.89
365.501	0.9
365.865	0.9
366.23	0.91
366.595	0.91
366.959	0.93
367.324	0.93
367.688	0.94
368.052	0.95
368.417	0.96
368.781	0.96
369.145	0.98
369.51	0.98
369.874	0.99
370.238	1
370.602	1
370.967	1.01
371.331	1.01
371.695	1.02
372.059	1.01
372.423	1.03
372.787	1.01
373.151	1.03
373.515	1.01
373.878	1.02
374.242	1.02
374.606	1.01
374.97	1
375.334	0.99
375.697	0.98
376.061	0.97
376.425	0.96
376.788	0.96
377.152	0.96
377.515	0.95
377.879	0.93
378.242	0.93
378.606	0.91
378.969	0.9
379.333	0.89
379.696	0.87
380.059	0.87
380.422	0.87
380.786	0.86
381.149	0.84
381.512	0.84
381.875	0.83
382.238	0.83
382.601	0.81
382.964	0.8
383.327	0.8
383.69	0.78
384.053	0.78
384.416	0.78
384.779	0.77
385.142	0.77
385.504	0.76
385.867	0.76
386.23	0.76
386.593	0.76
386.955	0.75
387.318	0.75
387.68	0.76
388.043	0.76
388.405	0.76
388.768	0.76
389.13	0.75
389.493	0.76
389.855	0.75
390.217	0.75
390.58	0.74
390.942	0.73
391.304	0.73
391.666	0.72
392.028	0.71
392.391	0.71
392.753	0.69
393.115	0.69
393.477	0.68
393.839	0.68
394.201	0.67
394.563	0.67
394.924	0.67
395.286	0.67
395.648	0.67
396.01	0.67
396.371	0.68
396.733	0.69
397.095	0.7
397.456	0.72
397.818	0.74
398.18	0.75
398.541	0.76
398.903	0.79
399.264	0.81
399.625	0.83
399.987	0.85
400.348	0.86
400.709	0.87
401.071	0.88
401.432	0.88
401.793	0.89
402.154	0.88
402.515	0.88
402.876	0.85
403.238	0.84
403.599	0.82
403.96	0.8
404.32	0.77
404.681	0.74
405.042	0.71
405.403	0.68
405.764	0.65
406.125	0.62
406.485	0.59
406.846	0.56
407.207	0.52
407.567	0.49
407.928	0.47
408.288	0.44
408.649	0.42
409.009	0.4
409.37	0.37
409.73	0.35
410.091	0.33
410.451	0.31
410.811	0.3
411.171	0.28
411.532	0.27
411.892	0.25
412.252	0.24
412.612	0.23
412.972	0.21
413.332	0.21
413.692	0.2
414.052	0.19
414.412	0.18
414.772	0.18
415.132	0.17
415.492	0.16
415.851	0.16
416.211	0.15
416.571	0.15
416.931	0.15
417.29	0.13
417.65	0.13
418.009	0.13
418.369	0.13
418.728	0.12
419.088	0.12
419.447	0.12
419.807	0.11
420.166	0.11
420.525	0.11
420.884	0.11
421.244	0.11
421.603	0.11
421.962	0.1
422.321	0.1
422.68	0.1
423.039	0.1
423.398	0.09
423.757	0.08
424.116	0.1
424.475	0.1
424.834	0.09
425.193	0.08
425.551	0.08
425.91	0.08
426.269	0.09
426.628	0.09
426.986	0.09
427.345	0.08
427.703	0.08
428.062	0.08
428.42	0.08
428.779	0.08
429.137	0.08
429.496	0.08
429.854	0.07
430.212	0.07
430.57	0.08
430.929	0.08
431.287	0.07
431.645	0.08
432.003	0.08
432.361	0.07
432.719	0.07
433.077	0.07
433.435	0.07
433.793	0.07
434.151	0.07
434.509	0.07
434.866	0.08
435.224	0.07
435.582	0.07
435.94	0.08
436.297	0.07
436.655	0.07
437.012	0.08
437.37	0.07
437.727	0.06
438.085	0.07
438.442	0.08
438.8	0.06
439.157	0.07
439.514	0.06
439.872	0.08
440.229	0.06
440.586	0.06
440.943	0.07
441.3	0.06
441.657	0.07
442.014	0.06
442.371	0.07
442.728	0.07
443.085	0.08
443.442	0.07
443.799	0.07
444.156	0.06
444.513	0.07
444.869	0.07
445.226	0.07
445.583	0.07
445.939	0.07
446.296	0.07
446.652	0.07
447.009	0.08
447.365	0.08
447.722	0.07
448.078	0.07
448.434	0.06
448.791	0.07
449.147	0.07
449.503	0.07
449.859	0.08
450.215	0.07
450.571	0.07
450.928	0.07
451.284	0.07
451.64	0.06
451.995	0.06
452.351	0.07
452.707	0.07
453.063	0.07
453.419	0.08
453.775	0.07
454.13	0.07
454.486	0.07
454.842	0.07
455.197	0.06
455.553	0.06
455.908	0.06
456.264	0.07
456.619	0.06
456.975	0.06
457.33	0.06
457.685	0.06
458.04	0.06
458.396	0.06
458.751	0.05
459.106	0.06
459.461	0.05
459.816	0.05
460.171	0.05
460.526	0.05
460.881	0.05
461.236	0.06
461.591	0.04
461.946	0.05
462.301	0.05
462.655	0.04
463.01	0.04
463.365	0.04
463.719	0.03
464.074	0.04
464.428	0.04
464.783	0.04
465.137	0.03
465.492	0.03
465.846	0.03
466.201	0.04
466.555	0.04
466.909	0.04
467.263	0.04
467.618	0.04
467.972	0.04
468.326	0.04
468.68	0.04
469.034	0.03
469.388	0.04
469.742	0.04
470.096	0.04
470.45	0.05
470.804	0.04
471.157	0.04
471.511	0.05
471.865	0.05
472.218	0.05
472.572	0.06
472.926	0.06
473.279	0.06
473.633	0.06
473.986	0.07
474.34	0.07
474.693	0.08
475.046	0.08
475.4	0.08
475.753	0.09
476.106	0.1
476.459	0.1
476.812	0.11
477.165	0.11
477.519	0.11
477.872	0.11
478.224	0.12
478.577	0.12
478.93	0.13
479.283	0.13
479.636	0.13
479.989	0.14
480.341	0.15
480.694	0.14
481.047	0.15
481.399	0.15
481.752	0.16
482.104	0.16
482.457	0.16
482.809	0.16
483.162	0.16
483.514	0.17
483.866	0.17
484.219	0.18
484.571	0.18
484.923	0.18
485.275	0.18
485.627	0.18
485.979	0.19
486.331	0.19
486.683	0.19
487.035	0.19
487.387	0.19
487.739	0.2
488.091	0.2
488.443	0.2
488.794	0.21
489.146	0.21
489.498	0.21
489.849	0.21
490.201	0.21
490.552	0.21
490.904	0.21
491.255	0.22
491.607	0.22
491.958	0.22
492.309	0.22
492.661	0.23
493.012	0.23
493.363	0.23
493.714	0.23
494.065	0.23
494.416	0.23
494.767	0.24
495.118	0.24
495.469	0.24
495.82	0.25
496.171	0.25
496.522	0.25
496.872	0.25
497.223	0.25
497.574	0.26
497.924	0.26
498.275	0.26
498.626	0.26
498.976	0.27
499.327	0.27
499.677	0.27
500.027	0.27
500.378	0.27
500.728	0.28
501.078	0.28
501.428	0.28
501.779	0.28
502.129	0.28
502.479	0.29
502.829	0.29
503.179	0.29
503.529	0.29
503.879	0.29
504.229	0.3
504.578	0.3
504.928	0.3
505.278	0.3
505.628	0.3
505.977	0.3
506.327	0.31
506.676	0.31
507.026	0.31
507.375	0.32
507.725	0.32
508.074	0.32
508.424	0.32
508.773	0.32
509.122	0.32
509.471	0.33
509.82	0.33
510.17	0.32
510.519	0.33
510.868	0.33
511.217	0.33
511.566	0.33
511.915	0.34
512.263	0.34
512.612	0.34
512.961	0.34
513.31	0.34
513.659	0.34
514.007	0.35
514.356	0.35
514.704	0.35
515.053	0.35
515.401	0.35
515.75	0.36
516.098	0.36
516.447	0.36
516.795	0.35
517.143	0.36
517.491	0.37
517.839	0.37
518.188	0.36
518.536	0.37
518.884	0.37
519.232	0.37
519.58	0.38
519.928	0.38
520.275	0.38
520.623	0.38
520.971	0.38
521.319	0.38
521.666	0.38
522.014	0.39
522.362	0.39
522.709	0.39
523.057	0.39
523.404	0.39
523.752	0.39
524.099	0.39
524.446	0.39
524.794	0.4
525.141	0.4
525.488	0.4
525.835	0.4
526.182	0.4
526.529	0.4
526.876	0.41
527.223	0.41
527.57	0.4
527.917	0.41
528.264	0.41
528.611	0.42
528.958	0.41
529.304	0.41
529.651	0.41
529.998	0.42
530.344	0.42
530.691	0.42
531.037	0.42
531.384	0.42
531.73	0.42
532.076	0.42
532.423	0.42
532.769	0.43
533.115	0.42
533.461	0.42
533.807	0.43
534.154	0.43
534.5	0.43
534.846	0.43
535.192	0.44
535.537	0.43
535.883	0.43
536.229	0.43
536.575	0.43
536.921	0.43
537.266	0.44
537.612	0.44
537.957	0.44
538.303	0.44
538.649	0.44
538.994	0.44
539.339	0.44
539.685	0.44
540.03	0.44
540.375	0.44
540.721	0.45
541.066	0.44
541.411	0.45
541.756	0.44
542.101	0.45
542.446	0.45
542.791	0.45
543.136	0.45
543.481	0.45
543.825	0.45
544.17	0.45
544.515	0.46
544.86	0.46
545.204	0.46
545.549	0.45
545.893	0.45
546.238	0.46
546.582	0.46
546.927	0.46
547.271	0.46
547.615	0.46
547.96	0.46
548.304	0.46
548.648	0.46
548.992	0.46
549.336	0.46
549.68	0.46
550.024	0.46
550.368	0.46
550.712	0.46
551.056	0.47
551.4	0.47
551.743	0.46
552.087	0.47
552.431	0.46
552.774	0.47
553.118	0.47
553.462	0.46
553.805	0.47
554.148	0.46
554.492	0.47
554.835	0.47
555.178	0.46
555.522	0.46
555.865	0.46
556.208	0.46
556.551	0.46
556.894	0.46
557.237	0.46
557.58	0.46
557.923	0.46
558.266	0.46
558.609	0.47
558.952	0.46
559.294	0.47
559.637	0.46
559.98	0.46
560.322	0.47
560.665	0.46
561.007	0.46
561.35	0.46
561.692	0.46
562.034	0.46
562.377	0.46
562.719	0.46
563.061	0.46
563.403	0.46
563.745	0.46
564.088	0.46
564.43	0.46
564.772	0.46
565.113	0.46
565.455	0.46
565.797	0.46
566.139	0.46
566.481	0.45
566.822	0.46
567.164	0.45
567.506	0.45
567.847	0.46
568.189	0.45
568.53	0.45
568.872	0.45
569.213	0.45
569.554	0.45
569.895	0.45
570.237	0.45
570.578	0.45
570.919	0.45
571.26	0.44
571.601	0.44
571.942	0.44
572.283	0.44
572.624	0.44
572.965	0.44
573.306	0.43
573.646	0.43
573.987	0.43
574.328	0.43
574.668	0.43
575.009	0.43
575.349	0.42
575.69	0.42
576.03	0.42
576.37	0.41
576.711	0.4
577.051	0.4
577.391	0.41
577.731	0.42
578.072	0.41
578.412	0.41
578.752	0.41
579.092	0.4
579.431	0.37
579.771	0.34
580.111	0.33
580.451	0.34
580.791	0.37
581.13	0.39
581.47	0.4
581.81	0.4
582.149	0.39
582.489	0.4
582.828	0.37
583.167	0.32
583.507	0.29
583.846	0.28
584.185	0.3
584.525	0.33
584.864	0.36
585.203	0.39
585.542	0.4
585.881	0.41
586.22	0.4
586.559	0.38
586.898	0.35
587.236	0.34
587.575	0.34
587.914	0.35
588.252	0.37
588.591	0.38
588.93	0.38
589.268	0.37
589.607	0.37
589.945	0.37
590.283	0.37
590.622	0.38
590.96	0.4
591.298	0.4
591.636	0.4
591.974	0.4
592.313	0.41
592.651	0.41
592.989	0.41
593.326	0.41
593.664	0.41
594.002	0.41
594.34	0.4
594.678	0.38
595.015	0.36
595.353	0.35
595.691	0.36
596.028	0.38
596.366	0.4
596.703	0.41
597.04	0.41
597.378	0.41
597.715	0.41
598.052	0.41
598.389	0.41
598.726	0.41
599.064	0.41
599.401	0.41
599.738	0.41
600.074	0.41
600.411	0.4
600.748	0.38
601.085	0.37
601.422	0.36
601.758	0.36
602.095	0.37
602.432	0.37
602.768	0.37
603.105	0.39
603.441	0.4
603.777	0.4
604.114	0.41
604.45	0.41
604.786	0.41
605.122	0.41
605.459	0.4
605.795	0.4
606.131	0.39
606.467	0.4
606.803	0.4
607.139	0.4
607.474	0.39
607.81	0.39
608.146	0.38
608.482	0.39
608.817	0.38
609.153	0.38
609.488	0.37
609.824	0.38
610.159	0.39
610.495	0.39
610.83	0.39
611.165	0.39
611.5	0.39
611.836	0.39
612.171	0.38
612.506	0.38
612.841	0.38
613.176	0.38
613.511	0.38
613.845	0.38
614.18	0.38
614.515	0.38
614.85	0.38
615.184	0.38
615.519	0.38
615.854	0.38
616.188	0.37
616.523	0.37
616.857	0.37
617.191	0.37
617.526	0.36
617.86	0.37
618.194	0.36
618.528	0.36
618.862	0.36
619.196	0.36
619.53	0.36
619.864	0.36
620.198	0.36
620.532	0.36
620.866	0.36
621.2	0.36
621.533	0.36
621.867	0.36
622.201	0.35
622.534	0.36
622.868	0.36
623.201	0.35
623.534	0.35
623.868	0.35
624.201	0.34
624.534	0.34
624.868	0.34
625.201	0.34
625.534	0.34
625.867	0.34
626.2	0.34
626.533	0.34
626.865	0.34
627.198	0.33
627.531	0.33
627.864	0.33
628.196	0.33
628.529	0.33
628.862	0.32
629.194	0.32
629.527	0.32
629.859	0.32
630.191	0.32
630.524	0.31
630.856	0.32
631.188	0.31
631.52	0.31
631.852	0.31
632.184	0.3
632.516	0.3
632.848	0.31
633.18	0.3
633.512	0.3
633.844	0.3
634.175	0.3
634.507	0.3
634.839	0.29
635.17	0.29
635.502	0.29
635.833	0.29
636.165	0.29
636.496	0.29
636.827	0.28
637.159	0.28
637.49	0.28
637.821	0.27
638.152	0.27
638.483	0.27
638.814	0.27
639.145	0.26
639.476	0.26
639.807	0.26
640.137	0.26
640.468	0.26
640.799	0.26
641.129	0.25
641.46	0.25
641.791	0.25
642.121	0.25
642.451	0.25
642.782	0.25
643.112	0.25
643.442	0.25
643.773	0.25
644.103	0.24
644.433	0.24
644.763	0.24
645.093	0.24
645.423	0.23
645.753	0.23
646.082	0.23
646.412	0.23
646.742	0.23
647.072	0.23
647.401	0.23
647.731	0.23
648.06	0.23
648.39	0.22
648.719	0.22
649.048	0.22
649.378	0.22
649.707	0.22
650.036	0.22
650.365	0.22
650.694	0.22
651.023	0.22
651.352	0.21
651.681	0.21
652.01	0.21
652.339	0.21
652.668	0.21
652.996	0.22
653.325	0.21
653.654	0.21
653.982	0.21
654.311	0.21
654.639	0.21
654.967	0.21
655.296	0.21
655.624	0.21
655.952	0.21
656.28	0.21
656.609	0.2
656.937	0.21
657.265	0.2
657.593	0.05
657.92	0
658.248	0
658.576	0
658.904	0.02
659.231	0.09
659.559	0.16
659.887	0.19
660.214	0.2
660.542	0.2
660.869	0.2
661.196	0.2
661.524	0.2
661.851	0.2
662.178	0.19
662.505	0.19
662.832	0.19
663.159	0.19
663.486	0.19
663.813	0.19
664.14	0.19
664.467	0.19
664.794	0.19
665.12	0.19
665.447	0.19
665.774	0.19
666.1	0.19
666.427	0.19
666.753	0.18
667.079	0.18
667.406	0.18
667.732	0.18
668.058	0.18
668.384	0.18
668.71	0.18
669.036	0.18
669.362	0.18
669.688	0.18
670.014	0.17
670.34	0.17
670.666	0.17
670.991	0.17
671.317	0.17
671.643	0.16
671.968	0.16
672.294	0.16
672.619	0.16
672.945	0.15
673.27	0.16
673.595	0.15
673.92	0.14
674.246	0.14
674.571	0.14
674.896	0.14
675.221	0.15
675.546	0.14
675.87	0.15
676.195	0.14
676.52	0.15
676.845	0.14
677.169	0.14
677.494	0.14
677.819	0.14
678.143	0.13
678.468	0.13
678.792	0.13
679.116	0.13
679.44	0.13
679.765	0.12
680.089	0.12
680.413	0.12
680.737	0.11
681.061	0.11
681.385	0.11
681.709	0.1
682.033	0.1
682.356	0.1
682.68	0.11
683.004	0.1
683.327	0.09
683.651	0.09
683.974	0.09
684.298	0.1
684.621	0.1
684.944	0.1
685.268	0.09
685.591	0.09
685.914	0.08
686.237	0.07
686.56	0.07
686.883	0.06
687.206	0.05
687.529	0.05
687.852	0.05
688.175	0.05
688.497	0.06
688.82	0.06
689.142	0.06
689.465	0.05
689.787	0.06
690.11	0.06
690.432	0.05
690.755	0.05
691.077	0.05
691.399	0.05
691.721	0.05
692.043	0.05
692.365	0.05
692.687	0.04
693.009	0.04
693.331	0.03
693.653	0.03
693.974	0.04
694.296	0.03
694.618	0.03
694.939	0.03
695.261	0.03
695.582	0.03
695.904	0.03
696.225	0.03
696.546	0.03
696.868	0.03
697.189	0.03
697.51	0.02
697.831	0.02
698.152	0.03
698.473	0.02
698.794	0.01
699.114	0.01
699.435	0
699.756	0.01
700.077	0.01
700.397	0.01
700.718	0.02
701.038	0.02
701.359	0.02
701.679	0.02
701.999	0.02
702.32	0.02
702.64	0.02
702.96	0.02
703.28	0.02
703.6	0.02
703.92	0.01
704.24	0.01
704.56	0.01
704.879	0.01
705.199	0.01
705.519	0.01
705.838	0.01
706.158	0.01
706.478	0.01
706.797	0.02
707.116	0.02
707.436	0.02
707.755	0.01
708.074	0.01
708.393	0.01
708.712	0
709.031	0
709.35	0
709.669	0
709.988	0
710.307	0
710.626	0
710.944	0
711.263	0
711.582	0.01
711.9	0.01
712.219	0
712.537	0
712.855	0.01
713.174	0
713.492	0
713.81	0.01
714.128	0.01
714.446	0.01
714.764	0
715.082	0
715.4	0
715.718	0
716.035	0
716.353	0
716.671	0
716.988	0.01
717.306	0
717.623	0.01
717.941	0.01
718.258	0.01
718.575	0.01
718.893	0.01
719.21	0.01
719.527	0.01
719.844	0.01
720.161	0.01
720.478	0.01
720.795	0.01
721.112	0.01
721.428	0.01
721.745	0.01
722.062	0.01
722.378	0.01
722.695	0.01
723.011	0.01
723.328	0.02
723.644	0.02
723.96	0.02
724.276	0.02
724.593	0.02
724.909	0.02
725.225	0.02
725.541	0.02
725.857	0.02
726.173	0.02
726.488	0.03
726.804	0.02
727.12	0.02
727.435	0.02
727.751	0.02
728.067	0.02
728.382	0.02
728.697	0.02
729.013	0.03
729.328	0.02
729.643	0.02
729.958	0.02
730.273	0.02
730.588	0.02
730.903	0.02
731.218	0.02
731.533	0.02
731.848	0.02
732.163	0.02
732.477	0.01
732.792	0.01
733.107	0.01
733.421	0.01
733.736	0.01
734.05	0.02
734.364	0.02
734.678	0.02
734.993	0.01
735.307	0.02
735.621	0.01
735.935	0.02
736.249	0.01
736.563	0.01
736.877	0.02
737.19	0.02
737.504	0.02
737.818	0.02
738.131	0.02
738.445	0.02
738.758	0.03
739.072	0.02
739.385	0.03
739.698	0.03
740.012	0.03
740.325	0.03
740.638	0.03
740.951	0.03
741.264	0.02
741.577	0.02
741.89	0.03
742.203	0.03
742.515	0.04
742.828	0.04
743.141	0.03
743.453	0.04
743.766	0.03
744.078	0.03
744.391	0.03
744.703	0.03
745.015	0.03
745.327	0.03
745.639	0.03
745.952	0.03
746.264	0.03
746.575	0.03
746.887	0.03
747.199	0.03
747.511	0.03
747.823	0.03
748.134	0.03
748.446	0.03
748.757	0.03
749.069	0.03
749.38	0.03
749.692	0.03
750.003	0.03
750.314	0.02
750.625	0.02
750.936	0.02
751.248	0.02
751.559	0.01
751.869	0.01
752.18	0.01
752.491	0.01
752.802	0.01
753.112	0.01
753.423	0.01
753.734	0.01
754.044	0.01
754.355	0.01
754.665	0.01
754.975	0.01
755.285	0.01
755.596	0.01
755.906	0.01
756.216	0.01
756.526	0.01
756.836	0.01
757.146	0.01
757.455	0.01
757.765	0.01
758.075	0
758.385	0
758.694	0
759.004	0
759.313	0
759.622	0
759.932	0
760.241	0
760.55	0
760.859	0.01
761.168	0.01
761.477	0.01
761.786	0
762.095	0
762.404	0
762.713	0.01
763.021	0.01
763.33	0.01
763.639	0.01
763.947	0.01
764.256	0.01
764.564	0.01
764.872	0.01
765.181	0.01
765.489	0.01
765.797	0.01
766.105	0.01
766.413	0.01
766.721	0.01
767.029	0.01
767.337	0.01
767.644	0.01
767.952	0.02
768.26	0.02
768.567	0.02
768.875	0.02
769.182	0.02
769.49	0.02
769.797	0.02
770.104	0.02
770.411	0.02
770.718	0.02
771.026	0.02
771.333	0.02
771.639	0.02
771.946	0.02
772.253	0.02
772.56	0.02
772.867	0.02
773.173	0.02
773.48	0.03
773.786	0.03
774.093	0.03
774.399	0.03
774.705	0.03
775.012	0.03
775.318	0.03
775.624	0.03
775.93	0.03
776.236	0.02
776.542	0.02
776.848	0.02
777.154	0.02
777.459	0.02
777.765	0.02
778.071	0.02
778.376	0.02
778.682	0.02
778.987	0.02
779.292	0.02
779.598	0.02
779.903	0.03
780.208	0.02
780.513	0.02
780.818	0.02
781.123	0.02
781.428	0.02
781.733	0.02
782.038	0.02
782.343	0.02
782.647	0.02
782.952	0.03
783.256	0.03
783.561	0.03
783.865	0.03
784.17	0.03
784.474	0.03
784.778	0.03
785.082	0.03
785.386	0.02
785.69	0.03
785.994	0.03
786.298	0.02
786.602	0.02
786.906	0.02
787.209	0.03
787.513	0.02
787.817	0.03
788.12	0.02
788.424	0.02
788.727	0.02
789.03	0.02
789.333	0.02
789.637	0.02
789.94	0.02
790.243	0.02
790.546	0.03
790.849	0.03
791.152	0.03
791.454	0.03
791.757	0.03
792.06	0.03
792.362	0.03
792.665	0.03
792.967	0.03
793.27	0.02
793.572	0.02
793.874	0.02
794.177	0.02
794.479	0.02
794.781	0.03
795.083	0.03
795.385	0.03
795.687	0.03
795.989	0.03
796.29	0.03
796.592	0.03
796.894	0.03
797.195	0.03
797.497	0.03
797.798	0.04
798.1	0.03
798.401	0.03
798.702	0.04
799.003	0.03
799.304	0.03
799.605	0.03
799.906	0.03
800.207	0.03
800.508	0.04
800.809	0.04
801.11	0.04
801.41	0.04
801.711	0.03
802.011	0.03
802.312	0.03
802.612	0.03
802.913	0.03
803.213	0.03
803.513	0.03
803.813	0.03
804.113	0.03
804.413	0.03
804.713	0.03
805.013	0.03
805.313	0.03
805.613	0.03
805.912	0.04
806.212	0.04
806.511	0.03
806.811	0.04
807.11	0.03
807.41	0.03
807.709	0.03
808.008	0.04
808.307	0.03
808.606	0.03
808.905	0.03
809.204	0.04
809.503	0.03
809.802	0.03
810.101	0.03
810.399	0.04
810.698	0.03
810.997	0.03
811.295	0.03
811.593	0.03
811.892	0.03
812.19	0.03
812.488	0.03
812.786	0.03
813.084	0.03
813.383	0.03
813.68	0.03
813.978	0.04
814.276	0.04
814.574	0.04
814.872	0.04
815.169	0.04
815.467	0.04
815.764	0.04
816.062	0.04
816.359	0.04
816.656	0.04
816.954	0.04
817.251	0.04
817.548	0.04
817.845	0.05
818.142	0.04
818.439	0.04
818.735	0.04
819.032	0.04
819.329	0.04
819.626	0.04
819.922	0.04
820.219	0.04
820.515	0.05
820.811	0.05
821.108	0.04
821.404	0.05
821.7	0.05
821.996	0.04
822.292	0.05
822.588	0.05
822.884	0.05
823.18	0.05
823.475	0.04
823.771	0.05
824.067	0.05
824.362	0.05
824.658	0.05
824.953	0.04
825.249	0.04
825.544	0.04
825.839	0.04
826.134	0.04
826.429	0.04
826.724	0.04
827.019	0.04
827.314	0.04
827.609	0.04
827.904	0.04
828.198	0.05
828.493	0.05
828.787	0.05
829.082	0.05
829.376	0.05
829.671	0.05
829.965	0.06
830.259	0.05
830.553	0.05
830.847	0.05
831.141	0.05
831.435	0.05
831.729	0.05
832.023	0.05
832.317	0.05
832.61	0.05
832.904	0.05
833.197	0.05
833.491	0.05
833.784	0.05
834.077	0.05
834.371	0.05
834.664	0.05
834.957	0.06
835.25	0.06
835.543	0.05
835.836	0.05
836.129	0.06
836.421	0.06
836.714	0.06
837.007	0.06
837.299	0.06
837.592	0.06
837.884	0.06
838.177	0.05
838.469	0.05
838.761	0.06
839.053	0.05
839.345	0.05
839.637	0.05
839.929	0.06
840.221	0.05
840.513	0.06
840.805	0.06
841.096	0.05
841.388	0.06
841.68	0.06
841.971	0.06
842.262	0.06
842.554	0.06
842.845	0.05
843.136	0.05
843.427	0.05
843.718	0.05
844.009	0.05
844.3	0.06
844.591	0.06
844.882	0.06
845.173	0.05
845.463	0.06
845.754	0.06
846.044	0.06
846.335	0.06
846.625	0.06
846.915	0.06
847.206	0.06
847.496	0.06
847.786	0.05
848.076	0.06
848.366	0.06
848.656	0.05
848.945	0.05
849.235	0.06
849.525	0.05
849.814	0.06
850.104	0.06
850.393	0.05
850.683	0.06
850.972	0.05
851.261	0.06
851.551	0.06
851.84	0.06
852.129	0.06
852.418	0.05
852.707	0.06
852.995	0.06
853.284	0.06
853.573	0.05
853.862	0.07
854.15	0.06
854.439	0.07
854.727	0.07
855.015	0.07
855.304	0.07
855.592	0.08
855.88	0.06
856.168	0.07
856.456	0.08
856.744	0.07
857.032	0.08
857.32	0.08
857.607	0.08
857.895	0.07
858.183	0.07
858.47	0.07
858.757	0.06
859.045	0.07
859.332	0.08
859.619	0.07
859.907	0.08
860.194	0.09
860.481	0.08
860.768	0.09
861.054	0.05
861.341	0.07
861.628	0.07
861.915	0.07
862.201	0.07
862.488	0.07
862.774	0.08
863.061	0.08
863.347	0.08
863.633	0.07
863.919	0.09
864.205	0.07
864.491	0.08
864.777	0.08
865.063	0.07
865.349	0.06
865.635	0.05
865.92	0.05
866.206	0.06
866.492	0.07
866.777	0.07
867.062	0.06
867.348	0.08
867.633	0.06
867.918	0.07
868.203	0.08
868.488	0.04
868.773	0.08
869.058	0.11
869.343	0.07
869.628	0.08
869.912	0.05
870.197	0.05
870.482	0.09
870.766	0.06
871.05	0.05
871.335	0.06
871.619	0.04
871.903	0.04
872.187	0.05
872.471	0.06
872.755	0.1
873.039	0.04
873.323	0.04
873.607	0.05
873.89	0.05
874.174	0.05
874.458	0.05
874.741	0.07
875.024	0.05
875.308	0.05
875.591	-0.02
875.874	0.07
876.157	0.02
876.44	0.1
876.723	0.07
877.006	0.07
877.289	0.07
877.572	0.01
877.854	0.07
878.137	0.03
878.42	0.08
878.702	0.04
878.984	0
879.267	0.01
879.549	0.02
879.831	0.06
880.113	0.05
880.395	0
880.677	-0.01
880.959	-0.01
