Data from Rubpy_BV_600_EDTA_Buffered_Absorbance_12-36-27-522.txt Node
Date: Wed Jul 01 12:36:27 BST 2026
User: fpm-admin
Spectrometer: OFX00224
Trigger mode: 0
Integration Time (sec): 7.000000E-2
Scans to average: 3
Nonlinearity correction enabled: false
Boxcar width: 0
Storing dark spectrum: false
XAxis mode: Wavelengths
Number of Pixels in Spectrum: 2136
>>>>>Begin Spectral Data<<<<<
154.91	1.36
155.289	-0
155.669	0.2
156.048	-0
156.428	-0
156.807	-0
157.186	-0.12
157.566	-0.3
157.945	0.1
158.325	-0.05
158.704	-0
159.083	-0
159.462	0.86
159.842	0.3
160.221	0.64
160.6	0.88
160.979	0.15
161.359	0.78
161.738	-0
162.117	-0
162.496	-0.12
162.875	-0
163.254	-0
163.633	0.48
164.012	-0.29
164.391	0.1
164.77	0.2
165.149	-0.26
165.528	-0
165.907	-0.46
166.286	-0
166.665	-0
167.044	-0
167.423	0.68
167.802	-0
168.181	0.07
168.559	0.1
168.938	-1
169.317	-0.7
169.696	-0.93
170.074	0.48
170.453	1
170.832	0.44
171.21	-0.87
171.589	0.25
171.968	1.13
172.346	0.13
172.725	-0
173.103	0.7
173.482	0.26
173.861	-0
174.239	-0
174.617	0.45
174.996	-0
175.374	-0
175.753	-0.05
176.131	-0
176.51	-0
176.888	0.54
177.266	1.42
177.645	-0.08
178.023	0.69
178.401	-0.23
178.779	0.06
179.158	0.15
179.536	-0
179.914	-0
180.292	-0.07
180.67	-0.38
181.048	0.27
181.427	0.02
181.805	0.75
182.183	-0
182.561	-0.2
182.939	0.15
183.317	0.24
183.695	-0
184.073	0.77
184.451	-0
184.829	0.48
185.206	-0.23
185.584	0.19
185.962	0.86
186.34	-0.49
186.718	-1.02
187.096	-0
187.473	-0.15
187.851	-0.17
188.229	-0.3
188.607	0.02
188.984	0.08
189.362	0.07
189.74	0.12
190.117	0.05
190.495	0.07
190.872	-0.02
191.25	0.05
191.627	0.03
192.005	0.08
192.382	0.04
192.76	0.14
193.137	0.07
193.515	0.05
193.892	0.33
194.269	0.05
194.647	0.11
195.024	0.04
195.401	0.13
195.779	0.06
196.156	0.09
196.533	0.08
196.91	0.13
197.288	0.07
197.665	0.07
198.042	0.09
198.419	0.04
198.796	0.08
199.173	0.1
199.55	-0.05
199.927	0.19
200.304	0.08
200.681	0.1
201.058	-0.1
201.435	0.04
201.812	0.1
202.189	0.06
202.566	0.05
202.943	0.13
203.32	0.07
203.697	-0.07
204.073	0
204.45	-0.01
204.827	0.08
205.204	0.01
205.58	0.14
205.957	-0.04
206.334	0.13
206.71	0.16
207.087	-0.01
207.464	0.15
207.84	0.04
208.217	0.11
208.593	0.06
208.97	0.1
209.346	0.08
209.723	0.06
210.099	0.03
210.476	0.04
210.852	0.15
211.228	0.16
211.605	0.05
211.981	0.09
212.357	0.02
212.733	-0
213.11	0.07
213.486	0.02
213.862	0.15
214.238	0.07
214.614	0.14
214.991	0.12
215.367	0.11
215.743	0.08
216.119	0.1
216.495	0.04
216.871	0.07
217.247	0.04
217.623	0.09
217.999	0.1
218.375	0.02
218.751	0.13
219.127	-0.02
219.502	0.17
219.878	0.01
220.254	0.03
220.63	0.15
221.006	0.03
221.381	0.17
221.757	0.11
222.133	0.1
222.508	0.04
222.884	0.06
223.26	0.02
223.635	0.1
224.011	0.01
224.386	0.09
224.762	0.2
225.137	0.15
225.513	0.05
225.888	0.06
226.264	0.06
226.639	0.09
227.014	0.14
227.39	0.08
227.765	0.14
228.14	0.15
228.516	0.12
228.891	0.18
229.266	0.15
229.641	0.13
230.017	0.04
230.392	0.12
230.767	0.12
231.142	0.21
231.517	0.16
231.892	0.15
232.267	0.18
232.642	0.19
233.017	0.1
233.392	0.07
233.767	0.09
234.142	0.11
234.517	0.07
234.892	0.14
235.267	0.12
235.641	0.13
236.016	0.15
236.391	0.11
236.766	0.2
237.14	0.06
237.515	0.15
237.89	0.08
238.264	0.07
238.639	0.1
239.014	0.16
239.388	0.17
239.763	0.17
240.137	0.07
240.512	0.11
240.886	0.02
241.261	0.17
241.635	0.13
242.009	0.14
242.384	0.11
242.758	0.12
243.132	0.14
243.507	0.08
243.881	0.03
244.255	0.16
244.629	0.1
245.004	0.2
245.378	0.14
245.752	0.08
246.126	0.19
246.5	0.04
246.874	0.04
247.248	0.18
247.622	0.08
247.996	0.03
248.37	0.15
248.744	0.14
249.118	0.06
249.492	0.21
249.866	0.12
250.24	0.1
250.613	0.15
250.987	0.12
251.361	0.1
251.735	0.09
252.108	0.11
252.482	0.16
252.856	0.07
253.229	0.12
253.603	-0
253.977	0.09
254.35	0.16
254.724	0.19
255.097	0.07
255.471	0.12
255.844	0.12
256.218	0.06
256.591	0.11
256.964	0.12
257.338	0.12
257.711	0.12
258.084	0.14
258.458	0.1
258.831	0.15
259.204	0.1
259.577	0.1
259.95	0.15
260.323	0.16
260.697	0.07
261.07	0.06
261.443	0.13
261.816	0.12
262.189	0.1
262.562	0.15
262.935	0.15
263.308	0.06
263.68	0.11
264.053	0.14
264.426	0.11
264.799	0.17
265.172	0.19
265.545	0.17
265.917	0.14
266.29	0.07
266.663	0.23
267.035	0.13
267.408	0.14
267.781	0.17
268.153	0.15
268.526	0.09
268.898	0.05
269.271	0.21
269.643	0.04
270.016	0.1
270.388	0.12
270.76	0.09
271.133	0.17
271.505	0.15
271.877	0.12
272.25	0.15
272.622	0.27
272.994	0.16
273.366	0.18
273.739	0.16
274.111	0.17
274.483	0.14
274.855	0.13
275.227	0.11
275.599	0.13
275.971	0.07
276.343	0.11
276.715	0.14
277.087	0.14
277.459	0.12
277.831	0.14
278.203	0.13
278.574	0.13
278.946	0.1
279.318	0.15
279.69	0.16
280.061	0.13
280.433	0.05
280.805	0.13
281.176	0.16
281.548	0.15
281.92	0.19
282.291	0.16
282.663	0.16
283.034	0.14
283.406	0.2
283.777	0.15
284.148	0.18
284.52	0.14
284.891	0.15
285.262	0.1
285.634	0.12
286.005	0.14
286.376	0.14
286.747	0.13
287.119	0.12
287.49	0.16
287.861	0.08
288.232	0.08
288.603	0.15
288.974	0.17
289.345	0.19
289.716	0.2
290.087	0.16
290.458	0.12
290.829	0.1
291.2	0.14
291.571	0.11
291.941	0.1
292.312	0.17
292.683	0.17
293.054	0.19
293.424	0.08
293.795	0.13
294.166	0.09
294.536	0.16
294.907	0.21
295.277	0.17
295.648	0.19
296.018	0.15
296.389	0.15
296.759	0.13
297.13	0.15
297.5	0.15
297.871	0.08
298.241	0.09
298.611	0.1
298.981	0.12
299.352	0.14
299.722	0.14
300.092	0.13
300.462	0.08
300.832	0.12
301.202	0.13
301.573	0.1
301.943	0.06
302.313	0.07
302.683	0.1
303.053	0.09
303.422	0.06
303.792	0.08
304.162	0.07
304.532	0.07
304.902	0.09
305.272	0.07
305.641	0.09
306.011	0.07
306.381	0.05
306.75	0.06
307.12	0.07
307.49	0.07
307.859	0.08
308.229	0.08
308.598	0.08
308.968	0.07
309.337	0.09
309.707	0.08
310.076	0.09
310.445	0.08
310.815	0.09
311.184	0.09
311.553	0.1
311.923	0.11
312.292	0.1
312.661	0.1
313.03	0.11
313.399	0.11
313.768	0.11
314.137	0.12
314.506	0.11
314.875	0.12
315.244	0.13
315.613	0.13
315.982	0.12
316.351	0.14
316.72	0.12
317.089	0.14
317.458	0.13
317.826	0.13
318.195	0.14
318.564	0.14
318.933	0.14
319.301	0.15
319.67	0.15
320.038	0.15
320.407	0.14
320.775	0.15
321.144	0.16
321.512	0.15
321.881	0.17
322.249	0.16
322.618	0.16
322.986	0.16
323.354	0.17
323.723	0.17
324.091	0.18
324.459	0.17
324.827	0.18
325.195	0.18
325.564	0.18
325.932	0.18
326.3	0.19
326.668	0.19
327.036	0.18
327.404	0.18
327.772	0.2
328.14	0.2
328.508	0.2
328.875	0.21
329.243	0.21
329.611	0.21
329.979	0.22
330.346	0.22
330.714	0.22
331.082	0.22
331.449	0.23
331.817	0.23
332.185	0.23
332.552	0.24
332.92	0.24
333.287	0.25
333.655	0.25
334.022	0.26
334.389	0.26
334.757	0.27
335.124	0.28
335.491	0.28
335.859	0.28
336.226	0.29
336.593	0.29
336.96	0.29
337.327	0.3
337.695	0.31
338.062	0.31
338.429	0.32
338.796	0.33
339.163	0.33
339.53	0.33
339.897	0.34
340.263	0.35
340.63	0.35
340.997	0.36
341.364	0.36
341.731	0.36
342.097	0.38
342.464	0.38
342.831	0.38
343.197	0.39
343.564	0.4
343.931	0.41
344.297	0.42
344.664	0.42
345.03	0.43
345.396	0.44
345.763	0.44
346.129	0.45
346.496	0.45
346.862	0.46
347.228	0.47
347.594	0.47
347.961	0.48
348.327	0.49
348.693	0.49
349.059	0.5
349.425	0.5
349.791	0.51
350.157	0.52
350.523	0.52
350.889	0.52
351.255	0.53
351.621	0.54
351.987	0.54
352.353	0.55
352.719	0.56
353.084	0.57
353.45	0.57
353.816	0.58
354.181	0.59
354.547	0.6
354.913	0.6
355.278	0.61
355.644	0.62
356.009	0.62
356.375	0.63
356.74	0.63
357.106	0.65
357.471	0.66
357.836	0.66
358.202	0.67
358.567	0.69
358.932	0.69
359.297	0.7
359.663	0.71
360.028	0.72
360.393	0.73
360.758	0.73
361.123	0.75
361.488	0.76
361.853	0.77
362.218	0.78
362.583	0.8
362.948	0.8
363.312	0.81
363.677	0.83
364.042	0.83
364.407	0.84
364.772	0.85
365.136	0.85
365.501	0.86
365.865	0.87
366.23	0.87
366.595	0.89
366.959	0.9
367.324	0.91
367.688	0.9
368.052	0.92
368.417	0.92
368.781	0.94
369.145	0.94
369.51	0.95
369.874	0.96
370.238	0.96
370.602	0.97
370.967	0.97
371.331	0.98
371.695	0.98
372.059	0.98
372.423	0.99
372.787	0.98
373.151	1
373.515	0.99
373.878	0.98
374.242	0.97
374.606	0.97
374.97	0.97
375.334	0.96
375.697	0.95
376.061	0.94
376.425	0.94
376.788	0.93
377.152	0.92
377.515	0.91
377.879	0.91
378.242	0.89
378.606	0.88
378.969	0.87
379.333	0.86
379.696	0.85
380.059	0.84
380.422	0.83
380.786	0.83
381.149	0.82
381.512	0.81
381.875	0.8
382.238	0.79
382.601	0.78
382.964	0.78
383.327	0.77
383.69	0.76
384.053	0.76
384.416	0.76
384.779	0.76
385.142	0.74
385.504	0.74
385.867	0.73
386.23	0.74
386.593	0.74
386.955	0.74
387.318	0.74
387.68	0.74
388.043	0.73
388.405	0.74
388.768	0.73
389.13	0.74
389.493	0.73
389.855	0.73
390.217	0.72
390.58	0.72
390.942	0.72
391.304	0.71
391.666	0.7
392.028	0.69
392.391	0.69
392.753	0.69
393.115	0.67
393.477	0.66
393.839	0.65
394.201	0.66
394.563	0.66
394.924	0.65
395.286	0.64
395.648	0.65
396.01	0.65
396.371	0.66
396.733	0.68
397.095	0.68
397.456	0.7
397.818	0.72
398.18	0.73
398.541	0.75
398.903	0.77
399.264	0.79
399.625	0.82
399.987	0.82
400.348	0.84
400.709	0.85
401.071	0.86
401.432	0.87
401.793	0.86
402.154	0.86
402.515	0.86
402.876	0.83
403.238	0.82
403.599	0.8
403.96	0.78
404.32	0.75
404.681	0.73
405.042	0.69
405.403	0.67
405.764	0.63
406.125	0.6
406.485	0.57
406.846	0.54
407.207	0.51
407.567	0.48
407.928	0.47
408.288	0.44
408.649	0.41
409.009	0.39
409.37	0.36
409.73	0.35
410.091	0.33
410.451	0.3
410.811	0.29
411.171	0.27
411.532	0.26
411.892	0.25
412.252	0.23
412.612	0.22
412.972	0.21
413.332	0.21
413.692	0.2
414.052	0.18
414.412	0.18
414.772	0.17
415.132	0.16
415.492	0.17
415.851	0.15
416.211	0.15
416.571	0.15
416.931	0.15
417.29	0.13
417.65	0.13
418.009	0.13
418.369	0.13
418.728	0.12
419.088	0.12
419.447	0.12
419.807	0.11
420.166	0.11
420.525	0.11
420.884	0.11
421.244	0.1
421.603	0.11
421.962	0.1
422.321	0.1
422.68	0.1
423.039	0.1
423.398	0.09
423.757	0.08
424.116	0.09
424.475	0.1
424.834	0.09
425.193	0.08
425.551	0.08
425.91	0.08
426.269	0.09
426.628	0.08
426.986	0.09
427.345	0.09
427.703	0.08
428.062	0.08
428.42	0.08
428.779	0.08
429.137	0.07
429.496	0.09
429.854	0.07
430.212	0.08
430.57	0.08
430.929	0.08
431.287	0.07
431.645	0.07
432.003	0.08
432.361	0.08
432.719	0.07
433.077	0.08
433.435	0.07
433.793	0.07
434.151	0.07
434.509	0.07
434.866	0.07
435.224	0.07
435.582	0.07
435.94	0.07
436.297	0.07
436.655	0.07
437.012	0.07
437.37	0.08
437.727	0.07
438.085	0.07
438.442	0.08
438.8	0.06
439.157	0.06
439.514	0.06
439.872	0.08
440.229	0.07
440.586	0.07
440.943	0.07
441.3	0.07
441.657	0.07
442.014	0.07
442.371	0.07
442.728	0.07
443.085	0.07
443.442	0.07
443.799	0.07
444.156	0.07
444.513	0.07
444.869	0.07
445.226	0.07
445.583	0.07
445.939	0.07
446.296	0.06
446.652	0.07
447.009	0.06
447.365	0.07
447.722	0.07
448.078	0.06
448.434	0.06
448.791	0.07
449.147	0.07
449.503	0.07
449.859	0.07
450.215	0.07
450.571	0.07
450.928	0.07
451.284	0.07
451.64	0.07
451.995	0.06
452.351	0.07
452.707	0.07
453.063	0.07
453.419	0.07
453.775	0.07
454.13	0.07
454.486	0.07
454.842	0.06
455.197	0.06
455.553	0.06
455.908	0.06
456.264	0.06
456.619	0.05
456.975	0.06
457.33	0.06
457.685	0.06
458.04	0.05
458.396	0.05
458.751	0.05
459.106	0.05
459.461	0.05
459.816	0.05
460.171	0.05
460.526	0.05
460.881	0.05
461.236	0.04
461.591	0.04
461.946	0.04
462.301	0.04
462.655	0.04
463.01	0.04
463.365	0.04
463.719	0.03
464.074	0.03
464.428	0.02
464.783	0.03
465.137	0.03
465.492	0.02
465.846	0.03
466.201	0.02
466.555	0.03
466.909	0.03
467.263	0.03
467.618	0.04
467.972	0.04
468.326	0.04
468.68	0.04
469.034	0.03
469.388	0.03
469.742	0.03
470.096	0.03
470.45	0.04
470.804	0.04
471.157	0.04
471.511	0.04
471.865	0.04
472.218	0.04
472.572	0.05
472.926	0.05
473.279	0.06
473.633	0.06
473.986	0.06
474.34	0.07
474.693	0.07
475.046	0.07
475.4	0.08
475.753	0.08
476.106	0.09
476.459	0.1
476.812	0.1
477.165	0.1
477.519	0.11
477.872	0.11
478.224	0.11
478.577	0.12
478.93	0.13
479.283	0.12
479.636	0.13
479.989	0.13
480.341	0.13
480.694	0.13
481.047	0.14
481.399	0.14
481.752	0.16
482.104	0.15
482.457	0.15
482.809	0.16
483.162	0.16
483.514	0.16
483.866	0.16
484.219	0.17
484.571	0.17
484.923	0.17
485.275	0.17
485.627	0.18
485.979	0.18
486.331	0.18
486.683	0.19
487.035	0.18
487.387	0.19
487.739	0.19
488.091	0.19
488.443	0.19
488.794	0.2
489.146	0.2
489.498	0.2
489.849	0.2
490.201	0.21
490.552	0.2
490.904	0.21
491.255	0.21
491.607	0.22
491.958	0.21
492.309	0.22
492.661	0.22
493.012	0.22
493.363	0.22
493.714	0.22
494.065	0.22
494.416	0.23
494.767	0.23
495.118	0.23
495.469	0.23
495.82	0.24
496.171	0.24
496.522	0.24
496.872	0.24
497.223	0.24
497.574	0.25
497.924	0.25
498.275	0.25
498.626	0.25
498.976	0.26
499.327	0.26
499.677	0.26
500.027	0.26
500.378	0.26
500.728	0.27
501.078	0.27
501.428	0.27
501.779	0.27
502.129	0.27
502.479	0.28
502.829	0.28
503.179	0.28
503.529	0.29
503.879	0.28
504.229	0.29
504.578	0.29
504.928	0.29
505.278	0.29
505.628	0.29
505.977	0.29
506.327	0.29
506.676	0.3
507.026	0.3
507.375	0.3
507.725	0.31
508.074	0.31
508.424	0.31
508.773	0.31
509.122	0.31
509.471	0.31
509.82	0.31
510.17	0.32
510.519	0.32
510.868	0.32
511.217	0.32
511.566	0.32
511.915	0.33
512.263	0.33
512.612	0.33
512.961	0.33
513.31	0.33
513.659	0.33
514.007	0.33
514.356	0.34
514.704	0.34
515.053	0.34
515.401	0.34
515.75	0.35
516.098	0.35
516.447	0.35
516.795	0.35
517.143	0.35
517.491	0.35
517.839	0.35
518.188	0.36
518.536	0.36
518.884	0.36
519.232	0.36
519.58	0.36
519.928	0.37
520.275	0.36
520.623	0.36
520.971	0.37
521.319	0.37
521.666	0.37
522.014	0.37
522.362	0.38
522.709	0.38
523.057	0.38
523.404	0.38
523.752	0.37
524.099	0.38
524.446	0.38
524.794	0.38
525.141	0.39
525.488	0.39
525.835	0.39
526.182	0.38
526.529	0.39
526.876	0.39
527.223	0.39
527.57	0.39
527.917	0.4
528.264	0.4
528.611	0.4
528.958	0.4
529.304	0.4
529.651	0.4
529.998	0.4
530.344	0.4
530.691	0.41
531.037	0.41
531.384	0.41
531.73	0.41
532.076	0.41
532.423	0.41
532.769	0.41
533.115	0.41
533.461	0.41
533.807	0.41
534.154	0.41
534.5	0.42
534.846	0.42
535.192	0.42
535.537	0.42
535.883	0.42
536.229	0.42
536.575	0.42
536.921	0.42
537.266	0.42
537.612	0.42
537.957	0.42
538.303	0.42
538.649	0.43
538.994	0.43
539.339	0.43
539.685	0.43
540.03	0.43
540.375	0.43
540.721	0.43
541.066	0.43
541.411	0.44
541.756	0.43
542.101	0.43
542.446	0.44
542.791	0.44
543.136	0.43
543.481	0.44
543.825	0.44
544.17	0.44
544.515	0.44
544.86	0.44
545.204	0.44
545.549	0.44
545.893	0.44
546.238	0.45
546.582	0.44
546.927	0.45
547.271	0.44
547.615	0.45
547.96	0.44
548.304	0.45
548.648	0.45
548.992	0.45
549.336	0.45
549.68	0.45
550.024	0.45
550.368	0.45
550.712	0.45
551.056	0.45
551.4	0.45
551.743	0.45
552.087	0.45
552.431	0.45
552.774	0.45
553.118	0.45
553.462	0.45
553.805	0.45
554.148	0.45
554.492	0.45
554.835	0.45
555.178	0.45
555.522	0.45
555.865	0.45
556.208	0.45
556.551	0.45
556.894	0.45
557.237	0.45
557.58	0.44
557.923	0.45
558.266	0.45
558.609	0.45
558.952	0.45
559.294	0.45
559.637	0.45
559.98	0.45
560.322	0.45
560.665	0.45
561.007	0.45
561.35	0.45
561.692	0.45
562.034	0.45
562.377	0.45
562.719	0.45
563.061	0.44
563.403	0.45
563.745	0.45
564.088	0.45
564.43	0.45
564.772	0.45
565.113	0.44
565.455	0.44
565.797	0.44
566.139	0.44
566.481	0.44
566.822	0.44
567.164	0.44
567.506	0.44
567.847	0.44
568.189	0.44
568.53	0.44
568.872	0.44
569.213	0.44
569.554	0.44
569.895	0.44
570.237	0.44
570.578	0.44
570.919	0.43
571.26	0.43
571.601	0.43
571.942	0.43
572.283	0.43
572.624	0.43
572.965	0.42
573.306	0.42
573.646	0.41
573.987	0.41
574.328	0.42
574.668	0.42
575.009	0.42
575.349	0.41
575.69	0.4
576.03	0.4
576.37	0.39
576.711	0.39
577.051	0.39
577.391	0.4
577.731	0.41
578.072	0.4
578.412	0.39
578.752	0.39
579.092	0.38
579.431	0.35
579.771	0.33
580.111	0.31
580.451	0.32
580.791	0.36
581.13	0.38
581.47	0.39
581.81	0.38
582.149	0.38
582.489	0.38
582.828	0.36
583.167	0.31
583.507	0.28
583.846	0.26
584.185	0.29
584.525	0.32
584.864	0.35
585.203	0.38
585.542	0.39
585.881	0.39
586.22	0.39
586.559	0.37
586.898	0.34
587.236	0.33
587.575	0.32
587.914	0.34
588.252	0.35
588.591	0.37
588.93	0.37
589.268	0.36
589.607	0.36
589.945	0.36
590.283	0.36
590.622	0.37
590.96	0.39
591.298	0.39
591.636	0.39
591.974	0.39
592.313	0.4
592.651	0.4
592.989	0.4
593.326	0.4
593.664	0.4
594.002	0.4
594.34	0.39
594.678	0.37
595.015	0.35
595.353	0.33
595.691	0.35
596.028	0.37
596.366	0.38
596.703	0.39
597.04	0.39
597.378	0.39
597.715	0.4
598.052	0.4
598.389	0.4
598.726	0.4
599.064	0.4
599.401	0.4
599.738	0.39
600.074	0.39
600.411	0.38
600.748	0.37
601.085	0.36
601.422	0.35
601.758	0.35
602.095	0.36
602.432	0.36
602.768	0.36
603.105	0.38
603.441	0.39
603.777	0.39
604.114	0.4
604.45	0.4
604.786	0.4
605.122	0.39
605.459	0.39
605.795	0.39
606.131	0.38
606.467	0.39
606.803	0.39
607.139	0.39
607.474	0.38
607.81	0.37
608.146	0.38
608.482	0.37
608.817	0.37
609.153	0.37
609.488	0.37
609.824	0.37
610.159	0.37
610.495	0.37
610.83	0.38
611.165	0.38
611.5	0.38
611.836	0.37
612.171	0.37
612.506	0.37
612.841	0.37
613.176	0.37
613.511	0.37
613.845	0.37
614.18	0.37
614.515	0.37
614.85	0.37
615.184	0.37
615.519	0.36
615.854	0.37
616.188	0.36
616.523	0.36
616.857	0.35
617.191	0.36
617.526	0.35
617.86	0.36
618.194	0.35
618.528	0.35
618.862	0.35
619.196	0.35
619.53	0.35
619.864	0.35
620.198	0.35
620.532	0.35
620.866	0.35
621.2	0.35
621.533	0.35
621.867	0.35
622.201	0.35
622.534	0.35
622.868	0.35
623.201	0.34
623.534	0.34
623.868	0.34
624.201	0.33
624.534	0.33
624.868	0.33
625.201	0.33
625.534	0.33
625.867	0.33
626.2	0.33
626.533	0.33
626.865	0.33
627.198	0.32
627.531	0.33
627.864	0.32
628.196	0.32
628.529	0.32
628.862	0.31
629.194	0.31
629.527	0.31
629.859	0.31
630.191	0.31
630.524	0.31
630.856	0.31
631.188	0.31
631.52	0.3
631.852	0.3
632.184	0.3
632.516	0.29
632.848	0.3
633.18	0.29
633.512	0.29
633.844	0.29
634.175	0.29
634.507	0.29
634.839	0.29
635.17	0.28
635.502	0.28
635.833	0.28
636.165	0.28
636.496	0.28
636.827	0.27
637.159	0.27
637.49	0.27
637.821	0.26
638.152	0.26
638.483	0.26
638.814	0.26
639.145	0.26
639.476	0.26
639.807	0.25
640.137	0.25
640.468	0.25
640.799	0.25
641.129	0.25
641.46	0.25
641.791	0.24
642.121	0.24
642.451	0.24
642.782	0.24
643.112	0.24
643.442	0.24
643.773	0.24
644.103	0.23
644.433	0.23
644.763	0.23
645.093	0.23
645.423	0.23
645.753	0.23
646.082	0.22
646.412	0.22
646.742	0.22
647.072	0.22
647.401	0.22
647.731	0.22
648.06	0.22
648.39	0.22
648.719	0.22
649.048	0.22
649.378	0.22
649.707	0.22
650.036	0.21
650.365	0.21
650.694	0.21
651.023	0.21
651.352	0.21
651.681	0.21
652.01	0.21
652.339	0.21
652.668	0.21
652.996	0.21
653.325	0.21
653.654	0.21
653.982	0.21
654.311	0.2
654.639	0.2
654.967	0.2
655.296	0.2
655.624	0.2
655.952	0.2
656.28	0.2
656.609	0.2
656.937	0.2
657.265	0.19
657.593	0.04
657.92	0
658.248	0
658.576	0
658.904	0.02
659.231	0.09
659.559	0.15
659.887	0.19
660.214	0.19
660.542	0.19
660.869	0.19
661.196	0.19
661.524	0.19
661.851	0.19
662.178	0.19
662.505	0.19
662.832	0.19
663.159	0.19
663.486	0.19
663.813	0.19
664.14	0.18
664.467	0.18
664.794	0.19
665.12	0.19
665.447	0.18
665.774	0.18
666.1	0.18
666.427	0.18
666.753	0.18
667.079	0.18
667.406	0.18
667.732	0.18
668.058	0.18
668.384	0.18
668.71	0.17
669.036	0.17
669.362	0.17
669.688	0.17
670.014	0.17
670.34	0.17
670.666	0.17
670.991	0.17
671.317	0.17
671.643	0.16
671.968	0.16
672.294	0.16
672.619	0.16
672.945	0.15
673.27	0.15
673.595	0.15
673.92	0.14
674.246	0.14
674.571	0.14
674.896	0.14
675.221	0.14
675.546	0.14
675.87	0.14
676.195	0.14
676.52	0.14
676.845	0.14
677.169	0.14
677.494	0.14
677.819	0.14
678.143	0.13
678.468	0.13
678.792	0.13
679.116	0.13
679.44	0.12
679.765	0.12
680.089	0.12
680.413	0.11
680.737	0.11
681.061	0.11
681.385	0.11
681.709	0.1
682.033	0.1
682.356	0.1
682.68	0.1
683.004	0.1
683.327	0.09
683.651	0.09
683.974	0.09
684.298	0.09
684.621	0.1
684.944	0.09
685.268	0.09
685.591	0.09
685.914	0.08
686.237	0.07
686.56	0.07
686.883	0.06
687.206	0.05
687.529	0.05
687.852	0.05
688.175	0.05
688.497	0.06
688.82	0.06
689.142	0.05
689.465	0.05
689.787	0.06
690.11	0.06
690.432	0.05
690.755	0.05
691.077	0.05
691.399	0.04
691.721	0.05
692.043	0.05
692.365	0.04
692.687	0.04
693.009	0.04
693.331	0.03
693.653	0.03
693.974	0.03
694.296	0.03
694.618	0.03
694.939	0.03
695.261	0.03
695.582	0.03
695.904	0.03
696.225	0.03
696.546	0.03
696.868	0.03
697.189	0.03
697.51	0.02
697.831	0.02
698.152	0.03
698.473	0.02
698.794	0.01
699.114	0.01
699.435	0
699.756	0.01
700.077	0.01
700.397	0.01
700.718	0.02
701.038	0.02
701.359	0.02
701.679	0.02
701.999	0.02
702.32	0.02
702.64	0.02
702.96	0.02
703.28	0.02
703.6	0.02
703.92	0.01
704.24	0.01
704.56	0.01
704.879	0.01
705.199	0.01
705.519	0.01
705.838	0.01
706.158	0.01
706.478	0.01
706.797	0.01
707.116	0.02
707.436	0.01
707.755	0.01
708.074	0.01
708.393	0.01
708.712	0
709.031	0
709.35	0
709.669	0
709.988	0
710.307	0
710.626	0
710.944	0
711.263	0
711.582	0.01
711.9	0.01
712.219	0
712.537	0
712.855	0.01
713.174	0
713.492	0
713.81	0.01
714.128	0
714.446	0.01
714.764	0
715.082	0
715.4	0
715.718	0
716.035	0
716.353	0
716.671	0
716.988	0.01
717.306	0
717.623	0.01
717.941	0.01
718.258	0.01
718.575	0.01
718.893	0.01
719.21	0.01
719.527	0.01
719.844	0.01
720.161	0.01
720.478	0.01
720.795	0.01
721.112	0.01
721.428	0.01
721.745	0.01
722.062	0.01
722.378	0.01
722.695	0.01
723.011	0.01
723.328	0.01
723.644	0.02
723.96	0.02
724.276	0.02
724.593	0.02
724.909	0.02
725.225	0.01
725.541	0.02
725.857	0.02
726.173	0.02
726.488	0.03
726.804	0.02
727.12	0.02
727.435	0.02
727.751	0.02
728.067	0.02
728.382	0.02
728.697	0.02
729.013	0.02
729.328	0.02
729.643	0.02
729.958	0.02
730.273	0.02
730.588	0.02
730.903	0.02
731.218	0.02
731.533	0.02
731.848	0.02
732.163	0.02
732.477	0.01
732.792	0.01
733.107	0.01
733.421	0.01
733.736	0.01
734.05	0.02
734.364	0.02
734.678	0.02
734.993	0.01
735.307	0.02
735.621	0.01
735.935	0.02
736.249	0.01
736.563	0.01
736.877	0.02
737.19	0.02
737.504	0.02
737.818	0.02
738.131	0.02
738.445	0.02
738.758	0.03
739.072	0.02
739.385	0.03
739.698	0.03
740.012	0.03
740.325	0.03
740.638	0.03
740.951	0.02
741.264	0.02
741.577	0.02
741.89	0.03
742.203	0.03
742.515	0.04
742.828	0.04
743.141	0.03
743.453	0.04
743.766	0.03
744.078	0.03
744.391	0.03
744.703	0.03
745.015	0.03
745.327	0.03
745.639	0.03
745.952	0.03
746.264	0.03
746.575	0.03
746.887	0.03
747.199	0.03
747.511	0.03
747.823	0.03
748.134	0.03
748.446	0.03
748.757	0.03
749.069	0.03
749.38	0.03
749.692	0.03
750.003	0.03
750.314	0.02
750.625	0.02
750.936	0.02
751.248	0.02
751.559	0.02
751.869	0.01
752.18	0.01
752.491	0.01
752.802	0.01
753.112	0.02
753.423	0.01
753.734	0.01
754.044	0.01
754.355	0.01
754.665	0.01
754.975	0.01
755.285	0.01
755.596	0.01
755.906	0.01
756.216	0.01
756.526	0.01
756.836	0.01
757.146	0.01
757.455	0.01
757.765	0.01
758.075	0
758.385	0
758.694	0
759.004	0
759.313	0
759.622	0
759.932	0
760.241	0
760.55	0
760.859	0.01
761.168	0.01
761.477	0.01
761.786	0
762.095	0
762.404	0
762.713	0.01
763.021	0.01
763.33	0.01
763.639	0.01
763.947	0.01
764.256	0.01
764.564	0.01
764.872	0.01
765.181	0.01
765.489	0.01
765.797	0.01
766.105	0.01
766.413	0.01
766.721	0.01
767.029	0.01
767.337	0.01
767.644	0.01
767.952	0.02
768.26	0.01
768.567	0.02
768.875	0.02
769.182	0.02
769.49	0.02
769.797	0.02
770.104	0.02
770.411	0.02
770.718	0.02
771.026	0.02
771.333	0.02
771.639	0.02
771.946	0.02
772.253	0.02
772.56	0.02
772.867	0.02
773.173	0.02
773.48	0.03
773.786	0.03
774.093	0.03
774.399	0.03
774.705	0.03
775.012	0.03
775.318	0.03
775.624	0.03
775.93	0.03
776.236	0.02
776.542	0.03
776.848	0.02
777.154	0.03
777.459	0.02
777.765	0.02
778.071	0.02
778.376	0.02
778.682	0.02
778.987	0.02
779.292	0.02
779.598	0.02
779.903	0.02
780.208	0.02
780.513	0.02
780.818	0.02
781.123	0.02
781.428	0.02
781.733	0.02
782.038	0.02
782.343	0.02
782.647	0.02
782.952	0.03
783.256	0.03
783.561	0.03
783.865	0.03
784.17	0.03
784.474	0.03
784.778	0.03
785.082	0.03
785.386	0.02
785.69	0.03
785.994	0.03
786.298	0.02
786.602	0.03
786.906	0.02
787.209	0.03
787.513	0.03
787.817	0.03
788.12	0.03
788.424	0.02
788.727	0.02
789.03	0.02
789.333	0.02
789.637	0.02
789.94	0.02
790.243	0.02
790.546	0.03
790.849	0.03
791.152	0.03
791.454	0.03
791.757	0.03
792.06	0.03
792.362	0.03
792.665	0.03
792.967	0.02
793.27	0.02
793.572	0.02
793.874	0.02
794.177	0.02
794.479	0.02
794.781	0.03
795.083	0.03
795.385	0.03
795.687	0.03
795.989	0.03
796.29	0.03
796.592	0.03
796.894	0.03
797.195	0.03
797.497	0.03
797.798	0.04
798.1	0.03
798.401	0.03
798.702	0.03
799.003	0.03
799.304	0.03
799.605	0.03
799.906	0.03
800.207	0.03
800.508	0.03
800.809	0.03
801.11	0.04
801.41	0.04
801.711	0.03
802.011	0.03
802.312	0.03
802.612	0.03
802.913	0.03
803.213	0.03
803.513	0.03
803.813	0.03
804.113	0.03
804.413	0.03
804.713	0.03
805.013	0.03
805.313	0.04
805.613	0.03
805.912	0.03
806.212	0.04
806.511	0.03
806.811	0.04
807.11	0.03
807.41	0.03
807.709	0.03
808.008	0.03
808.307	0.03
808.606	0.04
808.905	0.04
809.204	0.03
809.503	0.04
809.802	0.03
810.101	0.03
810.399	0.04
810.698	0.03
810.997	0.03
811.295	0.03
811.593	0.03
811.892	0.03
812.19	0.03
812.488	0.03
812.786	0.03
813.084	0.03
813.383	0.03
813.68	0.03
813.978	0.03
814.276	0.04
814.574	0.04
814.872	0.04
815.169	0.04
815.467	0.04
815.764	0.04
816.062	0.04
816.359	0.04
816.656	0.04
816.954	0.04
817.251	0.04
817.548	0.04
817.845	0.05
818.142	0.04
818.439	0.04
818.735	0.04
819.032	0.04
819.329	0.04
819.626	0.04
819.922	0.04
820.219	0.04
820.515	0.05
820.811	0.04
821.108	0.04
821.404	0.05
821.7	0.04
821.996	0.05
822.292	0.04
822.588	0.05
822.884	0.05
823.18	0.05
823.475	0.05
823.771	0.05
824.067	0.05
824.362	0.05
824.658	0.05
824.953	0.04
825.249	0.04
825.544	0.04
825.839	0.04
826.134	0.04
826.429	0.04
826.724	0.04
827.019	0.05
827.314	0.04
827.609	0.04
827.904	0.05
828.198	0.05
828.493	0.05
828.787	0.05
829.082	0.05
829.376	0.05
829.671	0.05
829.965	0.05
830.259	0.05
830.553	0.05
830.847	0.05
831.141	0.06
831.435	0.05
831.729	0.05
832.023	0.05
832.317	0.05
832.61	0.04
832.904	0.05
833.197	0.05
833.491	0.05
833.784	0.04
834.077	0.05
834.371	0.04
834.664	0.05
834.957	0.05
835.25	0.05
835.543	0.05
835.836	0.05
836.129	0.05
836.421	0.05
836.714	0.05
837.007	0.05
837.299	0.05
837.592	0.05
837.884	0.05
838.177	0.05
838.469	0.05
838.761	0.05
839.053	0.05
839.345	0.05
839.637	0.05
839.929	0.06
840.221	0.05
840.513	0.05
840.805	0.06
841.096	0.06
841.388	0.06
841.68	0.06
841.971	0.06
842.262	0.06
842.554	0.05
842.845	0.04
843.136	0.05
843.427	0.04
843.718	0.05
844.009	0.05
844.3	0.06
844.591	0.06
844.882	0.06
845.173	0.05
845.463	0.06
845.754	0.07
846.044	0.06
846.335	0.06
846.625	0.05
846.915	0.06
847.206	0.06
847.496	0.06
847.786	0.06
848.076	0.06
848.366	0.05
848.656	0.05
848.945	0.06
849.235	0.06
849.525	0.06
849.814	0.05
850.104	0.06
850.393	0.05
850.683	0.06
850.972	0.05
851.261	0.06
851.551	0.06
851.84	0.06
852.129	0.06
852.418	0.06
852.707	0.05
852.995	0.06
853.284	0.07
853.573	0.06
853.862	0.06
854.15	0.06
854.439	0.07
854.727	0.07
855.015	0.07
855.304	0.06
855.592	0.07
855.88	0.06
856.168	0.07
856.456	0.07
856.744	0.07
857.032	0.07
857.32	0.08
857.607	0.07
857.895	0.07
858.183	0.07
858.47	0.06
858.757	0.06
859.045	0.05
859.332	0.06
859.619	0.08
859.907	0.08
860.194	0.09
860.481	0.08
860.768	0.08
861.054	0.07
861.341	0.08
861.628	0.08
861.915	0.09
862.201	0.07
862.488	0.06
862.774	0.08
863.061	0.08
863.347	0.07
863.633	0.07
863.919	0.09
864.205	0.06
864.491	0.07
864.777	0.06
865.063	0.06
865.349	0.06
865.635	0.05
865.92	0.06
866.206	0.03
866.492	0.07
866.777	0.07
867.062	0.06
867.348	0.05
867.633	0.06
867.918	0.08
868.203	0.09
868.488	0.07
868.773	0.06
869.058	0.06
869.343	0.06
869.628	0.09
869.912	0.08
870.197	0.05
870.482	0.08
870.766	0.05
871.05	0.06
871.335	0.03
871.619	0.05
871.903	0.05
872.187	0.07
872.471	0.03
872.755	0.07
873.039	0.05
873.323	0.04
873.607	0.03
873.89	0.04
874.174	0.07
874.458	0.05
874.741	0.06
875.024	0.03
875.308	0.05
875.591	0.01
875.874	0.06
876.157	0.07
876.44	0.04
876.723	0.01
877.006	0.03
877.289	0.05
877.572	0.04
877.854	0.06
878.137	0.04
878.42	0.08
878.702	0.05
878.984	0.04
879.267	-0.01
879.549	0.01
879.831	0.03
880.113	0.07
880.395	-0
880.677	0.06
880.959	-0
