Data from Rubpy_BV_600_EDTA_Buffered_Absorbance_12-50-49-570.txt Node
Date: Wed Jul 01 12:50:49 BST 2026
User: fpm-admin
Spectrometer: OFX00224
Trigger mode: 0
Integration Time (sec): 7.000000E-2
Scans to average: 3
Nonlinearity correction enabled: false
Boxcar width: 0
Storing dark spectrum: false
XAxis mode: Wavelengths
Number of Pixels in Spectrum: 2136
>>>>>Begin Spectral Data<<<<<
154.91	0.36
155.289	-0.22
155.669	0.04
156.048	-0
156.428	-0
156.807	-0
157.186	0.14
157.566	-0
157.945	1.28
158.325	0.01
158.704	-0
159.083	0.04
159.462	-0
159.842	0.52
160.221	1.59
160.6	-0.26
160.979	-0
161.359	0.56
161.738	0.6
162.117	-0
162.496	0.51
162.875	-0
163.254	0.03
163.633	-0
164.012	-0.41
164.391	0.15
164.77	0.01
165.149	-0.37
165.528	-0
165.907	-0
166.286	-0
166.665	-0
167.044	-0
167.423	-0.37
167.802	-0
168.181	-0.13
168.559	-0.04
168.938	-0
169.317	-0.78
169.696	-0
170.074	-0.18
170.453	-0.3
170.832	0.27
171.21	-0.82
171.589	-0
171.968	0.95
172.346	0.15
172.725	-0.74
173.103	0.52
173.482	0.57
173.861	-0
174.239	-0.54
174.617	-0
174.996	-0
175.374	1.28
175.753	-0
176.131	-0
176.51	-0
176.888	-0
177.266	-0
177.645	0
178.023	0.64
178.401	-0.36
178.779	0.16
179.158	0.17
179.536	0.08
179.914	-0.38
180.292	-0
180.67	-0.27
181.048	-0
181.427	-0.09
181.805	-0
182.183	1.08
182.561	-0
182.939	0.87
183.317	0.12
183.695	-0.03
184.073	-0
184.451	-0
184.829	0.03
185.206	-0
185.584	0.44
185.962	-0
186.34	-0.7
186.718	-0.83
187.096	0.3
187.473	-0
187.851	-0.11
188.229	-0
188.607	0.02
188.984	0.08
189.362	0.03
189.74	0.09
190.117	0.06
190.495	0.21
190.872	0.04
191.25	0.04
191.627	0.16
192.005	0.22
192.382	0.14
192.76	0.14
193.137	0.07
193.515	0.02
193.892	0.26
194.269	0.06
194.647	0.12
195.024	0.1
195.401	0.06
195.779	0.05
196.156	0.11
196.533	0.13
196.91	0.14
197.288	0.15
197.665	0.07
198.042	0.24
198.419	0.04
198.796	0.06
199.173	0.04
199.55	0.05
199.927	0.07
200.304	0.18
200.681	0.18
201.058	0.01
201.435	0.1
201.812	0.18
202.189	0.18
202.566	0.16
202.943	0.16
203.32	0.13
203.697	0.01
204.073	0.13
204.45	-0
204.827	0.08
205.204	0.03
205.58	0.12
205.957	0.1
206.334	0.17
206.71	0.19
207.087	0.03
207.464	0.11
207.84	0.18
208.217	0.23
208.593	0.11
208.97	0.25
209.346	0.14
209.723	0.08
210.099	0.06
210.476	0.13
210.852	0.07
211.228	0.14
211.605	0.07
211.981	0.2
212.357	0.14
212.733	0.07
213.11	0.17
213.486	0.01
213.862	0.13
214.238	0.12
214.614	0.13
214.991	0.18
215.367	0.25
215.743	0.16
216.119	0.13
216.495	0.15
216.871	0.13
217.247	0.09
217.623	0.14
217.999	0.12
218.375	0.12
218.751	0.22
219.127	0.15
219.502	0.15
219.878	0.07
220.254	0.1
220.63	0.14
221.006	0.14
221.381	0.14
221.757	0.16
222.133	0.08
222.508	0.17
222.884	0.12
223.26	0.16
223.635	0.12
224.011	0.17
224.386	0.2
224.762	0.05
225.137	0.14
225.513	0.13
225.888	0.08
226.264	0.17
226.639	0.19
227.014	0.18
227.39	0.2
227.765	0.14
228.14	0.2
228.516	0.23
228.891	0.2
229.266	0.16
229.641	0.13
230.017	0.17
230.392	0.18
230.767	0.13
231.142	0.2
231.517	0.15
231.892	0.22
232.267	0.13
232.642	0.14
233.017	0.11
233.392	0.14
233.767	0.33
234.142	0.11
234.517	0.12
234.892	0.16
235.267	0.08
235.641	0.19
236.016	0.14
236.391	0.21
236.766	0.18
237.14	0.06
237.515	0.29
237.89	0.19
238.264	0.16
238.639	0.15
239.014	0.26
239.388	0.16
239.763	0.22
240.137	0.13
240.512	0.13
240.886	0.04
241.261	0.18
241.635	0.19
242.009	0.18
242.384	0.23
242.758	0.23
243.132	0.19
243.507	0.16
243.881	0.1
244.255	0.23
244.629	0.07
245.004	0.14
245.378	0.14
245.752	0.14
246.126	0.17
246.5	0.13
246.874	0.11
247.248	0.08
247.622	0.16
247.996	0.16
248.37	0.15
248.744	0.19
249.118	0.23
249.492	0.14
249.866	0.09
250.24	0.18
250.613	0.23
250.987	0.13
251.361	0.13
251.735	0.17
252.108	0.19
252.482	0.21
252.856	0.1
253.229	0.16
253.603	0.12
253.977	0.15
254.35	0.19
254.724	0.17
255.097	0.24
255.471	0.2
255.844	0.12
256.218	0.06
256.591	0.19
256.964	0.17
257.338	0.2
257.711	0.12
258.084	0.21
258.458	0.15
258.831	0.23
259.204	0.15
259.577	0.17
259.95	0.17
260.323	0.19
260.697	0.17
261.07	0.18
261.443	0.1
261.816	0.16
262.189	0.12
262.562	0.17
262.935	0.18
263.308	0.11
263.68	0.22
264.053	0.15
264.426	0.16
264.799	0.24
265.172	0.14
265.545	0.19
265.917	0.12
266.29	0.14
266.663	0.19
267.035	0.17
267.408	0.18
267.781	0.18
268.153	0.14
268.526	0.18
268.898	0.16
269.271	0.2
269.643	0.12
270.016	0.12
270.388	0.17
270.76	0.18
271.133	0.18
271.505	0.18
271.877	0.18
272.25	0.19
272.622	0.29
272.994	0.17
273.366	0.26
273.739	0.12
274.111	0.24
274.483	0.2
274.855	0.24
275.227	0.19
275.599	0.14
275.971	0.14
276.343	0.29
276.715	0.14
277.087	0.23
277.459	0.21
277.831	0.17
278.203	0.08
278.574	0.17
278.946	0.21
279.318	0.18
279.69	0.21
280.061	0.19
280.433	0.21
280.805	0.2
281.176	0.24
281.548	0.23
281.92	0.2
282.291	0.23
282.663	0.18
283.034	0.26
283.406	0.19
283.777	0.19
284.148	0.23
284.52	0.17
284.891	0.21
285.262	0.22
285.634	0.19
286.005	0.12
286.376	0.17
286.747	0.15
287.119	0.16
287.49	0.18
287.861	0.16
288.232	0.17
288.603	0.16
288.974	0.16
289.345	0.16
289.716	0.17
290.087	0.22
290.458	0.12
290.829	0.15
291.2	0.22
291.571	0.19
291.941	0.17
292.312	0.23
292.683	0.16
293.054	0.21
293.424	0.12
293.795	0.16
294.166	0.21
294.536	0.18
294.907	0.22
295.277	0.19
295.648	0.22
296.018	0.22
296.389	0.22
296.759	0.21
297.13	0.17
297.5	0.18
297.871	0.16
298.241	0.16
298.611	0.11
298.981	0.14
299.352	0.18
299.722	0.17
300.092	0.16
300.462	0.08
300.832	0.17
301.202	0.15
301.573	0.09
301.943	0.15
302.313	0.09
302.683	0.12
303.053	0.12
303.422	0.13
303.792	0.11
304.162	0.13
304.532	0.08
304.902	0.08
305.272	0.11
305.641	0.12
306.011	0.09
306.381	0.07
306.75	0.08
307.12	0.09
307.49	0.08
307.859	0.11
308.229	0.1
308.598	0.12
308.968	0.11
309.337	0.12
309.707	0.11
310.076	0.12
310.445	0.12
310.815	0.13
311.184	0.11
311.553	0.13
311.923	0.14
312.292	0.13
312.661	0.13
313.03	0.13
313.399	0.15
313.768	0.15
314.137	0.17
314.506	0.15
314.875	0.15
315.244	0.17
315.613	0.16
315.982	0.17
316.351	0.18
316.72	0.17
317.089	0.17
317.458	0.17
317.826	0.18
318.195	0.18
318.564	0.19
318.933	0.19
319.301	0.19
319.67	0.19
320.038	0.2
320.407	0.2
320.775	0.21
321.144	0.21
321.512	0.21
321.881	0.21
322.249	0.21
322.618	0.22
322.986	0.22
323.354	0.23
323.723	0.23
324.091	0.24
324.459	0.24
324.827	0.24
325.195	0.24
325.564	0.24
325.932	0.25
326.3	0.25
326.668	0.25
327.036	0.25
327.404	0.26
327.772	0.26
328.14	0.27
328.508	0.28
328.875	0.28
329.243	0.28
329.611	0.29
329.979	0.29
330.346	0.3
330.714	0.29
331.082	0.31
331.449	0.31
331.817	0.32
332.185	0.33
332.552	0.32
332.92	0.33
333.287	0.33
333.655	0.34
334.022	0.35
334.389	0.36
334.757	0.36
335.124	0.37
335.491	0.38
335.859	0.38
336.226	0.39
336.593	0.4
336.96	0.41
337.327	0.42
337.695	0.43
338.062	0.43
338.429	0.43
338.796	0.45
339.163	0.45
339.53	0.46
339.897	0.47
340.263	0.48
340.63	0.49
340.997	0.49
341.364	0.5
341.731	0.5
342.097	0.51
342.464	0.53
342.831	0.53
343.197	0.54
343.564	0.55
343.931	0.56
344.297	0.57
344.664	0.57
345.03	0.59
345.396	0.59
345.763	0.6
346.129	0.61
346.496	0.62
346.862	0.63
347.228	0.63
347.594	0.65
347.961	0.66
348.327	0.67
348.693	0.67
349.059	0.68
349.425	0.69
349.791	0.7
350.157	0.71
350.523	0.72
350.889	0.72
351.255	0.73
351.621	0.73
351.987	0.74
352.353	0.76
352.719	0.76
353.084	0.77
353.45	0.78
353.816	0.79
354.181	0.8
354.547	0.8
354.913	0.82
355.278	0.83
355.644	0.84
356.009	0.85
356.375	0.86
356.74	0.87
357.106	0.88
357.471	0.9
357.836	0.9
358.202	0.92
358.567	0.91
358.932	0.94
359.297	0.95
359.663	0.95
360.028	0.99
360.393	1
360.758	1
361.123	1.02
361.488	1.02
361.853	1.04
362.218	1.07
362.583	1.07
362.948	1.08
363.312	1.1
363.677	1.11
364.042	1.11
364.407	1.12
364.772	1.14
365.136	1.15
365.501	1.15
365.865	1.15
366.23	1.18
366.595	1.2
366.959	1.21
367.324	1.21
367.688	1.22
368.052	1.23
368.417	1.22
368.781	1.25
369.145	1.26
369.51	1.27
369.874	1.28
370.238	1.3
370.602	1.31
370.967	1.3
371.331	1.31
371.695	1.31
372.059	1.3
372.423	1.3
372.787	1.3
373.151	1.31
373.515	1.31
373.878	1.3
374.242	1.3
374.606	1.3
374.97	1.28
375.334	1.28
375.697	1.27
376.061	1.25
376.425	1.26
376.788	1.24
377.152	1.24
377.515	1.21
377.879	1.21
378.242	1.2
378.606	1.17
378.969	1.17
379.333	1.15
379.696	1.15
380.059	1.12
380.422	1.12
380.786	1.1
381.149	1.08
381.512	1.08
381.875	1.08
382.238	1.05
382.601	1.05
382.964	1.03
383.327	1.03
383.69	1.01
384.053	1.01
384.416	1
384.779	0.99
385.142	0.99
385.504	0.97
385.867	0.97
386.23	0.96
386.593	0.96
386.955	0.97
387.318	0.96
387.68	0.97
388.043	0.96
388.405	0.97
388.768	0.96
389.13	0.95
389.493	0.95
389.855	0.95
390.217	0.94
390.58	0.93
390.942	0.93
391.304	0.92
391.666	0.9
392.028	0.9
392.391	0.89
392.753	0.87
393.115	0.87
393.477	0.86
393.839	0.84
394.201	0.84
394.563	0.84
394.924	0.83
395.286	0.83
395.648	0.84
396.01	0.85
396.371	0.86
396.733	0.86
397.095	0.88
397.456	0.9
397.818	0.92
398.18	0.93
398.541	0.95
398.903	0.99
399.264	1
399.625	1.03
399.987	1.05
400.348	1.06
400.709	1.07
401.071	1.09
401.432	1.09
401.793	1.1
402.154	1.08
402.515	1.07
402.876	1.06
403.238	1.04
403.599	1.01
403.96	0.98
404.32	0.95
404.681	0.92
405.042	0.88
405.403	0.84
405.764	0.8
406.125	0.76
406.485	0.72
406.846	0.69
407.207	0.65
407.567	0.61
407.928	0.59
408.288	0.55
408.649	0.52
409.009	0.49
409.37	0.47
409.73	0.44
410.091	0.41
410.451	0.39
410.811	0.37
411.171	0.35
411.532	0.33
411.892	0.32
412.252	0.31
412.612	0.29
412.972	0.27
413.332	0.26
413.692	0.26
414.052	0.24
414.412	0.24
414.772	0.22
415.132	0.21
415.492	0.21
415.851	0.2
416.211	0.2
416.571	0.19
416.931	0.18
417.29	0.18
417.65	0.17
418.009	0.17
418.369	0.16
418.728	0.16
419.088	0.16
419.447	0.16
419.807	0.14
420.166	0.14
420.525	0.14
420.884	0.14
421.244	0.14
421.603	0.14
421.962	0.13
422.321	0.13
422.68	0.13
423.039	0.13
423.398	0.12
423.757	0.12
424.116	0.12
424.475	0.12
424.834	0.11
425.193	0.11
425.551	0.11
425.91	0.11
426.269	0.12
426.628	0.1
426.986	0.11
427.345	0.11
427.703	0.1
428.062	0.1
428.42	0.11
428.779	0.11
429.137	0.11
429.496	0.1
429.854	0.1
430.212	0.1
430.57	0.1
430.929	0.1
431.287	0.1
431.645	0.1
432.003	0.1
432.361	0.1
432.719	0.1
433.077	0.1
433.435	0.09
433.793	0.09
434.151	0.09
434.509	0.1
434.866	0.1
435.224	0.09
435.582	0.09
435.94	0.09
436.297	0.09
436.655	0.09
437.012	0.1
437.37	0.1
437.727	0.09
438.085	0.1
438.442	0.1
438.8	0.09
439.157	0.09
439.514	0.09
439.872	0.09
440.229	0.09
440.586	0.09
440.943	0.1
441.3	0.09
441.657	0.1
442.014	0.09
442.371	0.1
442.728	0.09
443.085	0.1
443.442	0.09
443.799	0.1
444.156	0.09
444.513	0.1
444.869	0.1
445.226	0.09
445.583	0.1
445.939	0.09
446.296	0.09
446.652	0.1
447.009	0.09
447.365	0.1
447.722	0.09
448.078	0.09
448.434	0.09
448.791	0.1
449.147	0.1
449.503	0.09
449.859	0.1
450.215	0.09
450.571	0.1
450.928	0.11
451.284	0.1
451.64	0.09
451.995	0.09
452.351	0.1
452.707	0.1
453.063	0.1
453.419	0.1
453.775	0.1
454.13	0.1
454.486	0.1
454.842	0.1
455.197	0.1
455.553	0.1
455.908	0.1
456.264	0.09
456.619	0.09
456.975	0.09
457.33	0.09
457.685	0.09
458.04	0.09
458.396	0.09
458.751	0.08
459.106	0.08
459.461	0.09
459.816	0.08
460.171	0.08
460.526	0.08
460.881	0.08
461.236	0.08
461.591	0.08
461.946	0.08
462.301	0.08
462.655	0.08
463.01	0.08
463.365	0.08
463.719	0.07
464.074	0.07
464.428	0.07
464.783	0.07
465.137	0.06
465.492	0.06
465.846	0.07
466.201	0.07
466.555	0.07
466.909	0.07
467.263	0.08
467.618	0.09
467.972	0.08
468.326	0.08
468.68	0.08
469.034	0.07
469.388	0.08
469.742	0.08
470.096	0.08
470.45	0.08
470.804	0.08
471.157	0.08
471.511	0.09
471.865	0.09
472.218	0.09
472.572	0.09
472.926	0.1
473.279	0.1
473.633	0.1
473.986	0.11
474.34	0.12
474.693	0.12
475.046	0.13
475.4	0.13
475.753	0.14
476.106	0.15
476.459	0.15
476.812	0.16
477.165	0.16
477.519	0.17
477.872	0.16
478.224	0.17
478.577	0.18
478.93	0.18
479.283	0.18
479.636	0.19
479.989	0.2
480.341	0.2
480.694	0.2
481.047	0.21
481.399	0.21
481.752	0.22
482.104	0.22
482.457	0.22
482.809	0.22
483.162	0.23
483.514	0.23
483.866	0.23
484.219	0.24
484.571	0.24
484.923	0.24
485.275	0.25
485.627	0.25
485.979	0.25
486.331	0.25
486.683	0.26
487.035	0.26
487.387	0.26
487.739	0.26
488.091	0.27
488.443	0.27
488.794	0.28
489.146	0.28
489.498	0.28
489.849	0.28
490.201	0.28
490.552	0.28
490.904	0.29
491.255	0.29
491.607	0.29
491.958	0.3
492.309	0.3
492.661	0.31
493.012	0.31
493.363	0.31
493.714	0.31
494.065	0.31
494.416	0.32
494.767	0.32
495.118	0.32
495.469	0.33
495.82	0.33
496.171	0.33
496.522	0.34
496.872	0.33
497.223	0.33
497.574	0.35
497.924	0.34
498.275	0.35
498.626	0.35
498.976	0.35
499.327	0.36
499.677	0.36
500.027	0.36
500.378	0.36
500.728	0.37
501.078	0.38
501.428	0.37
501.779	0.37
502.129	0.37
502.479	0.38
502.829	0.39
503.179	0.38
503.529	0.39
503.879	0.39
504.229	0.39
504.578	0.4
504.928	0.4
505.278	0.4
505.628	0.41
505.977	0.4
506.327	0.41
506.676	0.41
507.026	0.42
507.375	0.42
507.725	0.42
508.074	0.43
508.424	0.42
508.773	0.43
509.122	0.43
509.471	0.43
509.82	0.43
510.17	0.44
510.519	0.43
510.868	0.44
511.217	0.44
511.566	0.44
511.915	0.45
512.263	0.45
512.612	0.46
512.961	0.45
513.31	0.46
513.659	0.46
514.007	0.46
514.356	0.46
514.704	0.47
515.053	0.47
515.401	0.47
515.75	0.47
516.098	0.47
516.447	0.47
516.795	0.48
517.143	0.48
517.491	0.48
517.839	0.48
518.188	0.49
518.536	0.49
518.884	0.49
519.232	0.5
519.58	0.5
519.928	0.5
520.275	0.5
520.623	0.5
520.971	0.51
521.319	0.51
521.666	0.5
522.014	0.51
522.362	0.51
522.709	0.51
523.057	0.51
523.404	0.52
523.752	0.52
524.099	0.52
524.446	0.52
524.794	0.52
525.141	0.53
525.488	0.53
525.835	0.53
526.182	0.53
526.529	0.53
526.876	0.54
527.223	0.54
527.57	0.54
527.917	0.54
528.264	0.54
528.611	0.55
528.958	0.54
529.304	0.55
529.651	0.55
529.998	0.55
530.344	0.55
530.691	0.55
531.037	0.55
531.384	0.55
531.73	0.55
532.076	0.56
532.423	0.56
532.769	0.56
533.115	0.56
533.461	0.56
533.807	0.56
534.154	0.56
534.5	0.56
534.846	0.56
535.192	0.57
535.537	0.57
535.883	0.57
536.229	0.57
536.575	0.57
536.921	0.57
537.266	0.57
537.612	0.57
537.957	0.57
538.303	0.57
538.649	0.58
538.994	0.58
539.339	0.58
539.685	0.58
540.03	0.59
540.375	0.58
540.721	0.58
541.066	0.58
541.411	0.59
541.756	0.59
542.101	0.59
542.446	0.59
542.791	0.59
543.136	0.59
543.481	0.6
543.825	0.59
544.17	0.59
544.515	0.6
544.86	0.6
545.204	0.6
545.549	0.6
545.893	0.6
546.238	0.6
546.582	0.6
546.927	0.6
547.271	0.6
547.615	0.6
547.96	0.6
548.304	0.6
548.648	0.6
548.992	0.61
549.336	0.61
549.68	0.61
550.024	0.61
550.368	0.61
550.712	0.6
551.056	0.61
551.4	0.61
551.743	0.61
552.087	0.61
552.431	0.61
552.774	0.61
553.118	0.61
553.462	0.61
553.805	0.61
554.148	0.61
554.492	0.61
554.835	0.61
555.178	0.61
555.522	0.61
555.865	0.61
556.208	0.61
556.551	0.6
556.894	0.6
557.237	0.6
557.58	0.61
557.923	0.6
558.266	0.61
558.609	0.61
558.952	0.6
559.294	0.61
559.637	0.6
559.98	0.61
560.322	0.6
560.665	0.61
561.007	0.6
561.35	0.6
561.692	0.6
562.034	0.6
562.377	0.6
562.719	0.6
563.061	0.6
563.403	0.6
563.745	0.6
564.088	0.6
564.43	0.6
564.772	0.59
565.113	0.6
565.455	0.59
565.797	0.59
566.139	0.6
566.481	0.59
566.822	0.59
567.164	0.59
567.506	0.59
567.847	0.59
568.189	0.59
568.53	0.59
568.872	0.59
569.213	0.59
569.554	0.59
569.895	0.59
570.237	0.58
570.578	0.59
570.919	0.58
571.26	0.58
571.601	0.58
571.942	0.58
572.283	0.58
572.624	0.57
572.965	0.57
573.306	0.57
573.646	0.56
573.987	0.56
574.328	0.56
574.668	0.57
575.009	0.56
575.349	0.56
575.69	0.55
576.03	0.55
576.37	0.53
576.711	0.53
577.051	0.53
577.391	0.54
577.731	0.55
578.072	0.55
578.412	0.54
578.752	0.54
579.092	0.52
579.431	0.49
579.771	0.47
580.111	0.45
580.451	0.46
580.791	0.5
581.13	0.51
581.47	0.52
581.81	0.53
582.149	0.52
582.489	0.53
582.828	0.49
583.167	0.45
583.507	0.41
583.846	0.4
584.185	0.43
584.525	0.45
584.864	0.49
585.203	0.52
585.542	0.53
585.881	0.53
586.22	0.53
586.559	0.5
586.898	0.48
587.236	0.46
587.575	0.46
587.914	0.47
588.252	0.49
588.591	0.51
588.93	0.51
589.268	0.5
589.607	0.49
589.945	0.49
590.283	0.5
590.622	0.51
590.96	0.52
591.298	0.53
591.636	0.53
591.974	0.53
592.313	0.53
592.651	0.53
592.989	0.53
593.326	0.53
593.664	0.53
594.002	0.53
594.34	0.52
594.678	0.51
595.015	0.48
595.353	0.47
595.691	0.48
596.028	0.51
596.366	0.52
596.703	0.53
597.04	0.53
597.378	0.53
597.715	0.53
598.052	0.53
598.389	0.53
598.726	0.53
599.064	0.54
599.401	0.53
599.738	0.53
600.074	0.53
600.411	0.52
600.748	0.5
601.085	0.49
601.422	0.48
601.758	0.48
602.095	0.49
602.432	0.49
602.768	0.49
603.105	0.51
603.441	0.51
603.777	0.52
604.114	0.53
604.45	0.53
604.786	0.52
605.122	0.52
605.459	0.52
605.795	0.51
606.131	0.51
606.467	0.52
606.803	0.51
607.139	0.51
607.474	0.51
607.81	0.5
608.146	0.5
608.482	0.5
608.817	0.49
609.153	0.49
609.488	0.49
609.824	0.49
610.159	0.5
610.495	0.5
610.83	0.5
611.165	0.5
611.5	0.5
611.836	0.5
612.171	0.5
612.506	0.49
612.841	0.49
613.176	0.49
613.511	0.49
613.845	0.49
614.18	0.49
614.515	0.49
614.85	0.49
615.184	0.48
615.519	0.48
615.854	0.48
616.188	0.48
616.523	0.47
616.857	0.47
617.191	0.47
617.526	0.47
617.86	0.47
618.194	0.46
618.528	0.47
618.862	0.47
619.196	0.47
619.53	0.47
619.864	0.46
620.198	0.46
620.532	0.46
620.866	0.46
621.2	0.46
621.533	0.46
621.867	0.46
622.201	0.45
622.534	0.45
622.868	0.45
623.201	0.45
623.534	0.45
623.868	0.44
624.201	0.44
624.534	0.44
624.868	0.44
625.201	0.44
625.534	0.44
625.867	0.44
626.2	0.43
626.533	0.43
626.865	0.43
627.198	0.43
627.531	0.43
627.864	0.42
628.196	0.42
628.529	0.42
628.862	0.41
629.194	0.41
629.527	0.41
629.859	0.41
630.191	0.41
630.524	0.4
630.856	0.4
631.188	0.4
631.52	0.4
631.852	0.39
632.184	0.39
632.516	0.39
632.848	0.39
633.18	0.38
633.512	0.38
633.844	0.38
634.175	0.38
634.507	0.38
634.839	0.38
635.17	0.37
635.502	0.37
635.833	0.37
636.165	0.36
636.496	0.36
636.827	0.36
637.159	0.36
637.49	0.35
637.821	0.35
638.152	0.35
638.483	0.34
638.814	0.34
639.145	0.34
639.476	0.34
639.807	0.34
640.137	0.33
640.468	0.33
640.799	0.33
641.129	0.33
641.46	0.33
641.791	0.32
642.121	0.32
642.451	0.32
642.782	0.32
643.112	0.32
643.442	0.32
643.773	0.32
644.103	0.31
644.433	0.31
644.763	0.31
645.093	0.3
645.423	0.3
645.753	0.3
646.082	0.3
646.412	0.29
646.742	0.3
647.072	0.29
647.401	0.29
647.731	0.29
648.06	0.29
648.39	0.29
648.719	0.29
649.048	0.29
649.378	0.29
649.707	0.28
650.036	0.28
650.365	0.28
650.694	0.28
651.023	0.28
651.352	0.27
651.681	0.27
652.01	0.27
652.339	0.28
652.668	0.27
652.996	0.27
653.325	0.27
653.654	0.27
653.982	0.27
654.311	0.27
654.639	0.27
654.967	0.27
655.296	0.27
655.624	0.26
655.952	0.27
656.28	0.26
656.609	0.26
656.937	0.26
657.265	0.26
657.593	0.1
657.92	0.01
658.248	0
658.576	0
658.904	0.07
659.231	0.15
659.559	0.21
659.887	0.25
660.214	0.25
660.542	0.25
660.869	0.25
661.196	0.25
661.524	0.25
661.851	0.25
662.178	0.25
662.505	0.25
662.832	0.25
663.159	0.25
663.486	0.24
663.813	0.24
664.14	0.24
664.467	0.24
664.794	0.25
665.12	0.24
665.447	0.24
665.774	0.24
666.1	0.24
666.427	0.24
666.753	0.24
667.079	0.23
667.406	0.23
667.732	0.23
668.058	0.23
668.384	0.23
668.71	0.23
669.036	0.22
669.362	0.23
669.688	0.22
670.014	0.22
670.34	0.22
670.666	0.22
670.991	0.22
671.317	0.22
671.643	0.21
671.968	0.21
672.294	0.21
672.619	0.2
672.945	0.2
673.27	0.2
673.595	0.2
673.92	0.19
674.246	0.18
674.571	0.19
674.896	0.19
675.221	0.19
675.546	0.19
675.87	0.19
676.195	0.19
676.52	0.19
676.845	0.18
677.169	0.19
677.494	0.18
677.819	0.18
678.143	0.17
678.468	0.17
678.792	0.17
679.116	0.17
679.44	0.17
679.765	0.16
680.089	0.16
680.413	0.15
680.737	0.15
681.061	0.14
681.385	0.15
681.709	0.14
682.033	0.13
682.356	0.14
682.68	0.14
683.004	0.14
683.327	0.13
683.651	0.13
683.974	0.12
684.298	0.13
684.621	0.13
684.944	0.13
685.268	0.12
685.591	0.12
685.914	0.11
686.237	0.1
686.56	0.1
686.883	0.09
687.206	0.08
687.529	0.08
687.852	0.08
688.175	0.08
688.497	0.09
688.82	0.09
689.142	0.08
689.465	0.08
689.787	0.09
690.11	0.08
690.432	0.08
690.755	0.08
691.077	0.08
691.399	0.07
691.721	0.07
692.043	0.07
692.365	0.07
692.687	0.06
693.009	0.06
693.331	0.05
693.653	0.05
693.974	0.06
694.296	0.05
694.618	0.06
694.939	0.06
695.261	0.05
695.582	0.05
695.904	0.05
696.225	0.05
696.546	0.06
696.868	0.06
697.189	0.05
697.51	0.04
697.831	0.04
698.152	0.05
698.473	0.04
698.794	0.03
699.114	0.03
699.435	0.01
699.756	0.02
700.077	0.02
700.397	0.03
700.718	0.03
701.038	0.04
701.359	0.04
701.679	0.04
701.999	0.04
702.32	0.04
702.64	0.04
702.96	0.04
703.28	0.04
703.6	0.04
703.92	0.03
704.24	0.03
704.56	0.02
704.879	0.02
705.199	0.03
705.519	0.02
705.838	0.02
706.158	0.03
706.478	0.02
706.797	0.03
707.116	0.03
707.436	0.03
707.755	0.03
708.074	0.03
708.393	0.02
708.712	0.01
709.031	0.01
709.35	0
709.669	0.01
709.988	0.01
710.307	0.01
710.626	0.01
710.944	0.01
711.263	0.01
711.582	0.02
711.9	0.02
712.219	0.01
712.537	0.01
712.855	0.02
713.174	0.01
713.492	0.01
713.81	0.02
714.128	0.02
714.446	0.02
714.764	0.01
715.082	0.01
715.4	0.01
715.718	0.01
716.035	0.01
716.353	0.01
716.671	0.01
716.988	0.01
717.306	0.01
717.623	0.02
717.941	0.02
718.258	0.03
718.575	0.03
718.893	0.02
719.21	0.02
719.527	0.03
719.844	0.02
720.161	0.02
720.478	0.02
720.795	0.02
721.112	0.02
721.428	0.03
721.745	0.03
722.062	0.03
722.378	0.03
722.695	0.03
723.011	0.03
723.328	0.03
723.644	0.03
723.96	0.03
724.276	0.03
724.593	0.03
724.909	0.04
725.225	0.03
725.541	0.04
725.857	0.04
726.173	0.04
726.488	0.04
726.804	0.03
727.12	0.03
727.435	0.03
727.751	0.04
728.067	0.03
728.382	0.04
728.697	0.04
729.013	0.04
729.328	0.04
729.643	0.04
729.958	0.04
730.273	0.04
730.588	0.03
730.903	0.04
731.218	0.04
731.533	0.04
731.848	0.03
732.163	0.03
732.477	0.03
732.792	0.03
733.107	0.02
733.421	0.02
733.736	0.03
734.05	0.03
734.364	0.03
734.678	0.04
734.993	0.03
735.307	0.03
735.621	0.02
735.935	0.03
736.249	0.03
736.563	0.03
736.877	0.03
737.19	0.04
737.504	0.03
737.818	0.03
738.131	0.03
738.445	0.04
738.758	0.04
739.072	0.04
739.385	0.04
739.698	0.05
740.012	0.05
740.325	0.04
740.638	0.04
740.951	0.04
741.264	0.03
741.577	0.04
741.89	0.05
742.203	0.05
742.515	0.05
742.828	0.05
743.141	0.05
743.453	0.05
743.766	0.05
744.078	0.05
744.391	0.04
744.703	0.05
745.015	0.05
745.327	0.04
745.639	0.04
745.952	0.04
746.264	0.04
746.575	0.05
746.887	0.04
747.199	0.04
747.511	0.04
747.823	0.05
748.134	0.04
748.446	0.04
748.757	0.04
749.069	0.04
749.38	0.04
749.692	0.04
750.003	0.04
750.314	0.04
750.625	0.03
750.936	0.03
751.248	0.03
751.559	0.02
751.869	0.02
752.18	0.02
752.491	0.02
752.802	0.02
753.112	0.02
753.423	0.02
753.734	0.02
754.044	0.02
754.355	0.02
754.665	0.02
754.975	0.02
755.285	0.02
755.596	0.01
755.906	0.02
756.216	0.02
756.526	0.02
756.836	0.02
757.146	0.01
757.455	0.01
757.765	0.01
758.075	0.01
758.385	0.01
758.694	0.01
759.004	0
759.313	0
759.622	0
759.932	0
760.241	0.01
760.55	0.01
760.859	0.01
761.168	0.01
761.477	0.01
761.786	0.01
762.095	0.01
762.404	0.01
762.713	0.01
763.021	0.01
763.33	0.01
763.639	0.01
763.947	0.02
764.256	0.01
764.564	0.02
764.872	0.01
765.181	0.02
765.489	0.01
765.797	0.01
766.105	0.01
766.413	0.01
766.721	0.01
767.029	0.01
767.337	0.02
767.644	0.02
767.952	0.03
768.26	0.03
768.567	0.03
768.875	0.03
769.182	0.03
769.49	0.03
769.797	0.03
770.104	0.03
770.411	0.03
770.718	0.03
771.026	0.03
771.333	0.03
771.639	0.03
771.946	0.03
772.253	0.03
772.56	0.03
772.867	0.03
773.173	0.03
773.48	0.04
773.786	0.03
774.093	0.03
774.399	0.03
774.705	0.04
775.012	0.04
775.318	0.04
775.624	0.04
775.93	0.04
776.236	0.04
776.542	0.03
776.848	0.03
777.154	0.04
777.459	0.03
777.765	0.03
778.071	0.03
778.376	0.03
778.682	0.03
778.987	0.03
779.292	0.03
779.598	0.04
779.903	0.03
780.208	0.03
780.513	0.03
780.818	0.03
781.123	0.03
781.428	0.04
781.733	0.04
782.038	0.03
782.343	0.03
782.647	0.03
782.952	0.04
783.256	0.04
783.561	0.04
783.865	0.04
784.17	0.04
784.474	0.04
784.778	0.04
785.082	0.04
785.386	0.04
785.69	0.04
785.994	0.04
786.298	0.04
786.602	0.04
786.906	0.04
787.209	0.04
787.513	0.04
787.817	0.04
788.12	0.03
788.424	0.03
788.727	0.03
789.03	0.03
789.333	0.03
789.637	0.03
789.94	0.03
790.243	0.04
790.546	0.04
790.849	0.04
791.152	0.04
791.454	0.04
791.757	0.04
792.06	0.04
792.362	0.04
792.665	0.04
792.967	0.04
793.27	0.03
793.572	0.03
793.874	0.04
794.177	0.03
794.479	0.04
794.781	0.04
795.083	0.04
795.385	0.04
795.687	0.04
795.989	0.04
796.29	0.04
796.592	0.04
796.894	0.04
797.195	0.05
797.497	0.04
797.798	0.05
798.1	0.04
798.401	0.04
798.702	0.05
799.003	0.04
799.304	0.05
799.605	0.04
799.906	0.04
800.207	0.04
800.508	0.04
800.809	0.05
801.11	0.05
801.41	0.05
801.711	0.05
802.011	0.05
802.312	0.05
802.612	0.05
802.913	0.04
803.213	0.04
803.513	0.04
803.813	0.04
804.113	0.04
804.413	0.04
804.713	0.04
805.013	0.04
805.313	0.05
805.613	0.05
805.912	0.05
806.212	0.05
806.511	0.05
806.811	0.05
807.11	0.04
807.41	0.05
807.709	0.05
808.008	0.05
808.307	0.05
808.606	0.05
808.905	0.05
809.204	0.05
809.503	0.05
809.802	0.05
810.101	0.04
810.399	0.05
810.698	0.05
810.997	0.04
811.295	0.05
811.593	0.05
811.892	0.05
812.19	0.05
812.488	0.05
812.786	0.05
813.084	0.05
813.383	0.04
813.68	0.05
813.978	0.05
814.276	0.05
814.574	0.05
814.872	0.05
815.169	0.06
815.467	0.05
815.764	0.05
816.062	0.06
816.359	0.06
816.656	0.06
816.954	0.06
817.251	0.06
817.548	0.06
817.845	0.06
818.142	0.06
818.439	0.06
818.735	0.05
819.032	0.06
819.329	0.06
819.626	0.06
819.922	0.06
820.219	0.06
820.515	0.06
820.811	0.06
821.108	0.06
821.404	0.06
821.7	0.06
821.996	0.06
822.292	0.06
822.588	0.06
822.884	0.06
823.18	0.07
823.475	0.06
823.771	0.07
824.067	0.06
824.362	0.06
824.658	0.07
824.953	0.06
825.249	0.06
825.544	0.06
825.839	0.06
826.134	0.06
826.429	0.06
826.724	0.06
827.019	0.06
827.314	0.06
827.609	0.06
827.904	0.06
828.198	0.07
828.493	0.06
828.787	0.06
829.082	0.06
829.376	0.06
829.671	0.07
829.965	0.07
830.259	0.07
830.553	0.07
830.847	0.07
831.141	0.07
831.435	0.07
831.729	0.07
832.023	0.06
832.317	0.06
832.61	0.06
832.904	0.06
833.197	0.06
833.491	0.07
833.784	0.06
834.077	0.07
834.371	0.07
834.664	0.07
834.957	0.07
835.25	0.08
835.543	0.08
835.836	0.07
836.129	0.07
836.421	0.07
836.714	0.07
837.007	0.08
837.299	0.07
837.592	0.07
837.884	0.07
838.177	0.07
838.469	0.07
838.761	0.07
839.053	0.07
839.345	0.07
839.637	0.08
839.929	0.08
840.221	0.07
840.513	0.07
840.805	0.07
841.096	0.08
841.388	0.08
841.68	0.08
841.971	0.08
842.262	0.08
842.554	0.07
842.845	0.07
843.136	0.07
843.427	0.07
843.718	0.07
844.009	0.08
844.3	0.07
844.591	0.08
844.882	0.08
845.173	0.07
845.463	0.08
845.754	0.08
846.044	0.08
846.335	0.08
846.625	0.08
846.915	0.08
847.206	0.08
847.496	0.09
847.786	0.08
848.076	0.09
848.366	0.08
848.656	0.08
848.945	0.08
849.235	0.09
849.525	0.08
849.814	0.08
850.104	0.08
850.393	0.08
850.683	0.08
850.972	0.09
851.261	0.08
851.551	0.08
851.84	0.09
852.129	0.09
852.418	0.08
852.707	0.09
852.995	0.08
853.284	0.08
853.573	0.08
853.862	0.09
854.15	0.09
854.439	0.09
854.727	0.09
855.015	0.09
855.304	0.09
855.592	0.1
855.88	0.09
856.168	0.09
856.456	0.09
856.744	0.09
857.032	0.1
857.32	0.1
857.607	0.09
857.895	0.1
858.183	0.09
858.47	0.09
858.757	0.08
859.045	0.09
859.332	0.09
859.619	0.09
859.907	0.11
860.194	0.12
860.481	0.09
860.768	0.11
861.054	0.09
861.341	0.09
861.628	0.09
861.915	0.09
862.201	0.1
862.488	0.1
862.774	0.09
863.061	0.1
863.347	0.1
863.633	0.08
863.919	0.12
864.205	0.09
864.491	0.08
864.777	0.09
865.063	0.09
865.349	0.07
865.635	0.08
865.92	0.06
866.206	0.08
866.492	0.09
866.777	0.1
867.062	0.08
867.348	0.1
867.633	0.06
867.918	0.09
868.203	0.11
868.488	0.11
868.773	0.11
869.058	0.09
869.343	0.08
869.628	0.08
869.912	0.08
870.197	0.06
870.482	0.1
870.766	0.07
871.05	0.08
871.335	0.06
871.619	0.06
871.903	0.06
872.187	0.07
872.471	0.09
872.755	0.1
873.039	0.08
873.323	0.07
873.607	0.06
873.89	0.07
874.174	0.09
874.458	0.04
874.741	0.08
875.024	0.07
875.308	0.07
875.591	0.05
875.874	0.1
876.157	0.08
876.44	0.08
876.723	0.08
877.006	0.1
877.289	0.05
877.572	0.03
877.854	0.1
878.137	0.05
878.42	0.05
878.702	0.06
878.984	-0
879.267	0.01
879.549	0.01
879.831	0.03
880.113	0.06
880.395	0
880.677	0.02
880.959	0.08
