Data from Rubpy_BV_600_EDTA_Buffered_Absorbance_12-47-36-597.txt Node
Date: Wed Jul 01 12:47:36 BST 2026
User: fpm-admin
Spectrometer: OFX00224
Trigger mode: 0
Integration Time (sec): 7.000000E-2
Scans to average: 3
Nonlinearity correction enabled: false
Boxcar width: 0
Storing dark spectrum: false
XAxis mode: Wavelengths
Number of Pixels in Spectrum: 2136
>>>>>Begin Spectral Data<<<<<
154.91	0.58
155.289	-0.17
155.669	-0
156.048	-0
156.428	-0
156.807	-0
157.186	0.2
157.566	-0.88
157.945	0.1
158.325	-0
158.704	-0
159.083	-0.1
159.462	0.51
159.842	0.08
160.221	-0.19
160.6	0.48
160.979	-0.05
161.359	-0.02
161.738	-0
162.117	-0
162.496	-0
162.875	-0
163.254	0.12
163.633	-0.3
164.012	0.17
164.391	-0.2
164.77	0.29
165.149	-0.25
165.528	-0
165.907	0.15
166.286	-0
166.665	-0
167.044	-0
167.423	0.16
167.802	-0
168.181	-0.11
168.559	-0.17
168.938	-0.95
169.317	-0.58
169.696	-1.33
170.074	-0
170.453	-0
170.832	0.41
171.21	-1.29
171.589	0.12
171.968	-0
172.346	-0.04
172.725	-0
173.103	-0
173.482	-0
173.861	-0
174.239	-0
174.617	-0
174.996	-0.18
175.374	0.58
175.753	-0
176.131	-0
176.51	-0.06
176.888	0.49
177.266	0.82
177.645	0.02
178.023	0.73
178.401	-0.31
178.779	0.02
179.158	0.01
179.536	0.19
179.914	-0.46
180.292	-0.35
180.67	-0.24
181.048	0.15
181.427	0.22
181.805	-0
182.183	0.6
182.561	-0
182.939	0.25
183.317	0.54
183.695	-0
184.073	0.34
184.451	-0.41
184.829	0.27
185.206	0.16
185.584	-0
185.962	-0
186.34	-0.67
186.718	-0
187.096	-0.9
187.473	0.27
187.851	-0.35
188.229	0.08
188.607	-0.04
188.984	0.07
189.362	0.1
189.74	0.06
190.117	0.07
190.495	0.06
190.872	-0.01
191.25	0.04
191.627	0.07
192.005	0.12
192.382	0.08
192.76	0.15
193.137	0.12
193.515	-0.02
193.892	0.15
194.269	0.05
194.647	0.12
195.024	0.12
195.401	0.1
195.779	0.06
196.156	0.17
196.533	0.09
196.91	0.09
197.288	0.03
197.665	0.19
198.042	0.13
198.419	0.06
198.796	-0.01
199.173	0.08
199.55	-0.07
199.927	0.12
200.304	0.12
200.681	0.16
201.058	-0.06
201.435	0.03
201.812	0.14
202.189	0.22
202.566	0.04
202.943	0.07
203.32	0.04
203.697	0.11
204.073	0.12
204.45	0.1
204.827	0.09
205.204	0.07
205.58	0.07
205.957	0.01
206.334	0.2
206.71	0.22
207.087	0.11
207.464	0.18
207.84	0.1
208.217	0.18
208.593	0.06
208.97	0.05
209.346	0.07
209.723	0.05
210.099	0.03
210.476	0.14
210.852	0.09
211.228	0.16
211.605	0.1
211.981	0.14
212.357	0.1
212.733	0.07
213.11	0.13
213.486	0.01
213.862	0.08
214.238	-0.01
214.614	0.04
214.991	0.1
215.367	0.06
215.743	0.14
216.119	0.06
216.495	0.19
216.871	0.17
217.247	0.07
217.623	0.12
217.999	0.1
218.375	0.08
218.751	0.13
219.127	0.08
219.502	0.08
219.878	0.08
220.254	0.07
220.63	0.06
221.006	0.06
221.381	0.08
221.757	0.1
222.133	0.1
222.508	0.13
222.884	0.17
223.26	0.12
223.635	0.08
224.011	0.06
224.386	0.16
224.762	0.18
225.137	0.13
225.513	0.02
225.888	0.16
226.264	0.1
226.639	0.12
227.014	0.09
227.39	0.13
227.765	0.1
228.14	0.15
228.516	0.17
228.891	0.16
229.266	0.13
229.641	0.12
230.017	0.1
230.392	0.19
230.767	0.11
231.142	0.17
231.517	0.08
231.892	0.18
232.267	0.2
232.642	0.04
233.017	0.07
233.392	0.1
233.767	0.18
234.142	0.12
234.517	0.16
234.892	0.17
235.267	0.13
235.641	0.08
236.016	0.1
236.391	0.1
236.766	0.26
237.14	0.11
237.515	0.2
237.89	0.1
238.264	0.12
238.639	0.04
239.014	0.12
239.388	0.11
239.763	0.17
240.137	0.09
240.512	0.1
240.886	0.02
241.261	0.14
241.635	0.17
242.009	0.1
242.384	0.09
242.758	0.11
243.132	0.14
243.507	0.12
243.881	0.05
244.255	0.21
244.629	0.14
245.004	0.12
245.378	0.1
245.752	0.13
246.126	0.15
246.5	0.09
246.874	0.05
247.248	0.08
247.622	0.08
247.996	0.13
248.37	0.11
248.744	0.19
249.118	0.11
249.492	0.21
249.866	0.12
250.24	0.15
250.613	0.25
250.987	0.18
251.361	0.14
251.735	0.14
252.108	0.2
252.482	0.08
252.856	0.03
253.229	0.06
253.603	0.08
253.977	0.16
254.35	0.17
254.724	0.18
255.097	0.19
255.471	0.17
255.844	0.14
256.218	0.11
256.591	0.14
256.964	0.08
257.338	0.15
257.711	0.12
258.084	0.16
258.458	0.15
258.831	0.18
259.204	0.12
259.577	0.14
259.95	0.23
260.323	0.16
260.697	0.23
261.07	0.11
261.443	0.11
261.816	0.12
262.189	0.09
262.562	0.14
262.935	0.13
263.308	0.06
263.68	0.18
264.053	0.15
264.426	0.12
264.799	0.13
265.172	0.15
265.545	0.17
265.917	0.11
266.29	0.15
266.663	0.17
267.035	0.18
267.408	0.17
267.781	0.15
268.153	0.12
268.526	0.14
268.898	0.15
269.271	0.14
269.643	0.11
270.016	0.15
270.388	0.14
270.76	0.15
271.133	0.17
271.505	0.16
271.877	0.09
272.25	0.17
272.622	0.26
272.994	0.15
273.366	0.21
273.739	0.18
274.111	0.15
274.483	0.18
274.855	0.15
275.227	0.14
275.599	0.18
275.971	0.15
276.343	0.17
276.715	0.17
277.087	0.25
277.459	0.09
277.831	0.12
278.203	0.14
278.574	0.1
278.946	0.17
279.318	0.15
279.69	0.17
280.061	0.06
280.433	0.11
280.805	0.21
281.176	0.21
281.548	0.17
281.92	0.11
282.291	0.14
282.663	0.16
283.034	0.15
283.406	0.15
283.777	0.22
284.148	0.14
284.52	0.15
284.891	0.14
285.262	0.13
285.634	0.18
286.005	0.13
286.376	0.19
286.747	0.18
287.119	0.18
287.49	0.12
287.861	0.16
288.232	0.12
288.603	0.12
288.974	0.15
289.345	0.17
289.716	0.12
290.087	0.16
290.458	0.11
290.829	0.11
291.2	0.16
291.571	0.1
291.941	0.12
292.312	0.18
292.683	0.14
293.054	0.16
293.424	0.11
293.795	0.13
294.166	0.13
294.536	0.16
294.907	0.17
295.277	0.18
295.648	0.14
296.018	0.18
296.389	0.13
296.759	0.12
297.13	0.15
297.5	0.18
297.871	0.15
298.241	0.15
298.611	0.11
298.981	0.11
299.352	0.1
299.722	0.13
300.092	0.12
300.462	0.09
300.832	0.11
301.202	0.15
301.573	0.11
301.943	0.11
302.313	0.07
302.683	0.1
303.053	0.11
303.422	0.07
303.792	0.1
304.162	0.09
304.532	0.08
304.902	0.05
305.272	0.09
305.641	0.11
306.011	0.08
306.381	0.06
306.75	0.07
307.12	0.07
307.49	0.07
307.859	0.07
308.229	0.08
308.598	0.09
308.968	0.09
309.337	0.09
309.707	0.09
310.076	0.09
310.445	0.09
310.815	0.1
311.184	0.09
311.553	0.1
311.923	0.12
312.292	0.12
312.661	0.11
313.03	0.12
313.399	0.12
313.768	0.12
314.137	0.13
314.506	0.13
314.875	0.13
315.244	0.14
315.613	0.13
315.982	0.14
316.351	0.15
316.72	0.14
317.089	0.14
317.458	0.15
317.826	0.14
318.195	0.15
318.564	0.16
318.933	0.16
319.301	0.16
319.67	0.17
320.038	0.17
320.407	0.17
320.775	0.17
321.144	0.17
321.512	0.17
321.881	0.17
322.249	0.18
322.618	0.18
322.986	0.17
323.354	0.18
323.723	0.19
324.091	0.2
324.459	0.19
324.827	0.2
325.195	0.2
325.564	0.2
325.932	0.2
326.3	0.2
326.668	0.21
327.036	0.21
327.404	0.21
327.772	0.21
328.14	0.22
328.508	0.22
328.875	0.23
329.243	0.24
329.611	0.23
329.979	0.24
330.346	0.24
330.714	0.25
331.082	0.25
331.449	0.25
331.817	0.26
332.185	0.26
332.552	0.26
332.92	0.27
333.287	0.27
333.655	0.28
334.022	0.28
334.389	0.3
334.757	0.29
335.124	0.3
335.491	0.3
335.859	0.31
336.226	0.31
336.593	0.32
336.96	0.33
337.327	0.33
337.695	0.34
338.062	0.34
338.429	0.36
338.796	0.36
339.163	0.36
339.53	0.37
339.897	0.38
340.263	0.39
340.63	0.39
340.997	0.39
341.364	0.4
341.731	0.41
342.097	0.41
342.464	0.42
342.831	0.42
343.197	0.43
343.564	0.44
343.931	0.45
344.297	0.46
344.664	0.46
345.03	0.48
345.396	0.48
345.763	0.48
346.129	0.49
346.496	0.5
346.862	0.51
347.228	0.51
347.594	0.52
347.961	0.52
348.327	0.54
348.693	0.54
349.059	0.55
349.425	0.55
349.791	0.57
350.157	0.57
350.523	0.58
350.889	0.57
351.255	0.59
351.621	0.6
351.987	0.6
352.353	0.61
352.719	0.62
353.084	0.63
353.45	0.62
353.816	0.63
354.181	0.65
354.547	0.65
354.913	0.66
355.278	0.66
355.644	0.68
356.009	0.69
356.375	0.69
356.74	0.7
357.106	0.72
357.471	0.72
357.836	0.74
358.202	0.74
358.567	0.75
358.932	0.76
359.297	0.77
359.663	0.78
360.028	0.8
360.393	0.8
360.758	0.82
361.123	0.84
361.488	0.83
361.853	0.85
362.218	0.87
362.583	0.87
362.948	0.87
363.312	0.9
363.677	0.9
364.042	0.91
364.407	0.92
364.772	0.93
365.136	0.93
365.501	0.94
365.865	0.97
366.23	0.96
366.595	0.97
366.959	0.98
367.324	0.99
367.688	1
368.052	1.01
368.417	1.02
368.781	1.02
369.145	1.03
369.51	1.05
369.874	1.05
370.238	1.06
370.602	1.07
370.967	1.07
371.331	1.07
371.695	1.07
372.059	1.08
372.423	1.08
372.787	1.08
373.151	1.08
373.515	1.08
373.878	1.07
374.242	1.07
374.606	1.07
374.97	1.06
375.334	1.03
375.697	1.05
376.061	1.03
376.425	1.03
376.788	1.01
377.152	1.01
377.515	1
377.879	0.98
378.242	0.97
378.606	0.97
378.969	0.96
379.333	0.95
379.696	0.94
380.059	0.93
380.422	0.91
380.786	0.91
381.149	0.9
381.512	0.89
381.875	0.88
382.238	0.87
382.601	0.87
382.964	0.87
383.327	0.86
383.69	0.84
384.053	0.83
384.416	0.83
384.779	0.83
385.142	0.82
385.504	0.82
385.867	0.81
386.23	0.81
386.593	0.81
386.955	0.82
387.318	0.81
387.68	0.81
388.043	0.81
388.405	0.82
388.768	0.81
389.13	0.81
389.493	0.81
389.855	0.81
390.217	0.8
390.58	0.79
390.942	0.79
391.304	0.79
391.666	0.78
392.028	0.76
392.391	0.76
392.753	0.75
393.115	0.74
393.477	0.74
393.839	0.73
394.201	0.72
394.563	0.72
394.924	0.71
395.286	0.72
395.648	0.72
396.01	0.74
396.371	0.74
396.733	0.74
397.095	0.76
397.456	0.77
397.818	0.8
398.18	0.81
398.541	0.83
398.903	0.85
399.264	0.87
399.625	0.9
399.987	0.92
400.348	0.93
400.709	0.94
401.071	0.95
401.432	0.95
401.793	0.96
402.154	0.95
402.515	0.93
402.876	0.92
403.238	0.9
403.599	0.89
403.96	0.86
404.32	0.83
404.681	0.81
405.042	0.77
405.403	0.74
405.764	0.7
406.125	0.66
406.485	0.63
406.846	0.6
407.207	0.56
407.567	0.53
407.928	0.51
408.288	0.48
408.649	0.44
409.009	0.42
409.37	0.4
409.73	0.38
410.091	0.35
410.451	0.34
410.811	0.32
411.171	0.3
411.532	0.28
411.892	0.28
412.252	0.26
412.612	0.24
412.972	0.24
413.332	0.22
413.692	0.22
414.052	0.21
414.412	0.2
414.772	0.19
415.132	0.18
415.492	0.18
415.851	0.17
416.211	0.16
416.571	0.16
416.931	0.15
417.29	0.15
417.65	0.15
418.009	0.14
418.369	0.13
418.728	0.13
419.088	0.13
419.447	0.13
419.807	0.12
420.166	0.12
420.525	0.12
420.884	0.11
421.244	0.11
421.603	0.11
421.962	0.11
422.321	0.11
422.68	0.11
423.039	0.11
423.398	0.1
423.757	0.1
424.116	0.1
424.475	0.1
424.834	0.09
425.193	0.09
425.551	0.09
425.91	0.09
426.269	0.09
426.628	0.08
426.986	0.1
427.345	0.09
427.703	0.09
428.062	0.09
428.42	0.09
428.779	0.09
429.137	0.09
429.496	0.09
429.854	0.08
430.212	0.09
430.57	0.09
430.929	0.08
431.287	0.07
431.645	0.08
432.003	0.08
432.361	0.08
432.719	0.08
433.077	0.08
433.435	0.07
433.793	0.07
434.151	0.07
434.509	0.07
434.866	0.08
435.224	0.08
435.582	0.08
435.94	0.08
436.297	0.08
436.655	0.08
437.012	0.08
437.37	0.08
437.727	0.07
438.085	0.08
438.442	0.08
438.8	0.07
439.157	0.07
439.514	0.08
439.872	0.07
440.229	0.08
440.586	0.08
440.943	0.07
441.3	0.07
441.657	0.08
442.014	0.07
442.371	0.07
442.728	0.08
443.085	0.08
443.442	0.08
443.799	0.07
444.156	0.07
444.513	0.08
444.869	0.08
445.226	0.08
445.583	0.08
445.939	0.08
446.296	0.07
446.652	0.07
447.009	0.08
447.365	0.08
447.722	0.07
448.078	0.08
448.434	0.07
448.791	0.08
449.147	0.08
449.503	0.08
449.859	0.08
450.215	0.08
450.571	0.08
450.928	0.08
451.284	0.07
451.64	0.07
451.995	0.07
452.351	0.07
452.707	0.07
453.063	0.07
453.419	0.07
453.775	0.07
454.13	0.08
454.486	0.08
454.842	0.07
455.197	0.07
455.553	0.07
455.908	0.07
456.264	0.07
456.619	0.07
456.975	0.07
457.33	0.07
457.685	0.07
458.04	0.07
458.396	0.07
458.751	0.06
459.106	0.06
459.461	0.06
459.816	0.06
460.171	0.06
460.526	0.06
460.881	0.06
461.236	0.06
461.591	0.05
461.946	0.06
462.301	0.06
462.655	0.05
463.01	0.05
463.365	0.05
463.719	0.05
464.074	0.05
464.428	0.04
464.783	0.05
465.137	0.05
465.492	0.04
465.846	0.04
466.201	0.04
466.555	0.05
466.909	0.04
467.263	0.05
467.618	0.06
467.972	0.05
468.326	0.06
468.68	0.05
469.034	0.05
469.388	0.05
469.742	0.05
470.096	0.05
470.45	0.06
470.804	0.05
471.157	0.06
471.511	0.05
471.865	0.06
472.218	0.06
472.572	0.06
472.926	0.07
473.279	0.07
473.633	0.08
473.986	0.09
474.34	0.09
474.693	0.09
475.046	0.09
475.4	0.1
475.753	0.1
476.106	0.1
476.459	0.12
476.812	0.12
477.165	0.12
477.519	0.13
477.872	0.13
478.224	0.13
478.577	0.14
478.93	0.14
479.283	0.14
479.636	0.15
479.989	0.15
480.341	0.15
480.694	0.15
481.047	0.16
481.399	0.17
481.752	0.17
482.104	0.17
482.457	0.17
482.809	0.18
483.162	0.18
483.514	0.18
483.866	0.18
484.219	0.19
484.571	0.19
484.923	0.19
485.275	0.2
485.627	0.19
485.979	0.19
486.331	0.2
486.683	0.2
487.035	0.2
487.387	0.2
487.739	0.21
488.091	0.22
488.443	0.22
488.794	0.22
489.146	0.22
489.498	0.22
489.849	0.22
490.201	0.23
490.552	0.22
490.904	0.23
491.255	0.23
491.607	0.23
491.958	0.24
492.309	0.24
492.661	0.24
493.012	0.24
493.363	0.24
493.714	0.24
494.065	0.25
494.416	0.25
494.767	0.25
495.118	0.25
495.469	0.26
495.82	0.26
496.171	0.26
496.522	0.26
496.872	0.27
497.223	0.27
497.574	0.28
497.924	0.28
498.275	0.28
498.626	0.28
498.976	0.28
499.327	0.29
499.677	0.29
500.027	0.29
500.378	0.29
500.728	0.29
501.078	0.3
501.428	0.3
501.779	0.3
502.129	0.3
502.479	0.3
502.829	0.3
503.179	0.3
503.529	0.31
503.879	0.31
504.229	0.31
504.578	0.32
504.928	0.32
505.278	0.32
505.628	0.32
505.977	0.32
506.327	0.33
506.676	0.33
507.026	0.33
507.375	0.33
507.725	0.34
508.074	0.34
508.424	0.34
508.773	0.34
509.122	0.35
509.471	0.35
509.82	0.35
510.17	0.35
510.519	0.35
510.868	0.35
511.217	0.35
511.566	0.36
511.915	0.36
512.263	0.36
512.612	0.37
512.961	0.37
513.31	0.37
513.659	0.37
514.007	0.37
514.356	0.37
514.704	0.37
515.053	0.37
515.401	0.38
515.75	0.38
516.098	0.38
516.447	0.38
516.795	0.39
517.143	0.39
517.491	0.39
517.839	0.39
518.188	0.39
518.536	0.39
518.884	0.4
519.232	0.39
519.58	0.4
519.928	0.4
520.275	0.4
520.623	0.4
520.971	0.41
521.319	0.42
521.666	0.41
522.014	0.41
522.362	0.41
522.709	0.41
523.057	0.41
523.404	0.42
523.752	0.42
524.099	0.42
524.446	0.42
524.794	0.42
525.141	0.43
525.488	0.43
525.835	0.43
526.182	0.42
526.529	0.43
526.876	0.43
527.223	0.43
527.57	0.43
527.917	0.43
528.264	0.44
528.611	0.44
528.958	0.44
529.304	0.43
529.651	0.45
529.998	0.44
530.344	0.44
530.691	0.44
531.037	0.45
531.384	0.44
531.73	0.45
532.076	0.45
532.423	0.45
532.769	0.45
533.115	0.45
533.461	0.45
533.807	0.45
534.154	0.46
534.5	0.46
534.846	0.46
535.192	0.46
535.537	0.46
535.883	0.46
536.229	0.46
536.575	0.46
536.921	0.46
537.266	0.46
537.612	0.47
537.957	0.46
538.303	0.47
538.649	0.47
538.994	0.47
539.339	0.47
539.685	0.47
540.03	0.47
540.375	0.48
540.721	0.47
541.066	0.47
541.411	0.48
541.756	0.48
542.101	0.48
542.446	0.48
542.791	0.48
543.136	0.48
543.481	0.48
543.825	0.48
544.17	0.48
544.515	0.48
544.86	0.48
545.204	0.49
545.549	0.49
545.893	0.49
546.238	0.48
546.582	0.49
546.927	0.49
547.271	0.49
547.615	0.49
547.96	0.49
548.304	0.49
548.648	0.49
548.992	0.49
549.336	0.49
549.68	0.49
550.024	0.5
550.368	0.49
550.712	0.49
551.056	0.5
551.4	0.5
551.743	0.49
552.087	0.5
552.431	0.5
552.774	0.5
553.118	0.5
553.462	0.49
553.805	0.49
554.148	0.49
554.492	0.49
554.835	0.5
555.178	0.49
555.522	0.5
555.865	0.49
556.208	0.49
556.551	0.49
556.894	0.5
557.237	0.5
557.58	0.49
557.923	0.49
558.266	0.49
558.609	0.49
558.952	0.5
559.294	0.5
559.637	0.49
559.98	0.49
560.322	0.5
560.665	0.5
561.007	0.49
561.35	0.49
561.692	0.49
562.034	0.49
562.377	0.49
562.719	0.49
563.061	0.49
563.403	0.49
563.745	0.49
564.088	0.49
564.43	0.49
564.772	0.49
565.113	0.49
565.455	0.49
565.797	0.49
566.139	0.49
566.481	0.49
566.822	0.48
567.164	0.48
567.506	0.49
567.847	0.49
568.189	0.49
568.53	0.48
568.872	0.48
569.213	0.48
569.554	0.48
569.895	0.49
570.237	0.48
570.578	0.48
570.919	0.48
571.26	0.48
571.601	0.47
571.942	0.47
572.283	0.47
572.624	0.47
572.965	0.47
573.306	0.46
573.646	0.46
573.987	0.46
574.328	0.46
574.668	0.46
575.009	0.46
575.349	0.45
575.69	0.45
576.03	0.45
576.37	0.44
576.711	0.43
577.051	0.43
577.391	0.44
577.731	0.45
578.072	0.45
578.412	0.44
578.752	0.44
579.092	0.43
579.431	0.39
579.771	0.37
580.111	0.36
580.451	0.36
580.791	0.4
581.13	0.42
581.47	0.43
581.81	0.42
582.149	0.42
582.489	0.43
582.828	0.39
583.167	0.36
583.507	0.32
583.846	0.3
584.185	0.33
584.525	0.36
584.864	0.39
585.203	0.42
585.542	0.43
585.881	0.43
586.22	0.44
586.559	0.41
586.898	0.38
587.236	0.37
587.575	0.36
587.914	0.37
588.252	0.4
588.591	0.41
588.93	0.41
589.268	0.4
589.607	0.4
589.945	0.4
590.283	0.4
590.622	0.42
590.96	0.43
591.298	0.43
591.636	0.43
591.974	0.43
592.313	0.44
592.651	0.44
592.989	0.44
593.326	0.44
593.664	0.44
594.002	0.44
594.34	0.43
594.678	0.41
595.015	0.39
595.353	0.38
595.691	0.39
596.028	0.41
596.366	0.43
596.703	0.44
597.04	0.44
597.378	0.44
597.715	0.44
598.052	0.44
598.389	0.44
598.726	0.44
599.064	0.44
599.401	0.44
599.738	0.44
600.074	0.44
600.411	0.43
600.748	0.41
601.085	0.4
601.422	0.39
601.758	0.39
602.095	0.4
602.432	0.4
602.768	0.4
603.105	0.42
603.441	0.43
603.777	0.44
604.114	0.44
604.45	0.44
604.786	0.44
605.122	0.44
605.459	0.43
605.795	0.43
606.131	0.42
606.467	0.43
606.803	0.43
607.139	0.43
607.474	0.42
607.81	0.42
608.146	0.42
608.482	0.41
608.817	0.41
609.153	0.41
609.488	0.4
609.824	0.41
610.159	0.41
610.495	0.42
610.83	0.42
611.165	0.42
611.5	0.42
611.836	0.42
612.171	0.41
612.506	0.41
612.841	0.42
613.176	0.41
613.511	0.41
613.845	0.41
614.18	0.41
614.515	0.41
614.85	0.41
615.184	0.41
615.519	0.41
615.854	0.4
616.188	0.4
616.523	0.4
616.857	0.39
617.191	0.39
617.526	0.39
617.86	0.39
618.194	0.39
618.528	0.39
618.862	0.39
619.196	0.39
619.53	0.39
619.864	0.39
620.198	0.39
620.532	0.39
620.866	0.39
621.2	0.39
621.533	0.38
621.867	0.39
622.201	0.38
622.534	0.38
622.868	0.38
623.201	0.38
623.534	0.38
623.868	0.37
624.201	0.37
624.534	0.37
624.868	0.37
625.201	0.37
625.534	0.37
625.867	0.36
626.2	0.36
626.533	0.36
626.865	0.36
627.198	0.36
627.531	0.36
627.864	0.35
628.196	0.35
628.529	0.35
628.862	0.35
629.194	0.34
629.527	0.34
629.859	0.34
630.191	0.34
630.524	0.34
630.856	0.34
631.188	0.34
631.52	0.33
631.852	0.33
632.184	0.33
632.516	0.32
632.848	0.33
633.18	0.32
633.512	0.32
633.844	0.32
634.175	0.32
634.507	0.32
634.839	0.32
635.17	0.31
635.502	0.31
635.833	0.31
636.165	0.31
636.496	0.3
636.827	0.3
637.159	0.3
637.49	0.3
637.821	0.29
638.152	0.29
638.483	0.29
638.814	0.29
639.145	0.28
639.476	0.28
639.807	0.28
640.137	0.28
640.468	0.28
640.799	0.28
641.129	0.27
641.46	0.27
641.791	0.27
642.121	0.27
642.451	0.27
642.782	0.27
643.112	0.27
643.442	0.27
643.773	0.27
644.103	0.26
644.433	0.26
644.763	0.25
645.093	0.26
645.423	0.25
645.753	0.25
646.082	0.25
646.412	0.25
646.742	0.25
647.072	0.25
647.401	0.25
647.731	0.24
648.06	0.24
648.39	0.24
648.719	0.24
649.048	0.24
649.378	0.24
649.707	0.24
650.036	0.24
650.365	0.24
650.694	0.23
651.023	0.23
651.352	0.23
651.681	0.23
652.01	0.23
652.339	0.23
652.668	0.23
652.996	0.23
653.325	0.23
653.654	0.23
653.982	0.23
654.311	0.23
654.639	0.23
654.967	0.23
655.296	0.22
655.624	0.22
655.952	0.22
656.28	0.22
656.609	0.22
656.937	0.22
657.265	0.21
657.593	0.06
657.92	0
658.248	0
658.576	0
658.904	0.03
659.231	0.11
659.559	0.18
659.887	0.21
660.214	0.21
660.542	0.22
660.869	0.21
661.196	0.21
661.524	0.21
661.851	0.21
662.178	0.21
662.505	0.21
662.832	0.2
663.159	0.21
663.486	0.2
663.813	0.2
664.14	0.21
664.467	0.2
664.794	0.21
665.12	0.2
665.447	0.2
665.774	0.2
666.1	0.2
666.427	0.2
666.753	0.2
667.079	0.2
667.406	0.2
667.732	0.19
668.058	0.19
668.384	0.19
668.71	0.19
669.036	0.19
669.362	0.19
669.688	0.19
670.014	0.19
670.34	0.19
670.666	0.18
670.991	0.18
671.317	0.18
671.643	0.18
671.968	0.17
672.294	0.17
672.619	0.17
672.945	0.17
673.27	0.17
673.595	0.16
673.92	0.16
674.246	0.15
674.571	0.15
674.896	0.16
675.221	0.16
675.546	0.16
675.87	0.16
676.195	0.16
676.52	0.16
676.845	0.15
677.169	0.15
677.494	0.15
677.819	0.15
678.143	0.14
678.468	0.14
678.792	0.14
679.116	0.14
679.44	0.14
679.765	0.13
680.089	0.13
680.413	0.12
680.737	0.12
681.061	0.12
681.385	0.12
681.709	0.11
682.033	0.11
682.356	0.11
682.68	0.11
683.004	0.11
683.327	0.1
683.651	0.1
683.974	0.1
684.298	0.11
684.621	0.11
684.944	0.1
685.268	0.1
685.591	0.1
685.914	0.09
686.237	0.08
686.56	0.08
686.883	0.07
687.206	0.06
687.529	0.06
687.852	0.06
688.175	0.06
688.497	0.07
688.82	0.07
689.142	0.06
689.465	0.06
689.787	0.07
690.11	0.07
690.432	0.06
690.755	0.06
691.077	0.06
691.399	0.05
691.721	0.05
692.043	0.05
692.365	0.05
692.687	0.05
693.009	0.04
693.331	0.04
693.653	0.04
693.974	0.04
694.296	0.04
694.618	0.04
694.939	0.04
695.261	0.03
695.582	0.03
695.904	0.03
696.225	0.04
696.546	0.04
696.868	0.04
697.189	0.03
697.51	0.03
697.831	0.03
698.152	0.03
698.473	0.03
698.794	0.02
699.114	0.02
699.435	0.01
699.756	0.01
700.077	0.01
700.397	0.02
700.718	0.02
701.038	0.03
701.359	0.02
701.679	0.02
701.999	0.03
702.32	0.02
702.64	0.02
702.96	0.02
703.28	0.03
703.6	0.03
703.92	0.02
704.24	0.02
704.56	0.01
704.879	0.01
705.199	0.02
705.519	0.01
705.838	0.01
706.158	0.02
706.478	0.01
706.797	0.02
707.116	0.02
707.436	0.02
707.755	0.02
708.074	0.02
708.393	0.01
708.712	0.01
709.031	0
709.35	0
709.669	0
709.988	0
710.307	0
710.626	0
710.944	0.01
711.263	0.01
711.582	0.01
711.9	0.01
712.219	0.01
712.537	0.01
712.855	0.01
713.174	0.01
713.492	0.01
713.81	0.01
714.128	0.01
714.446	0.01
714.764	0.01
715.082	0
715.4	0
715.718	0
716.035	0
716.353	0.01
716.671	0.01
716.988	0.01
717.306	0
717.623	0.01
717.941	0.01
718.258	0.01
718.575	0.02
718.893	0.02
719.21	0.01
719.527	0.02
719.844	0.01
720.161	0.01
720.478	0.01
720.795	0.01
721.112	0.01
721.428	0.01
721.745	0.02
722.062	0.01
722.378	0.02
722.695	0.02
723.011	0.02
723.328	0.02
723.644	0.02
723.96	0.02
724.276	0.02
724.593	0.02
724.909	0.03
725.225	0.02
725.541	0.03
725.857	0.03
726.173	0.02
726.488	0.03
726.804	0.02
727.12	0.02
727.435	0.02
727.751	0.03
728.067	0.02
728.382	0.03
728.697	0.02
729.013	0.03
729.328	0.02
729.643	0.03
729.958	0.02
730.273	0.03
730.588	0.02
730.903	0.03
731.218	0.03
731.533	0.03
731.848	0.02
732.163	0.02
732.477	0.02
732.792	0.02
733.107	0.01
733.421	0.02
733.736	0.02
734.05	0.02
734.364	0.02
734.678	0.03
734.993	0.02
735.307	0.02
735.621	0.01
735.935	0.02
736.249	0.02
736.563	0.02
736.877	0.02
737.19	0.02
737.504	0.02
737.818	0.02
738.131	0.02
738.445	0.03
738.758	0.03
739.072	0.03
739.385	0.03
739.698	0.03
740.012	0.03
740.325	0.03
740.638	0.03
740.951	0.03
741.264	0.02
741.577	0.03
741.89	0.04
742.203	0.04
742.515	0.04
742.828	0.04
743.141	0.04
743.453	0.04
743.766	0.04
744.078	0.04
744.391	0.03
744.703	0.04
745.015	0.04
745.327	0.03
745.639	0.03
745.952	0.03
746.264	0.03
746.575	0.03
746.887	0.03
747.199	0.03
747.511	0.03
747.823	0.03
748.134	0.03
748.446	0.03
748.757	0.03
749.069	0.03
749.38	0.03
749.692	0.03
750.003	0.03
750.314	0.03
750.625	0.02
750.936	0.02
751.248	0.02
751.559	0.02
751.869	0.01
752.18	0.02
752.491	0.01
752.802	0.02
753.112	0.02
753.423	0.01
753.734	0.02
754.044	0.01
754.355	0.02
754.665	0.02
754.975	0.01
755.285	0.01
755.596	0.01
755.906	0.01
756.216	0.01
756.526	0.01
756.836	0.01
757.146	0.01
757.455	0.01
757.765	0.01
758.075	0
758.385	0
758.694	0
759.004	0
759.313	0
759.622	0
759.932	0
760.241	0
760.55	0.01
760.859	0.01
761.168	0.01
761.477	0.01
761.786	0.01
762.095	0.01
762.404	0
762.713	0.01
763.021	0.01
763.33	0.01
763.639	0.01
763.947	0.01
764.256	0.01
764.564	0.01
764.872	0.01
765.181	0.01
765.489	0.01
765.797	0.01
766.105	0.01
766.413	0.01
766.721	0.01
767.029	0.01
767.337	0.01
767.644	0.01
767.952	0.02
768.26	0.02
768.567	0.02
768.875	0.02
769.182	0.02
769.49	0.02
769.797	0.02
770.104	0.02
770.411	0.02
770.718	0.02
771.026	0.03
771.333	0.03
771.639	0.03
771.946	0.02
772.253	0.02
772.56	0.03
772.867	0.03
773.173	0.03
773.48	0.03
773.786	0.03
774.093	0.03
774.399	0.03
774.705	0.03
775.012	0.03
775.318	0.03
775.624	0.03
775.93	0.03
776.236	0.03
776.542	0.02
776.848	0.02
777.154	0.03
777.459	0.02
777.765	0.03
778.071	0.02
778.376	0.02
778.682	0.02
778.987	0.02
779.292	0.03
779.598	0.03
779.903	0.03
780.208	0.03
780.513	0.02
780.818	0.02
781.123	0.03
781.428	0.03
781.733	0.03
782.038	0.03
782.343	0.03
782.647	0.03
782.952	0.03
783.256	0.03
783.561	0.03
783.865	0.03
784.17	0.03
784.474	0.03
784.778	0.03
785.082	0.03
785.386	0.03
785.69	0.03
785.994	0.03
786.298	0.03
786.602	0.03
786.906	0.03
787.209	0.03
787.513	0.03
787.817	0.03
788.12	0.02
788.424	0.03
788.727	0.03
789.03	0.02
789.333	0.02
789.637	0.02
789.94	0.02
790.243	0.03
790.546	0.03
790.849	0.03
791.152	0.03
791.454	0.03
791.757	0.03
792.06	0.03
792.362	0.03
792.665	0.03
792.967	0.03
793.27	0.02
793.572	0.03
793.874	0.02
794.177	0.02
794.479	0.02
794.781	0.03
795.083	0.03
795.385	0.03
795.687	0.03
795.989	0.03
796.29	0.04
796.592	0.03
796.894	0.04
797.195	0.04
797.497	0.04
797.798	0.04
798.1	0.04
798.401	0.03
798.702	0.04
799.003	0.04
799.304	0.04
799.605	0.04
799.906	0.03
800.207	0.03
800.508	0.03
800.809	0.04
801.11	0.04
801.41	0.04
801.711	0.04
802.011	0.04
802.312	0.04
802.612	0.03
802.913	0.03
803.213	0.03
803.513	0.03
803.813	0.03
804.113	0.03
804.413	0.03
804.713	0.03
805.013	0.03
805.313	0.04
805.613	0.03
805.912	0.04
806.212	0.04
806.511	0.04
806.811	0.04
807.11	0.03
807.41	0.03
807.709	0.04
808.008	0.03
808.307	0.04
808.606	0.03
808.905	0.04
809.204	0.04
809.503	0.03
809.802	0.03
810.101	0.03
810.399	0.04
810.698	0.03
810.997	0.03
811.295	0.03
811.593	0.04
811.892	0.04
812.19	0.03
812.488	0.04
812.786	0.03
813.084	0.03
813.383	0.03
813.68	0.03
813.978	0.04
814.276	0.04
814.574	0.04
814.872	0.04
815.169	0.04
815.467	0.04
815.764	0.04
816.062	0.05
816.359	0.05
816.656	0.04
816.954	0.04
817.251	0.05
817.548	0.04
817.845	0.05
818.142	0.04
818.439	0.05
818.735	0.04
819.032	0.04
819.329	0.04
819.626	0.04
819.922	0.05
820.219	0.04
820.515	0.05
820.811	0.05
821.108	0.05
821.404	0.05
821.7	0.05
821.996	0.05
822.292	0.05
822.588	0.05
822.884	0.05
823.18	0.05
823.475	0.05
823.771	0.05
824.067	0.05
824.362	0.05
824.658	0.06
824.953	0.05
825.249	0.04
825.544	0.04
825.839	0.04
826.134	0.05
826.429	0.04
826.724	0.05
827.019	0.04
827.314	0.05
827.609	0.05
827.904	0.05
828.198	0.05
828.493	0.05
828.787	0.05
829.082	0.05
829.376	0.05
829.671	0.05
829.965	0.05
830.259	0.05
830.553	0.05
830.847	0.06
831.141	0.06
831.435	0.05
831.729	0.05
832.023	0.05
832.317	0.05
832.61	0.05
832.904	0.05
833.197	0.06
833.491	0.05
833.784	0.05
834.077	0.05
834.371	0.05
834.664	0.06
834.957	0.06
835.25	0.06
835.543	0.06
835.836	0.06
836.129	0.06
836.421	0.06
836.714	0.06
837.007	0.06
837.299	0.06
837.592	0.06
837.884	0.07
838.177	0.05
838.469	0.05
838.761	0.06
839.053	0.06
839.345	0.06
839.637	0.06
839.929	0.05
840.221	0.05
840.513	0.06
840.805	0.06
841.096	0.05
841.388	0.06
841.68	0.06
841.971	0.06
842.262	0.06
842.554	0.06
842.845	0.06
843.136	0.05
843.427	0.05
843.718	0.05
844.009	0.06
844.3	0.06
844.591	0.07
844.882	0.06
845.173	0.06
845.463	0.06
845.754	0.07
846.044	0.06
846.335	0.06
846.625	0.06
846.915	0.06
847.206	0.06
847.496	0.06
847.786	0.06
848.076	0.07
848.366	0.06
848.656	0.06
848.945	0.06
849.235	0.06
849.525	0.07
849.814	0.07
850.104	0.06
850.393	0.06
850.683	0.07
850.972	0.06
851.261	0.06
851.551	0.06
851.84	0.06
852.129	0.06
852.418	0.07
852.707	0.07
852.995	0.06
853.284	0.06
853.573	0.06
853.862	0.07
854.15	0.07
854.439	0.07
854.727	0.07
855.015	0.07
855.304	0.07
855.592	0.08
855.88	0.07
856.168	0.07
856.456	0.08
856.744	0.07
857.032	0.08
857.32	0.09
857.607	0.07
857.895	0.08
858.183	0.08
858.47	0.07
858.757	0.07
859.045	0.07
859.332	0.08
859.619	0.09
859.907	0.09
860.194	0.1
860.481	0.07
860.768	0.1
861.054	0.08
861.341	0.08
861.628	0.08
861.915	0.08
862.201	0.08
862.488	0.07
862.774	0.07
863.061	0.09
863.347	0.08
863.633	0.07
863.919	0.08
864.205	0.08
864.491	0.07
864.777	0.07
865.063	0.07
865.349	0.07
865.635	0.05
865.92	0.05
866.206	0.05
866.492	0.07
866.777	0.09
867.062	0.06
867.348	0.06
867.633	0.06
867.918	0.07
868.203	0.08
868.488	0.07
868.773	0.08
869.058	0.09
869.343	0.05
869.628	0.06
869.912	0.07
870.197	0.06
870.482	0.06
870.766	0.07
871.05	0.05
871.335	0.03
871.619	0.04
871.903	0.04
872.187	0.07
872.471	0.08
872.755	0.07
873.039	0.01
873.323	0.06
873.607	0.07
873.89	0.05
874.174	0.03
874.458	0.04
874.741	0.07
875.024	0.04
875.308	0.05
875.591	0
875.874	0.07
876.157	0.1
876.44	0.09
876.723	0.07
877.006	0.05
877.289	0.04
877.572	0.01
877.854	0.07
878.137	0.03
878.42	0.01
878.702	0.05
878.984	-0.03
879.267	-0.02
879.549	0.03
879.831	0.08
880.113	0.02
880.395	-0.05
880.677	-0.03
880.959	0
