Data from Rubpy_BV_600_EDTA_Buffered_Absorbance_12-46-52-612.txt Node
Date: Wed Jul 01 12:46:52 BST 2026
User: fpm-admin
Spectrometer: OFX00224
Trigger mode: 0
Integration Time (sec): 7.000000E-2
Scans to average: 3
Nonlinearity correction enabled: false
Boxcar width: 0
Storing dark spectrum: false
XAxis mode: Wavelengths
Number of Pixels in Spectrum: 2136
>>>>>Begin Spectral Data<<<<<
154.91	0.88
155.289	-0.13
155.669	-0.07
156.048	-0.6
156.428	-0
156.807	0.4
157.186	0.09
157.566	-0
157.945	-0
158.325	-0.2
158.704	-0
159.083	-0.52
159.462	-0
159.842	0.32
160.221	0.05
160.6	-0.03
160.979	0.27
161.359	0.14
161.738	-0.43
162.117	-0
162.496	-0
162.875	-0
163.254	-0
163.633	-0.12
164.012	0.36
164.391	-0.27
164.77	0.31
165.149	-0.18
165.528	-0
165.907	-0.48
166.286	0.35
166.665	-0
167.044	-0
167.423	-0
167.802	-0
168.181	-0.11
168.559	-0.12
168.938	-0
169.317	-0.12
169.696	-1.16
170.074	0.41
170.453	0.3
170.832	0.39
171.21	-0.87
171.589	-0
171.968	-0
172.346	0.01
172.725	-0.6
173.103	-0.08
173.482	0.51
173.861	-0
174.239	-0.6
174.617	-0.03
174.996	0.24
175.374	-0
175.753	-0
176.131	0.32
176.51	-0
176.888	-0
177.266	-0
177.645	-0.04
178.023	0.93
178.401	-0.33
178.779	0.03
179.158	-0.03
179.536	-0
179.914	-0.47
180.292	-0
180.67	-0.16
181.048	0.25
181.427	0.1
181.805	0.75
182.183	-0.15
182.561	-0
182.939	0.31
183.317	0.31
183.695	-0
184.073	-0
184.451	-0
184.829	0.13
185.206	-0.18
185.584	0.52
185.962	-0
186.34	-0.56
186.718	-1.02
187.096	-0
187.473	-0
187.851	-0.26
188.229	-0.54
188.607	-0.06
188.984	0.03
189.362	0.06
189.74	0.07
190.117	0.04
190.495	0.12
190.872	0.08
191.25	-0.01
191.627	0.08
192.005	0.14
192.382	0.08
192.76	0.12
193.137	0.12
193.515	-0.08
193.892	0.2
194.269	0.13
194.647	0.1
195.024	0.02
195.401	0.1
195.779	0.02
196.156	0.02
196.533	0.19
196.91	0.13
197.288	0.06
197.665	0.06
198.042	0.08
198.419	0.1
198.796	-0.01
199.173	0.1
199.55	0.02
199.927	0.14
200.304	0.03
200.681	0.13
201.058	-0.06
201.435	0.01
201.812	0.13
202.189	0.13
202.566	0.06
202.943	0.08
203.32	0.02
203.697	0.02
204.073	0.04
204.45	0.01
204.827	0.11
205.204	-0.04
205.58	0.1
205.957	-0.02
206.334	0.09
206.71	0.21
207.087	0
207.464	0.13
207.84	0.11
208.217	0.05
208.593	0.13
208.97	0.11
209.346	0.12
209.723	-0.02
210.099	0.1
210.476	0.04
210.852	0.06
211.228	0.15
211.605	0.06
211.981	0.23
212.357	0.05
212.733	0.03
213.11	0.21
213.486	0.06
213.862	0.08
214.238	0.1
214.614	0.06
214.991	0.12
215.367	0.09
215.743	0.12
216.119	0.09
216.495	0.23
216.871	0.07
217.247	0.09
217.623	0.14
217.999	0.08
218.375	0.04
218.751	0.14
219.127	0.07
219.502	0.11
219.878	0.1
220.254	0.08
220.63	0.1
221.006	0
221.381	0.12
221.757	0.14
222.133	0.1
222.508	0.04
222.884	0.09
223.26	0.19
223.635	0.17
224.011	0.03
224.386	0.13
224.762	0.2
225.137	0.17
225.513	0.02
225.888	0.11
226.264	0.08
226.639	0.11
227.014	0.14
227.39	0.13
227.765	0.1
228.14	0.16
228.516	0.25
228.891	0.16
229.266	0.11
229.641	0.1
230.017	0.08
230.392	0.11
230.767	0.14
231.142	0.13
231.517	0.11
231.892	0.18
232.267	0.18
232.642	0.07
233.017	0.1
233.392	0.08
233.767	0.12
234.142	0.07
234.517	0.04
234.892	0.16
235.267	0.06
235.641	0.13
236.016	0.08
236.391	0.17
236.766	0.08
237.14	0.08
237.515	0.1
237.89	0.02
238.264	0.08
238.639	0.03
239.014	0.15
239.388	0.07
239.763	0.09
240.137	0.17
240.512	0.09
240.886	-0.03
241.261	0.17
241.635	0.17
242.009	0.12
242.384	0.07
242.758	0.07
243.132	0.11
243.507	0.14
243.881	0.02
244.255	0.07
244.629	0.09
245.004	0.09
245.378	0.13
245.752	0.06
246.126	0.07
246.5	0.08
246.874	0.1
247.248	0.08
247.622	0.12
247.996	0.09
248.37	0.16
248.744	0.14
249.118	0.07
249.492	0.15
249.866	0.14
250.24	0.12
250.613	0.16
250.987	0.17
251.361	0.1
251.735	0.09
252.108	0.16
252.482	0.16
252.856	0.09
253.229	0.1
253.603	0.06
253.977	0.13
254.35	0.16
254.724	0.16
255.097	0.18
255.471	0.11
255.844	0.15
256.218	0.02
256.591	0.08
256.964	0.16
257.338	0.09
257.711	0.11
258.084	0.13
258.458	0.09
258.831	0.1
259.204	0.14
259.577	0.17
259.95	0.1
260.323	0.13
260.697	0.12
261.07	0.09
261.443	0.07
261.816	0.15
262.189	0.11
262.562	0.14
262.935	0.04
263.308	0.08
263.68	0.13
264.053	0.11
264.426	0.1
264.799	0.14
265.172	0.08
265.545	0.17
265.917	0.17
266.29	0.11
266.663	0.15
267.035	0.13
267.408	0.1
267.781	0.11
268.153	0.18
268.526	0.13
268.898	0.14
269.271	0.16
269.643	0.11
270.016	0.15
270.388	0.13
270.76	0.11
271.133	0.17
271.505	0.18
271.877	0.13
272.25	0.15
272.622	0.26
272.994	0.17
273.366	0.2
273.739	0.11
274.111	0.17
274.483	0.17
274.855	0.15
275.227	0.12
275.599	0.12
275.971	0.08
276.343	0.15
276.715	0.15
277.087	0.15
277.459	0.05
277.831	0.13
278.203	0.12
278.574	0.08
278.946	0.08
279.318	0.17
279.69	0.14
280.061	0.1
280.433	0.11
280.805	0.15
281.176	0.2
281.548	0.18
281.92	0.22
282.291	0.09
282.663	0.12
283.034	0.17
283.406	0.13
283.777	0.2
284.148	0.2
284.52	0.13
284.891	0.1
285.262	0.12
285.634	0.16
286.005	0.13
286.376	0.15
286.747	0.12
287.119	0.15
287.49	0.18
287.861	0.07
288.232	0.13
288.603	0.1
288.974	0.11
289.345	0.18
289.716	0.16
290.087	0.15
290.458	0.09
290.829	0.1
291.2	0.1
291.571	0.1
291.941	0.15
292.312	0.18
292.683	0.11
293.054	0.16
293.424	0.16
293.795	0.12
294.166	0.17
294.536	0.13
294.907	0.15
295.277	0.18
295.648	0.12
296.018	0.15
296.389	0.17
296.759	0.17
297.13	0.1
297.5	0.14
297.871	0.16
298.241	0.12
298.611	0.07
298.981	0.09
299.352	0.12
299.722	0.14
300.092	0.13
300.462	0.1
300.832	0.1
301.202	0.14
301.573	0.11
301.943	0.11
302.313	0.07
302.683	0.11
303.053	0.1
303.422	0.1
303.792	0.12
304.162	0.08
304.532	0.07
304.902	0.05
305.272	0.09
305.641	0.09
306.011	0.06
306.381	0.07
306.75	0.07
307.12	0.07
307.49	0.07
307.859	0.08
308.229	0.09
308.598	0.09
308.968	0.07
309.337	0.09
309.707	0.08
310.076	0.09
310.445	0.08
310.815	0.1
311.184	0.09
311.553	0.11
311.923	0.11
312.292	0.11
312.661	0.11
313.03	0.11
313.399	0.11
313.768	0.11
314.137	0.12
314.506	0.11
314.875	0.12
315.244	0.13
315.613	0.13
315.982	0.13
316.351	0.14
316.72	0.13
317.089	0.14
317.458	0.13
317.826	0.14
318.195	0.15
318.564	0.15
318.933	0.14
319.301	0.15
319.67	0.16
320.038	0.16
320.407	0.15
320.775	0.16
321.144	0.17
321.512	0.16
321.881	0.17
322.249	0.17
322.618	0.17
322.986	0.16
323.354	0.17
323.723	0.18
324.091	0.18
324.459	0.17
324.827	0.19
325.195	0.18
325.564	0.19
325.932	0.19
326.3	0.2
326.668	0.2
327.036	0.19
327.404	0.2
327.772	0.2
328.14	0.21
328.508	0.21
328.875	0.22
329.243	0.22
329.611	0.23
329.979	0.22
330.346	0.23
330.714	0.23
331.082	0.23
331.449	0.24
331.817	0.24
332.185	0.25
332.552	0.24
332.92	0.25
333.287	0.26
333.655	0.26
334.022	0.27
334.389	0.27
334.757	0.28
335.124	0.28
335.491	0.29
335.859	0.29
336.226	0.3
336.593	0.3
336.96	0.31
337.327	0.32
337.695	0.33
338.062	0.33
338.429	0.33
338.796	0.34
339.163	0.35
339.53	0.35
339.897	0.36
340.263	0.36
340.63	0.36
340.997	0.37
341.364	0.38
341.731	0.39
342.097	0.39
342.464	0.4
342.831	0.4
343.197	0.41
343.564	0.43
343.931	0.43
344.297	0.43
344.664	0.44
345.03	0.45
345.396	0.45
345.763	0.46
346.129	0.47
346.496	0.47
346.862	0.49
347.228	0.49
347.594	0.49
347.961	0.49
348.327	0.51
348.693	0.52
349.059	0.52
349.425	0.52
349.791	0.53
350.157	0.54
350.523	0.55
350.889	0.55
351.255	0.55
351.621	0.56
351.987	0.57
352.353	0.58
352.719	0.58
353.084	0.6
353.45	0.59
353.816	0.61
354.181	0.61
354.547	0.62
354.913	0.63
355.278	0.63
355.644	0.64
356.009	0.65
356.375	0.66
356.74	0.67
357.106	0.68
357.471	0.69
357.836	0.69
358.202	0.7
358.567	0.71
358.932	0.72
359.297	0.71
359.663	0.74
360.028	0.76
360.393	0.76
360.758	0.77
361.123	0.79
361.488	0.79
361.853	0.8
362.218	0.82
362.583	0.83
362.948	0.83
363.312	0.84
363.677	0.85
364.042	0.85
364.407	0.88
364.772	0.87
365.136	0.9
365.501	0.9
365.865	0.91
366.23	0.91
366.595	0.93
366.959	0.93
367.324	0.94
367.688	0.96
368.052	0.96
368.417	0.96
368.781	0.97
369.145	0.98
369.51	1
369.874	1
370.238	1
370.602	1.01
370.967	1.02
371.331	1.03
371.695	1.03
372.059	1.02
372.423	1.03
372.787	1.03
373.151	1.03
373.515	1.02
373.878	1.03
374.242	1.02
374.606	1.02
374.97	1.01
375.334	1
375.697	1
376.061	0.99
376.425	0.99
376.788	0.96
377.152	0.95
377.515	0.95
377.879	0.94
378.242	0.93
378.606	0.92
378.969	0.92
379.333	0.89
379.696	0.89
380.059	0.88
380.422	0.88
380.786	0.87
381.149	0.85
381.512	0.85
381.875	0.84
382.238	0.83
382.601	0.82
382.964	0.82
383.327	0.81
383.69	0.81
384.053	0.8
384.416	0.8
384.779	0.79
385.142	0.79
385.504	0.78
385.867	0.78
386.23	0.78
386.593	0.78
386.955	0.78
387.318	0.77
387.68	0.78
388.043	0.77
388.405	0.78
388.768	0.78
389.13	0.78
389.493	0.77
389.855	0.78
390.217	0.78
390.58	0.76
390.942	0.75
391.304	0.75
391.666	0.74
392.028	0.74
392.391	0.73
392.753	0.72
393.115	0.71
393.477	0.71
393.839	0.7
394.201	0.7
394.563	0.69
394.924	0.68
395.286	0.69
395.648	0.7
396.01	0.7
396.371	0.7
396.733	0.72
397.095	0.74
397.456	0.74
397.818	0.77
398.18	0.78
398.541	0.8
398.903	0.82
399.264	0.83
399.625	0.86
399.987	0.88
400.348	0.9
400.709	0.91
401.071	0.92
401.432	0.92
401.793	0.92
402.154	0.91
402.515	0.91
402.876	0.89
403.238	0.87
403.599	0.85
403.96	0.82
404.32	0.8
404.681	0.77
405.042	0.74
405.403	0.71
405.764	0.67
406.125	0.65
406.485	0.61
406.846	0.58
407.207	0.55
407.567	0.52
407.928	0.49
408.288	0.46
408.649	0.44
409.009	0.41
409.37	0.38
409.73	0.37
410.091	0.34
410.451	0.32
410.811	0.31
411.171	0.29
411.532	0.27
411.892	0.27
412.252	0.25
412.612	0.24
412.972	0.23
413.332	0.22
413.692	0.21
414.052	0.2
414.412	0.19
414.772	0.18
415.132	0.18
415.492	0.17
415.851	0.16
416.211	0.16
416.571	0.15
416.931	0.15
417.29	0.15
417.65	0.14
418.009	0.13
418.369	0.13
418.728	0.13
419.088	0.12
419.447	0.12
419.807	0.12
420.166	0.12
420.525	0.12
420.884	0.11
421.244	0.11
421.603	0.11
421.962	0.1
422.321	0.1
422.68	0.1
423.039	0.1
423.398	0.1
423.757	0.09
424.116	0.1
424.475	0.1
424.834	0.09
425.193	0.09
425.551	0.08
425.91	0.09
426.269	0.09
426.628	0.08
426.986	0.09
427.345	0.09
427.703	0.08
428.062	0.08
428.42	0.08
428.779	0.08
429.137	0.08
429.496	0.08
429.854	0.08
430.212	0.07
430.57	0.08
430.929	0.08
431.287	0.07
431.645	0.08
432.003	0.08
432.361	0.07
432.719	0.08
433.077	0.08
433.435	0.07
433.793	0.08
434.151	0.08
434.509	0.08
434.866	0.07
435.224	0.07
435.582	0.07
435.94	0.08
436.297	0.07
436.655	0.08
437.012	0.08
437.37	0.07
437.727	0.07
438.085	0.08
438.442	0.07
438.8	0.07
439.157	0.07
439.514	0.06
439.872	0.08
440.229	0.07
440.586	0.07
440.943	0.07
441.3	0.08
441.657	0.07
442.014	0.07
442.371	0.07
442.728	0.07
443.085	0.07
443.442	0.07
443.799	0.07
444.156	0.07
444.513	0.07
444.869	0.08
445.226	0.06
445.583	0.07
445.939	0.08
446.296	0.06
446.652	0.07
447.009	0.07
447.365	0.07
447.722	0.06
448.078	0.07
448.434	0.06
448.791	0.08
449.147	0.07
449.503	0.07
449.859	0.08
450.215	0.07
450.571	0.07
450.928	0.08
451.284	0.07
451.64	0.07
451.995	0.07
452.351	0.07
452.707	0.07
453.063	0.07
453.419	0.07
453.775	0.07
454.13	0.07
454.486	0.07
454.842	0.07
455.197	0.06
455.553	0.06
455.908	0.06
456.264	0.07
456.619	0.06
456.975	0.06
457.33	0.06
457.685	0.06
458.04	0.06
458.396	0.06
458.751	0.05
459.106	0.05
459.461	0.06
459.816	0.05
460.171	0.05
460.526	0.05
460.881	0.05
461.236	0.04
461.591	0.04
461.946	0.05
462.301	0.05
462.655	0.05
463.01	0.05
463.365	0.04
463.719	0.03
464.074	0.04
464.428	0.04
464.783	0.04
465.137	0.04
465.492	0.03
465.846	0.03
466.201	0.03
466.555	0.04
466.909	0.04
467.263	0.04
467.618	0.04
467.972	0.05
468.326	0.05
468.68	0.04
469.034	0.04
469.388	0.04
469.742	0.04
470.096	0.04
470.45	0.04
470.804	0.05
471.157	0.04
471.511	0.04
471.865	0.06
472.218	0.05
472.572	0.05
472.926	0.06
473.279	0.07
473.633	0.06
473.986	0.07
474.34	0.08
474.693	0.08
475.046	0.08
475.4	0.08
475.753	0.09
476.106	0.1
476.459	0.11
476.812	0.11
477.165	0.11
477.519	0.12
477.872	0.11
478.224	0.12
478.577	0.13
478.93	0.13
479.283	0.13
479.636	0.13
479.989	0.14
480.341	0.15
480.694	0.15
481.047	0.15
481.399	0.15
481.752	0.16
482.104	0.16
482.457	0.16
482.809	0.16
483.162	0.17
483.514	0.17
483.866	0.18
484.219	0.18
484.571	0.18
484.923	0.18
485.275	0.19
485.627	0.18
485.979	0.19
486.331	0.19
486.683	0.19
487.035	0.2
487.387	0.19
487.739	0.2
488.091	0.2
488.443	0.21
488.794	0.2
489.146	0.21
489.498	0.21
489.849	0.21
490.201	0.22
490.552	0.21
490.904	0.22
491.255	0.22
491.607	0.23
491.958	0.22
492.309	0.22
492.661	0.23
493.012	0.23
493.363	0.23
493.714	0.24
494.065	0.23
494.416	0.24
494.767	0.24
495.118	0.24
495.469	0.25
495.82	0.25
496.171	0.25
496.522	0.25
496.872	0.25
497.223	0.26
497.574	0.26
497.924	0.26
498.275	0.26
498.626	0.27
498.976	0.27
499.327	0.27
499.677	0.27
500.027	0.28
500.378	0.27
500.728	0.28
501.078	0.28
501.428	0.28
501.779	0.29
502.129	0.28
502.479	0.29
502.829	0.29
503.179	0.29
503.529	0.3
503.879	0.29
504.229	0.3
504.578	0.3
504.928	0.3
505.278	0.3
505.628	0.3
505.977	0.31
506.327	0.31
506.676	0.31
507.026	0.31
507.375	0.32
507.725	0.32
508.074	0.32
508.424	0.32
508.773	0.32
509.122	0.33
509.471	0.32
509.82	0.33
510.17	0.33
510.519	0.33
510.868	0.33
511.217	0.34
511.566	0.34
511.915	0.34
512.263	0.34
512.612	0.35
512.961	0.35
513.31	0.34
513.659	0.35
514.007	0.35
514.356	0.35
514.704	0.35
515.053	0.36
515.401	0.36
515.75	0.36
516.098	0.36
516.447	0.37
516.795	0.36
517.143	0.37
517.491	0.37
517.839	0.37
518.188	0.37
518.536	0.37
518.884	0.37
519.232	0.38
519.58	0.38
519.928	0.38
520.275	0.38
520.623	0.38
520.971	0.39
521.319	0.39
521.666	0.39
522.014	0.38
522.362	0.39
522.709	0.39
523.057	0.4
523.404	0.39
523.752	0.39
524.099	0.4
524.446	0.4
524.794	0.4
525.141	0.4
525.488	0.4
525.835	0.4
526.182	0.4
526.529	0.41
526.876	0.41
527.223	0.41
527.57	0.41
527.917	0.41
528.264	0.42
528.611	0.42
528.958	0.41
529.304	0.41
529.651	0.42
529.998	0.42
530.344	0.43
530.691	0.42
531.037	0.43
531.384	0.42
531.73	0.43
532.076	0.43
532.423	0.43
532.769	0.43
533.115	0.43
533.461	0.43
533.807	0.43
534.154	0.43
534.5	0.43
534.846	0.43
535.192	0.44
535.537	0.44
535.883	0.44
536.229	0.44
536.575	0.44
536.921	0.44
537.266	0.44
537.612	0.44
537.957	0.44
538.303	0.44
538.649	0.45
538.994	0.45
539.339	0.45
539.685	0.44
540.03	0.45
540.375	0.45
540.721	0.45
541.066	0.45
541.411	0.46
541.756	0.45
542.101	0.45
542.446	0.45
542.791	0.46
543.136	0.46
543.481	0.46
543.825	0.46
544.17	0.45
544.515	0.46
544.86	0.46
545.204	0.46
545.549	0.46
545.893	0.46
546.238	0.46
546.582	0.46
546.927	0.47
547.271	0.46
547.615	0.47
547.96	0.47
548.304	0.47
548.648	0.47
548.992	0.47
549.336	0.47
549.68	0.47
550.024	0.47
550.368	0.47
550.712	0.47
551.056	0.47
551.4	0.47
551.743	0.47
552.087	0.47
552.431	0.47
552.774	0.47
553.118	0.47
553.462	0.47
553.805	0.47
554.148	0.47
554.492	0.47
554.835	0.47
555.178	0.47
555.522	0.47
555.865	0.47
556.208	0.47
556.551	0.47
556.894	0.47
557.237	0.47
557.58	0.47
557.923	0.47
558.266	0.47
558.609	0.47
558.952	0.47
559.294	0.48
559.637	0.47
559.98	0.47
560.322	0.47
560.665	0.47
561.007	0.47
561.35	0.47
561.692	0.47
562.034	0.47
562.377	0.47
562.719	0.47
563.061	0.47
563.403	0.47
563.745	0.47
564.088	0.47
564.43	0.47
564.772	0.46
565.113	0.47
565.455	0.46
565.797	0.46
566.139	0.47
566.481	0.46
566.822	0.47
567.164	0.46
567.506	0.46
567.847	0.46
568.189	0.46
568.53	0.46
568.872	0.46
569.213	0.46
569.554	0.46
569.895	0.46
570.237	0.46
570.578	0.46
570.919	0.46
571.26	0.45
571.601	0.45
571.942	0.45
572.283	0.45
572.624	0.45
572.965	0.44
573.306	0.44
573.646	0.43
573.987	0.44
574.328	0.44
574.668	0.44
575.009	0.44
575.349	0.43
575.69	0.43
576.03	0.42
576.37	0.42
576.711	0.41
577.051	0.41
577.391	0.42
577.731	0.43
578.072	0.42
578.412	0.42
578.752	0.41
579.092	0.41
579.431	0.37
579.771	0.35
580.111	0.34
580.451	0.35
580.791	0.38
581.13	0.4
581.47	0.4
581.81	0.4
582.149	0.4
582.489	0.41
582.828	0.37
583.167	0.33
583.507	0.3
583.846	0.28
584.185	0.31
584.525	0.34
584.864	0.37
585.203	0.4
585.542	0.41
585.881	0.41
586.22	0.41
586.559	0.39
586.898	0.36
587.236	0.35
587.575	0.34
587.914	0.35
588.252	0.38
588.591	0.39
588.93	0.39
589.268	0.38
589.607	0.38
589.945	0.38
590.283	0.38
590.622	0.39
590.96	0.41
591.298	0.41
591.636	0.41
591.974	0.41
592.313	0.42
592.651	0.42
592.989	0.42
593.326	0.42
593.664	0.42
594.002	0.42
594.34	0.41
594.678	0.4
595.015	0.37
595.353	0.36
595.691	0.37
596.028	0.4
596.366	0.41
596.703	0.41
597.04	0.42
597.378	0.42
597.715	0.42
598.052	0.42
598.389	0.43
598.726	0.42
599.064	0.42
599.401	0.42
599.738	0.42
600.074	0.42
600.411	0.41
600.748	0.39
601.085	0.38
601.422	0.37
601.758	0.37
602.095	0.38
602.432	0.38
602.768	0.38
603.105	0.4
603.441	0.41
603.777	0.42
604.114	0.42
604.45	0.42
604.786	0.42
605.122	0.41
605.459	0.41
605.795	0.4
606.131	0.4
606.467	0.41
606.803	0.41
607.139	0.41
607.474	0.4
607.81	0.4
608.146	0.4
608.482	0.4
608.817	0.39
609.153	0.39
609.488	0.39
609.824	0.39
610.159	0.39
610.495	0.4
610.83	0.4
611.165	0.4
611.5	0.4
611.836	0.4
612.171	0.39
612.506	0.39
612.841	0.4
613.176	0.39
613.511	0.39
613.845	0.39
614.18	0.39
614.515	0.39
614.85	0.39
615.184	0.39
615.519	0.39
615.854	0.39
616.188	0.38
616.523	0.38
616.857	0.38
617.191	0.38
617.526	0.37
617.86	0.38
618.194	0.37
618.528	0.37
618.862	0.37
619.196	0.37
619.53	0.37
619.864	0.37
620.198	0.37
620.532	0.37
620.866	0.37
621.2	0.37
621.533	0.37
621.867	0.37
622.201	0.37
622.534	0.36
622.868	0.37
623.201	0.36
623.534	0.36
623.868	0.36
624.201	0.35
624.534	0.35
624.868	0.35
625.201	0.35
625.534	0.35
625.867	0.35
626.2	0.35
626.533	0.35
626.865	0.35
627.198	0.34
627.531	0.34
627.864	0.34
628.196	0.34
628.529	0.34
628.862	0.33
629.194	0.33
629.527	0.33
629.859	0.33
630.191	0.33
630.524	0.32
630.856	0.32
631.188	0.32
631.52	0.32
631.852	0.32
632.184	0.31
632.516	0.31
632.848	0.31
633.18	0.31
633.512	0.31
633.844	0.31
634.175	0.31
634.507	0.3
634.839	0.3
635.17	0.3
635.502	0.3
635.833	0.29
636.165	0.29
636.496	0.29
636.827	0.29
637.159	0.29
637.49	0.29
637.821	0.28
638.152	0.28
638.483	0.28
638.814	0.27
639.145	0.27
639.476	0.27
639.807	0.27
640.137	0.27
640.468	0.26
640.799	0.26
641.129	0.26
641.46	0.26
641.791	0.26
642.121	0.26
642.451	0.26
642.782	0.26
643.112	0.26
643.442	0.26
643.773	0.26
644.103	0.25
644.433	0.25
644.763	0.25
645.093	0.25
645.423	0.24
645.753	0.24
646.082	0.24
646.412	0.24
646.742	0.24
647.072	0.23
647.401	0.24
647.731	0.23
648.06	0.23
648.39	0.23
648.719	0.23
649.048	0.23
649.378	0.23
649.707	0.23
650.036	0.22
650.365	0.23
650.694	0.22
651.023	0.22
651.352	0.22
651.681	0.22
652.01	0.22
652.339	0.22
652.668	0.22
652.996	0.22
653.325	0.22
653.654	0.22
653.982	0.22
654.311	0.22
654.639	0.22
654.967	0.22
655.296	0.21
655.624	0.21
655.952	0.21
656.28	0.21
656.609	0.21
656.937	0.21
657.265	0.2
657.593	0.05
657.92	0
658.248	-0
658.576	-0
658.904	0.02
659.231	0.1
659.559	0.17
659.887	0.2
660.214	0.2
660.542	0.2
660.869	0.2
661.196	0.2
661.524	0.2
661.851	0.2
662.178	0.2
662.505	0.2
662.832	0.2
663.159	0.2
663.486	0.2
663.813	0.2
664.14	0.19
664.467	0.2
664.794	0.2
665.12	0.2
665.447	0.19
665.774	0.19
666.1	0.19
666.427	0.19
666.753	0.19
667.079	0.19
667.406	0.19
667.732	0.19
668.058	0.19
668.384	0.18
668.71	0.19
669.036	0.18
669.362	0.18
669.688	0.18
670.014	0.18
670.34	0.18
670.666	0.17
670.991	0.17
671.317	0.18
671.643	0.17
671.968	0.17
672.294	0.17
672.619	0.16
672.945	0.16
673.27	0.16
673.595	0.16
673.92	0.15
674.246	0.15
674.571	0.15
674.896	0.15
675.221	0.15
675.546	0.15
675.87	0.15
676.195	0.15
676.52	0.15
676.845	0.15
677.169	0.15
677.494	0.15
677.819	0.15
678.143	0.14
678.468	0.14
678.792	0.13
679.116	0.13
679.44	0.13
679.765	0.13
680.089	0.12
680.413	0.12
680.737	0.12
681.061	0.11
681.385	0.11
681.709	0.11
682.033	0.1
682.356	0.11
682.68	0.11
683.004	0.11
683.327	0.1
683.651	0.1
683.974	0.09
684.298	0.1
684.621	0.1
684.944	0.1
685.268	0.1
685.591	0.09
685.914	0.09
686.237	0.08
686.56	0.07
686.883	0.07
687.206	0.06
687.529	0.05
687.852	0.05
688.175	0.05
688.497	0.06
688.82	0.06
689.142	0.06
689.465	0.06
689.787	0.06
690.11	0.06
690.432	0.06
690.755	0.06
691.077	0.06
691.399	0.05
691.721	0.05
692.043	0.05
692.365	0.05
692.687	0.05
693.009	0.04
693.331	0.03
693.653	0.03
693.974	0.04
694.296	0.03
694.618	0.04
694.939	0.04
695.261	0.03
695.582	0.03
695.904	0.03
696.225	0.04
696.546	0.04
696.868	0.04
697.189	0.03
697.51	0.03
697.831	0.02
698.152	0.03
698.473	0.02
698.794	0.01
699.114	0.01
699.435	0
699.756	0.01
700.077	0.01
700.397	0.02
700.718	0.02
701.038	0.02
701.359	0.02
701.679	0.02
701.999	0.03
702.32	0.02
702.64	0.02
702.96	0.02
703.28	0.02
703.6	0.02
703.92	0.01
704.24	0.01
704.56	0.01
704.879	0.01
705.199	0.01
705.519	0.01
705.838	0.01
706.158	0.02
706.478	0.01
706.797	0.02
707.116	0.02
707.436	0.02
707.755	0.02
708.074	0.01
708.393	0.01
708.712	0
709.031	0
709.35	0
709.669	0
709.988	0
710.307	0
710.626	0
710.944	0
711.263	0.01
711.582	0.01
711.9	0.01
712.219	0
712.537	0
712.855	0.01
713.174	0.01
713.492	0.01
713.81	0.01
714.128	0.01
714.446	0.01
714.764	0
715.082	0
715.4	0
715.718	0
716.035	0
716.353	0
716.671	0
716.988	0.01
717.306	0
717.623	0.01
717.941	0.01
718.258	0.01
718.575	0.01
718.893	0.01
719.21	0.01
719.527	0.02
719.844	0.01
720.161	0.01
720.478	0.01
720.795	0.01
721.112	0.01
721.428	0.01
721.745	0.01
722.062	0.01
722.378	0.02
722.695	0.01
723.011	0.01
723.328	0.02
723.644	0.02
723.96	0.02
724.276	0.02
724.593	0.02
724.909	0.03
725.225	0.02
725.541	0.02
725.857	0.03
726.173	0.02
726.488	0.03
726.804	0.02
727.12	0.02
727.435	0.02
727.751	0.02
728.067	0.02
728.382	0.02
728.697	0.02
729.013	0.03
729.328	0.02
729.643	0.02
729.958	0.02
730.273	0.03
730.588	0.02
730.903	0.02
731.218	0.03
731.533	0.02
731.848	0.02
732.163	0.02
732.477	0.01
732.792	0.02
733.107	0.01
733.421	0.01
733.736	0.02
734.05	0.02
734.364	0.02
734.678	0.02
734.993	0.01
735.307	0.02
735.621	0.01
735.935	0.02
736.249	0.01
736.563	0.01
736.877	0.02
737.19	0.02
737.504	0.02
737.818	0.02
738.131	0.02
738.445	0.03
738.758	0.03
739.072	0.03
739.385	0.03
739.698	0.03
740.012	0.03
740.325	0.03
740.638	0.03
740.951	0.03
741.264	0.02
741.577	0.03
741.89	0.03
742.203	0.03
742.515	0.04
742.828	0.04
743.141	0.03
743.453	0.04
743.766	0.04
744.078	0.03
744.391	0.03
744.703	0.03
745.015	0.03
745.327	0.03
745.639	0.03
745.952	0.03
746.264	0.03
746.575	0.03
746.887	0.03
747.199	0.03
747.511	0.03
747.823	0.03
748.134	0.03
748.446	0.03
748.757	0.03
749.069	0.03
749.38	0.03
749.692	0.03
750.003	0.03
750.314	0.03
750.625	0.02
750.936	0.02
751.248	0.02
751.559	0.02
751.869	0.01
752.18	0.01
752.491	0.01
752.802	0.01
753.112	0.02
753.423	0.01
753.734	0.01
754.044	0.01
754.355	0.01
754.665	0.01
754.975	0.01
755.285	0.01
755.596	0.01
755.906	0.01
756.216	0.01
756.526	0.01
756.836	0.01
757.146	0.01
757.455	0.01
757.765	0.01
758.075	0
758.385	0
758.694	0
759.004	0
759.313	0
759.622	0
759.932	0
760.241	0
760.55	0
760.859	0.01
761.168	0.01
761.477	0.01
761.786	0.01
762.095	0
762.404	0
762.713	0.01
763.021	0.01
763.33	0.01
763.639	0.01
763.947	0.01
764.256	0.01
764.564	0.01
764.872	0.01
765.181	0.01
765.489	0.01
765.797	0.01
766.105	0.01
766.413	0.01
766.721	0.01
767.029	0.01
767.337	0.01
767.644	0.01
767.952	0.02
768.26	0.02
768.567	0.02
768.875	0.02
769.182	0.02
769.49	0.02
769.797	0.02
770.104	0.02
770.411	0.02
770.718	0.02
771.026	0.02
771.333	0.03
771.639	0.02
771.946	0.02
772.253	0.02
772.56	0.02
772.867	0.03
773.173	0.02
773.48	0.03
773.786	0.03
774.093	0.03
774.399	0.03
774.705	0.03
775.012	0.03
775.318	0.03
775.624	0.03
775.93	0.03
776.236	0.02
776.542	0.02
776.848	0.02
777.154	0.03
777.459	0.02
777.765	0.02
778.071	0.02
778.376	0.02
778.682	0.02
778.987	0.02
779.292	0.02
779.598	0.02
779.903	0.02
780.208	0.02
780.513	0.02
780.818	0.02
781.123	0.02
781.428	0.02
781.733	0.03
782.038	0.02
782.343	0.02
782.647	0.03
782.952	0.03
783.256	0.03
783.561	0.03
783.865	0.03
784.17	0.03
784.474	0.03
784.778	0.03
785.082	0.03
785.386	0.03
785.69	0.03
785.994	0.03
786.298	0.02
786.602	0.03
786.906	0.03
787.209	0.03
787.513	0.03
787.817	0.03
788.12	0.02
788.424	0.02
788.727	0.02
789.03	0.02
789.333	0.02
789.637	0.02
789.94	0.02
790.243	0.03
790.546	0.03
790.849	0.03
791.152	0.03
791.454	0.03
791.757	0.03
792.06	0.03
792.362	0.03
792.665	0.03
792.967	0.03
793.27	0.02
793.572	0.02
793.874	0.02
794.177	0.02
794.479	0.02
794.781	0.03
795.083	0.03
795.385	0.03
795.687	0.03
795.989	0.03
796.29	0.03
796.592	0.03
796.894	0.03
797.195	0.03
797.497	0.03
797.798	0.04
798.1	0.03
798.401	0.03
798.702	0.04
799.003	0.03
799.304	0.03
799.605	0.03
799.906	0.03
800.207	0.03
800.508	0.03
800.809	0.03
801.11	0.04
801.41	0.04
801.711	0.04
802.011	0.03
802.312	0.03
802.612	0.03
802.913	0.03
803.213	0.03
803.513	0.03
803.813	0.03
804.113	0.03
804.413	0.03
804.713	0.03
805.013	0.03
805.313	0.04
805.613	0.03
805.912	0.04
806.212	0.04
806.511	0.04
806.811	0.04
807.11	0.04
807.41	0.04
807.709	0.03
808.008	0.03
808.307	0.03
808.606	0.03
808.905	0.03
809.204	0.03
809.503	0.03
809.802	0.03
810.101	0.03
810.399	0.04
810.698	0.03
810.997	0.03
811.295	0.03
811.593	0.03
811.892	0.03
812.19	0.03
812.488	0.03
812.786	0.03
813.084	0.03
813.383	0.03
813.68	0.04
813.978	0.03
814.276	0.04
814.574	0.03
814.872	0.04
815.169	0.04
815.467	0.04
815.764	0.03
816.062	0.04
816.359	0.04
816.656	0.04
816.954	0.04
817.251	0.04
817.548	0.04
817.845	0.04
818.142	0.04
818.439	0.04
818.735	0.04
819.032	0.04
819.329	0.04
819.626	0.04
819.922	0.04
820.219	0.04
820.515	0.04
820.811	0.05
821.108	0.04
821.404	0.05
821.7	0.04
821.996	0.04
822.292	0.05
822.588	0.04
822.884	0.05
823.18	0.05
823.475	0.05
823.771	0.05
824.067	0.05
824.362	0.05
824.658	0.05
824.953	0.04
825.249	0.05
825.544	0.04
825.839	0.04
826.134	0.04
826.429	0.05
826.724	0.05
827.019	0.04
827.314	0.05
827.609	0.04
827.904	0.04
828.198	0.05
828.493	0.05
828.787	0.04
829.082	0.05
829.376	0.05
829.671	0.05
829.965	0.05
830.259	0.05
830.553	0.06
830.847	0.06
831.141	0.05
831.435	0.05
831.729	0.05
832.023	0.05
832.317	0.04
832.61	0.04
832.904	0.05
833.197	0.05
833.491	0.05
833.784	0.04
834.077	0.05
834.371	0.05
834.664	0.05
834.957	0.06
835.25	0.06
835.543	0.05
835.836	0.05
836.129	0.05
836.421	0.05
836.714	0.06
837.007	0.06
837.299	0.06
837.592	0.05
837.884	0.05
838.177	0.06
838.469	0.05
838.761	0.05
839.053	0.05
839.345	0.05
839.637	0.06
839.929	0.05
840.221	0.04
840.513	0.05
840.805	0.06
841.096	0.06
841.388	0.06
841.68	0.06
841.971	0.06
842.262	0.05
842.554	0.05
842.845	0.05
843.136	0.06
843.427	0.05
843.718	0.05
844.009	0.05
844.3	0.06
844.591	0.06
844.882	0.06
845.173	0.05
845.463	0.06
845.754	0.06
846.044	0.05
846.335	0.07
846.625	0.05
846.915	0.07
847.206	0.05
847.496	0.06
847.786	0.06
848.076	0.06
848.366	0.06
848.656	0.06
848.945	0.05
849.235	0.06
849.525	0.06
849.814	0.06
850.104	0.06
850.393	0.06
850.683	0.07
850.972	0.06
851.261	0.06
851.551	0.06
851.84	0.07
852.129	0.06
852.418	0.06
852.707	0.06
852.995	0.07
853.284	0.05
853.573	0.05
853.862	0.07
854.15	0.07
854.439	0.07
854.727	0.07
855.015	0.07
855.304	0.07
855.592	0.07
855.88	0.06
856.168	0.07
856.456	0.08
856.744	0.07
857.032	0.07
857.32	0.08
857.607	0.08
857.895	0.07
858.183	0.08
858.47	0.07
858.757	0.06
859.045	0.07
859.332	0.05
859.619	0.08
859.907	0.09
860.194	0.09
860.481	0.09
860.768	0.08
861.054	0.09
861.341	0.07
861.628	0.07
861.915	0.07
862.201	0.06
862.488	0.07
862.774	0.08
863.061	0.08
863.347	0.06
863.633	0.06
863.919	0.08
864.205	0.06
864.491	0.08
864.777	0.07
865.063	0.05
865.349	0.06
865.635	0.06
865.92	0.04
866.206	0.05
866.492	0.07
866.777	0.07
867.062	0.07
867.348	0.04
867.633	0.05
867.918	0.09
868.203	0.08
868.488	0.05
868.773	0.07
869.058	0.08
869.343	0.06
869.628	0.06
869.912	0.07
870.197	0.06
870.482	0.07
870.766	0.03
871.05	0.06
871.335	0.06
871.619	0.06
871.903	0.04
872.187	0.06
872.471	0.03
872.755	0.07
873.039	0.03
873.323	0.03
873.607	0.03
873.89	0.04
874.174	0.07
874.458	0.05
874.741	0.09
875.024	0.02
875.308	0.02
875.591	0.02
875.874	0.04
876.157	0.02
876.44	0.06
876.723	0.07
877.006	0.03
877.289	0.04
877.572	0.05
877.854	0.08
878.137	0.02
878.42	0.09
878.702	0.09
878.984	-0.03
879.267	0.02
879.549	-0
879.831	0.07
880.113	0.04
880.395	-0.01
880.677	-0.03
880.959	0.02
