Data from Rubpy_BV_600_EDTA_Buffered_Absorbance_12-26-21-609.txt Node
Date: Wed Jul 01 12:26:21 BST 2026
User: fpm-admin
Spectrometer: OFX00224
Trigger mode: 0
Integration Time (sec): 7.000000E-2
Scans to average: 3
Nonlinearity correction enabled: false
Boxcar width: 0
Storing dark spectrum: false
XAxis mode: Wavelengths
Number of Pixels in Spectrum: 2136
>>>>>Begin Spectral Data<<<<<
154.91	-0.3
155.289	-0.11
155.669	-0
156.048	-0
156.428	-0
156.807	-0
157.186	-0.12
157.566	-0
157.945	-0.24
158.325	-0.01
158.704	-0
159.083	-0
159.462	-0
159.842	0.1
160.221	0.25
160.6	0.06
160.979	-0.06
161.359	-0.02
161.738	-0.36
162.117	-0
162.496	-0
162.875	-0
163.254	-0
163.633	-0
164.012	0.12
164.391	-0
164.77	-0.05
165.149	0.88
165.528	-0
165.907	-0.41
166.286	-0
166.665	-0
167.044	-0
167.423	-0.33
167.802	-0
168.181	-0.13
168.559	-0.11
168.938	-1.13
169.317	0.78
169.696	-0.88
170.074	-0
170.453	-0.23
170.832	0.27
171.21	-0.64
171.589	1.4
171.968	-0
172.346	0.65
172.725	-0
173.103	-0
173.482	0.33
173.861	-0
174.239	-0
174.617	-0
174.996	-0
175.374	0.5
175.753	0.14
176.131	-0
176.51	0.56
176.888	-0
177.266	1.96
177.645	-0.04
178.023	0.43
178.401	-0.07
178.779	0.27
179.158	0.04
179.536	0.14
179.914	-0.43
180.292	0.78
180.67	-0.38
181.048	-0
181.427	-0
181.805	-0
182.183	0.23
182.561	-0
182.939	0.21
183.317	-0.02
183.695	-0
184.073	1.24
184.451	-0.81
184.829	0.3
185.206	-0
185.584	0.14
185.962	1.26
186.34	-0.6
186.718	-0.72
187.096	-0.54
187.473	0.72
187.851	-0.26
188.229	-0.64
188.607	0.09
188.984	0.09
189.362	0.05
189.74	0
190.117	0.02
190.495	0.07
190.872	0.02
191.25	0.11
191.627	0.07
192.005	0.18
192.382	0.07
192.76	0.05
193.137	0.06
193.515	-0.06
193.892	0.18
194.269	0.01
194.647	0.05
195.024	0.1
195.401	0.08
195.779	0.09
196.156	0.03
196.533	0.17
196.91	0.12
197.288	-0.03
197.665	0.09
198.042	0.07
198.419	0.04
198.796	0.03
199.173	0.08
199.55	0.07
199.927	0.05
200.304	0.12
200.681	0.06
201.058	0.02
201.435	0.07
201.812	0.04
202.189	0.14
202.566	0.04
202.943	0.15
203.32	0.11
203.697	0.01
204.073	0.01
204.45	0.06
204.827	0.08
205.204	0.03
205.58	0.12
205.957	0.03
206.334	0.1
206.71	0.14
207.087	0.05
207.464	0.19
207.84	0.08
208.217	0.08
208.593	0.09
208.97	0.03
209.346	0.05
209.723	0.11
210.099	0.06
210.476	0.07
210.852	0.15
211.228	0.18
211.605	0.02
211.981	0.08
212.357	-0.01
212.733	0.1
213.11	0.02
213.486	0.02
213.862	0.06
214.238	0.03
214.614	0.07
214.991	0.06
215.367	0.05
215.743	0.12
216.119	0.12
216.495	0.16
216.871	0.04
217.247	0.06
217.623	0.04
217.999	0.09
218.375	0.05
218.751	0.13
219.127	0.04
219.502	0.17
219.878	0.11
220.254	0.02
220.63	0.04
221.006	0.07
221.381	0.05
221.757	0.07
222.133	0.12
222.508	0.04
222.884	0.12
223.26	0.1
223.635	0.04
224.011	-0.03
224.386	0.26
224.762	0.14
225.137	0.09
225.513	0.06
225.888	0.05
226.264	0.11
226.639	0.14
227.014	0.06
227.39	0.11
227.765	0.1
228.14	0.09
228.516	0.17
228.891	0.05
229.266	0.14
229.641	0.04
230.017	0.1
230.392	0.15
230.767	0.06
231.142	0.12
231.517	0.08
231.892	0.13
232.267	0.14
232.642	0.12
233.017	0.11
233.392	0.06
233.767	0.18
234.142	0.14
234.517	0.01
234.892	0.11
235.267	0.04
235.641	0.13
236.016	0.14
236.391	0.09
236.766	0.1
237.14	0.06
237.515	0.04
237.89	0.04
238.264	0.07
238.639	0.05
239.014	0.15
239.388	0.1
239.763	0.12
240.137	0.1
240.512	0.1
240.886	0.12
241.261	0.11
241.635	0.07
242.009	0.12
242.384	0.1
242.758	0.08
243.132	0.11
243.507	0.12
243.881	0.03
244.255	0.18
244.629	0.03
245.004	0.13
245.378	0.06
245.752	0.06
246.126	0.08
246.5	-0.03
246.874	0.07
247.248	0.14
247.622	0.05
247.996	0.01
248.37	0.08
248.744	0.14
249.118	0.15
249.492	0.09
249.866	0.12
250.24	0.1
250.613	0.15
250.987	0.12
251.361	0.08
251.735	0.05
252.108	0.12
252.482	0.11
252.856	-0
253.229	0.01
253.603	-0
253.977	0.08
254.35	0.12
254.724	0.13
255.097	0.13
255.471	0.07
255.844	0.15
256.218	0.01
256.591	0.18
256.964	0.07
257.338	0.07
257.711	0.14
258.084	0.11
258.458	0.1
258.831	0.14
259.204	0.1
259.577	0.1
259.95	0.12
260.323	0.08
260.697	0.06
261.07	0.06
261.443	0.05
261.816	0.14
262.189	0.12
262.562	0.13
262.935	0.07
263.308	0.07
263.68	0.15
264.053	0.08
264.426	0.13
264.799	0.08
265.172	0.06
265.545	0.19
265.917	0.07
266.29	0.15
266.663	0.14
267.035	0.15
267.408	0.05
267.781	0.09
268.153	0.14
268.526	0.05
268.898	0.13
269.271	0.14
269.643	0.11
270.016	0.1
270.388	0.14
270.76	0.07
271.133	0.17
271.505	0.11
271.877	0.1
272.25	0.15
272.622	0.22
272.994	0.14
273.366	0.16
273.739	0.12
274.111	0.11
274.483	0.08
274.855	0.08
275.227	0.15
275.599	0.11
275.971	0.04
276.343	0.14
276.715	0.15
277.087	0.13
277.459	0.08
277.831	0.09
278.203	0.11
278.574	0.09
278.946	0.14
279.318	0.1
279.69	0.11
280.061	0.08
280.433	0.13
280.805	0.1
281.176	0.19
281.548	0.16
281.92	0.12
282.291	0.12
282.663	0.11
283.034	0.15
283.406	0.13
283.777	0.17
284.148	0.16
284.52	0.07
284.891	0.15
285.262	0.14
285.634	0.2
286.005	0.08
286.376	0.14
286.747	0.12
287.119	0.12
287.49	0.13
287.861	0.07
288.232	0.08
288.603	0.09
288.974	0.1
289.345	0.13
289.716	0.11
290.087	0.08
290.458	0.04
290.829	0.04
291.2	0.15
291.571	0.08
291.941	0.03
292.312	0.12
292.683	0.13
293.054	0.17
293.424	0.09
293.795	0.07
294.166	0.11
294.536	0.12
294.907	0.18
295.277	0.09
295.648	0.12
296.018	0.15
296.389	0.1
296.759	0.08
297.13	0.07
297.5	0.12
297.871	0.1
298.241	0.1
298.611	0.07
298.981	0.08
299.352	0.13
299.722	0.11
300.092	0.12
300.462	0.05
300.832	0.11
301.202	0.14
301.573	0.09
301.943	0.06
302.313	0.05
302.683	0.11
303.053	0.08
303.422	0.08
303.792	0.07
304.162	0.08
304.532	0.04
304.902	0.06
305.272	0.08
305.641	0.06
306.011	0.05
306.381	0.04
306.75	0.05
307.12	0.05
307.49	0.05
307.859	0.06
308.229	0.06
308.598	0.07
308.968	0.06
309.337	0.06
309.707	0.06
310.076	0.07
310.445	0.06
310.815	0.06
311.184	0.07
311.553	0.08
311.923	0.09
312.292	0.08
312.661	0.08
313.03	0.09
313.399	0.08
313.768	0.07
314.137	0.09
314.506	0.08
314.875	0.09
315.244	0.1
315.613	0.09
315.982	0.09
316.351	0.1
316.72	0.09
317.089	0.1
317.458	0.1
317.826	0.1
318.195	0.1
318.564	0.11
318.933	0.1
319.301	0.11
319.67	0.11
320.038	0.12
320.407	0.11
320.775	0.12
321.144	0.12
321.512	0.12
321.881	0.12
322.249	0.12
322.618	0.12
322.986	0.12
323.354	0.12
323.723	0.13
324.091	0.13
324.459	0.12
324.827	0.13
325.195	0.13
325.564	0.13
325.932	0.14
326.3	0.14
326.668	0.14
327.036	0.14
327.404	0.14
327.772	0.14
328.14	0.15
328.508	0.15
328.875	0.15
329.243	0.16
329.611	0.15
329.979	0.16
330.346	0.16
330.714	0.16
331.082	0.17
331.449	0.17
331.817	0.17
332.185	0.18
332.552	0.17
332.92	0.18
333.287	0.18
333.655	0.18
334.022	0.19
334.389	0.19
334.757	0.19
335.124	0.2
335.491	0.2
335.859	0.2
336.226	0.21
336.593	0.21
336.96	0.22
337.327	0.23
337.695	0.22
338.062	0.23
338.429	0.23
338.796	0.24
339.163	0.25
339.53	0.25
339.897	0.25
340.263	0.25
340.63	0.25
340.997	0.26
341.364	0.27
341.731	0.27
342.097	0.28
342.464	0.28
342.831	0.28
343.197	0.28
343.564	0.3
343.931	0.3
344.297	0.3
344.664	0.31
345.03	0.32
345.396	0.32
345.763	0.32
346.129	0.33
346.496	0.34
346.862	0.34
347.228	0.34
347.594	0.35
347.961	0.35
348.327	0.36
348.693	0.36
349.059	0.37
349.425	0.37
349.791	0.38
350.157	0.38
350.523	0.38
350.889	0.39
351.255	0.39
351.621	0.39
351.987	0.4
352.353	0.4
352.719	0.41
353.084	0.42
353.45	0.41
353.816	0.43
354.181	0.43
354.547	0.44
354.913	0.44
355.278	0.45
355.644	0.45
356.009	0.46
356.375	0.47
356.74	0.47
357.106	0.48
357.471	0.48
357.836	0.49
358.202	0.49
358.567	0.5
358.932	0.5
359.297	0.51
359.663	0.52
360.028	0.53
360.393	0.54
360.758	0.55
361.123	0.56
361.488	0.56
361.853	0.57
362.218	0.58
362.583	0.58
362.948	0.6
363.312	0.6
363.677	0.61
364.042	0.61
364.407	0.62
364.772	0.63
365.136	0.63
365.501	0.64
365.865	0.65
366.23	0.66
366.595	0.66
366.959	0.67
367.324	0.68
367.688	0.68
368.052	0.69
368.417	0.69
368.781	0.7
369.145	0.7
369.51	0.71
369.874	0.71
370.238	0.72
370.602	0.73
370.967	0.73
371.331	0.73
371.695	0.73
372.059	0.74
372.423	0.74
372.787	0.74
373.151	0.74
373.515	0.74
373.878	0.74
374.242	0.73
374.606	0.73
374.97	0.72
375.334	0.73
375.697	0.72
376.061	0.7
376.425	0.71
376.788	0.7
377.152	0.69
377.515	0.68
377.879	0.67
378.242	0.67
378.606	0.66
378.969	0.65
379.333	0.65
379.696	0.65
380.059	0.64
380.422	0.63
380.786	0.62
381.149	0.62
381.512	0.61
381.875	0.61
382.238	0.6
382.601	0.6
382.964	0.59
383.327	0.6
383.69	0.58
384.053	0.58
384.416	0.58
384.779	0.57
385.142	0.57
385.504	0.57
385.867	0.57
386.23	0.57
386.593	0.57
386.955	0.57
387.318	0.57
387.68	0.57
388.043	0.58
388.405	0.58
388.768	0.58
389.13	0.58
389.493	0.58
389.855	0.58
390.217	0.57
390.58	0.57
390.942	0.57
391.304	0.57
391.666	0.56
392.028	0.55
392.391	0.55
392.753	0.54
393.115	0.54
393.477	0.53
393.839	0.52
394.201	0.52
394.563	0.52
394.924	0.52
395.286	0.52
395.648	0.53
396.01	0.53
396.371	0.54
396.733	0.54
397.095	0.56
397.456	0.57
397.818	0.58
398.18	0.6
398.541	0.61
398.903	0.63
399.264	0.64
399.625	0.67
399.987	0.68
400.348	0.7
400.709	0.7
401.071	0.71
401.432	0.72
401.793	0.71
402.154	0.71
402.515	0.7
402.876	0.69
403.238	0.67
403.599	0.66
403.96	0.64
404.32	0.62
404.681	0.6
405.042	0.57
405.403	0.55
405.764	0.52
406.125	0.49
406.485	0.47
406.846	0.44
407.207	0.42
407.567	0.39
407.928	0.38
408.288	0.35
408.649	0.33
409.009	0.31
409.37	0.29
409.73	0.28
410.091	0.26
410.451	0.24
410.811	0.23
411.171	0.22
411.532	0.21
411.892	0.2
412.252	0.19
412.612	0.18
412.972	0.17
413.332	0.17
413.692	0.16
414.052	0.15
414.412	0.14
414.772	0.13
415.132	0.13
415.492	0.13
415.851	0.12
416.211	0.12
416.571	0.12
416.931	0.11
417.29	0.11
417.65	0.11
418.009	0.1
418.369	0.1
418.728	0.1
419.088	0.1
419.447	0.1
419.807	0.09
420.166	0.09
420.525	0.09
420.884	0.08
421.244	0.08
421.603	0.09
421.962	0.08
422.321	0.07
422.68	0.08
423.039	0.08
423.398	0.07
423.757	0.07
424.116	0.08
424.475	0.08
424.834	0.07
425.193	0.07
425.551	0.06
425.91	0.07
426.269	0.07
426.628	0.06
426.986	0.07
427.345	0.06
427.703	0.06
428.062	0.07
428.42	0.07
428.779	0.06
429.137	0.06
429.496	0.07
429.854	0.06
430.212	0.06
430.57	0.06
430.929	0.06
431.287	0.05
431.645	0.06
432.003	0.06
432.361	0.06
432.719	0.06
433.077	0.06
433.435	0.05
433.793	0.06
434.151	0.05
434.509	0.05
434.866	0.05
435.224	0.05
435.582	0.05
435.94	0.06
436.297	0.05
436.655	0.06
437.012	0.06
437.37	0.06
437.727	0.06
438.085	0.05
438.442	0.06
438.8	0.05
439.157	0.05
439.514	0.05
439.872	0.06
440.229	0.05
440.586	0.05
440.943	0.05
441.3	0.05
441.657	0.06
442.014	0.05
442.371	0.05
442.728	0.06
443.085	0.05
443.442	0.05
443.799	0.05
444.156	0.05
444.513	0.06
444.869	0.06
445.226	0.05
445.583	0.05
445.939	0.05
446.296	0.05
446.652	0.05
447.009	0.05
447.365	0.06
447.722	0.04
448.078	0.05
448.434	0.05
448.791	0.05
449.147	0.05
449.503	0.05
449.859	0.05
450.215	0.05
450.571	0.04
450.928	0.05
451.284	0.05
451.64	0.04
451.995	0.04
452.351	0.04
452.707	0.05
453.063	0.04
453.419	0.04
453.775	0.04
454.13	0.05
454.486	0.05
454.842	0.04
455.197	0.04
455.553	0.05
455.908	0.03
456.264	0.05
456.619	0.04
456.975	0.04
457.33	0.04
457.685	0.04
458.04	0.03
458.396	0.03
458.751	0.03
459.106	0.02
459.461	0.03
459.816	0.03
460.171	0.03
460.526	0.02
460.881	0.02
461.236	0.02
461.591	0.02
461.946	0.02
462.301	0.02
462.655	0.02
463.01	0.02
463.365	0.01
463.719	0.01
464.074	0.01
464.428	0
464.783	0.01
465.137	0.01
465.492	-0
465.846	0
466.201	0.01
466.555	0.01
466.909	0
467.263	0.01
467.618	0.02
467.972	0.01
468.326	0.01
468.68	0.01
469.034	0.01
469.388	0
469.742	0
470.096	0.01
470.45	0.01
470.804	0.01
471.157	0.01
471.511	0.01
471.865	0.01
472.218	0.02
472.572	0.02
472.926	0.02
473.279	0.02
473.633	0.03
473.986	0.03
474.34	0.03
474.693	0.04
475.046	0.04
475.4	0.05
475.753	0.05
476.106	0.06
476.459	0.06
476.812	0.07
477.165	0.06
477.519	0.07
477.872	0.07
478.224	0.07
478.577	0.08
478.93	0.08
479.283	0.08
479.636	0.09
479.989	0.09
480.341	0.09
480.694	0.09
481.047	0.09
481.399	0.1
481.752	0.11
482.104	0.1
482.457	0.1
482.809	0.11
483.162	0.11
483.514	0.11
483.866	0.12
484.219	0.12
484.571	0.12
484.923	0.12
485.275	0.12
485.627	0.12
485.979	0.12
486.331	0.13
486.683	0.13
487.035	0.13
487.387	0.13
487.739	0.14
488.091	0.14
488.443	0.14
488.794	0.14
489.146	0.14
489.498	0.14
489.849	0.14
490.201	0.15
490.552	0.14
490.904	0.15
491.255	0.15
491.607	0.15
491.958	0.15
492.309	0.16
492.661	0.16
493.012	0.16
493.363	0.16
493.714	0.16
494.065	0.16
494.416	0.17
494.767	0.17
495.118	0.16
495.469	0.17
495.82	0.17
496.171	0.17
496.522	0.17
496.872	0.17
497.223	0.18
497.574	0.18
497.924	0.18
498.275	0.18
498.626	0.18
498.976	0.19
499.327	0.18
499.677	0.19
500.027	0.19
500.378	0.19
500.728	0.19
501.078	0.2
501.428	0.2
501.779	0.2
502.129	0.2
502.479	0.2
502.829	0.2
503.179	0.2
503.529	0.21
503.879	0.21
504.229	0.21
504.578	0.21
504.928	0.21
505.278	0.22
505.628	0.21
505.977	0.21
506.327	0.21
506.676	0.22
507.026	0.22
507.375	0.22
507.725	0.22
508.074	0.23
508.424	0.22
508.773	0.22
509.122	0.23
509.471	0.23
509.82	0.23
510.17	0.23
510.519	0.23
510.868	0.23
511.217	0.24
511.566	0.24
511.915	0.24
512.263	0.24
512.612	0.24
512.961	0.24
513.31	0.24
513.659	0.25
514.007	0.24
514.356	0.25
514.704	0.25
515.053	0.25
515.401	0.25
515.75	0.25
516.098	0.25
516.447	0.26
516.795	0.25
517.143	0.26
517.491	0.26
517.839	0.26
518.188	0.26
518.536	0.27
518.884	0.26
519.232	0.27
519.58	0.27
519.928	0.27
520.275	0.27
520.623	0.27
520.971	0.27
521.319	0.28
521.666	0.27
522.014	0.27
522.362	0.28
522.709	0.28
523.057	0.28
523.404	0.28
523.752	0.28
524.099	0.28
524.446	0.28
524.794	0.28
525.141	0.29
525.488	0.29
525.835	0.29
526.182	0.29
526.529	0.29
526.876	0.29
527.223	0.29
527.57	0.29
527.917	0.29
528.264	0.29
528.611	0.3
528.958	0.3
529.304	0.3
529.651	0.3
529.998	0.3
530.344	0.3
530.691	0.3
531.037	0.3
531.384	0.3
531.73	0.3
532.076	0.31
532.423	0.31
532.769	0.31
533.115	0.3
533.461	0.3
533.807	0.3
534.154	0.31
534.5	0.31
534.846	0.31
535.192	0.31
535.537	0.31
535.883	0.31
536.229	0.31
536.575	0.31
536.921	0.31
537.266	0.31
537.612	0.32
537.957	0.31
538.303	0.31
538.649	0.32
538.994	0.32
539.339	0.32
539.685	0.32
540.03	0.32
540.375	0.32
540.721	0.32
541.066	0.32
541.411	0.33
541.756	0.32
542.101	0.32
542.446	0.32
542.791	0.33
543.136	0.33
543.481	0.32
543.825	0.33
544.17	0.33
544.515	0.33
544.86	0.33
545.204	0.33
545.549	0.33
545.893	0.33
546.238	0.33
546.582	0.33
546.927	0.33
547.271	0.33
547.615	0.33
547.96	0.33
548.304	0.34
548.648	0.33
548.992	0.34
549.336	0.33
549.68	0.34
550.024	0.34
550.368	0.34
550.712	0.34
551.056	0.34
551.4	0.33
551.743	0.34
552.087	0.34
552.431	0.33
552.774	0.34
553.118	0.34
553.462	0.34
553.805	0.34
554.148	0.34
554.492	0.34
554.835	0.34
555.178	0.34
555.522	0.34
555.865	0.34
556.208	0.34
556.551	0.34
556.894	0.34
557.237	0.34
557.58	0.34
557.923	0.34
558.266	0.34
558.609	0.34
558.952	0.34
559.294	0.34
559.637	0.34
559.98	0.34
560.322	0.34
560.665	0.34
561.007	0.34
561.35	0.34
561.692	0.34
562.034	0.34
562.377	0.34
562.719	0.34
563.061	0.34
563.403	0.34
563.745	0.34
564.088	0.34
564.43	0.34
564.772	0.34
565.113	0.34
565.455	0.34
565.797	0.33
566.139	0.34
566.481	0.33
566.822	0.34
567.164	0.33
567.506	0.34
567.847	0.33
568.189	0.33
568.53	0.33
568.872	0.33
569.213	0.33
569.554	0.33
569.895	0.33
570.237	0.33
570.578	0.33
570.919	0.33
571.26	0.33
571.601	0.33
571.942	0.33
572.283	0.32
572.624	0.32
572.965	0.32
573.306	0.32
573.646	0.31
573.987	0.31
574.328	0.31
574.668	0.32
575.009	0.31
575.349	0.31
575.69	0.31
576.03	0.3
576.37	0.29
576.711	0.29
577.051	0.29
577.391	0.29
577.731	0.3
578.072	0.3
578.412	0.29
578.752	0.29
579.092	0.28
579.431	0.25
579.771	0.23
580.111	0.22
580.451	0.23
580.791	0.26
581.13	0.28
581.47	0.29
581.81	0.29
582.149	0.28
582.489	0.29
582.828	0.26
583.167	0.22
583.507	0.18
583.846	0.17
584.185	0.2
584.525	0.22
584.864	0.25
585.203	0.28
585.542	0.3
585.881	0.3
586.22	0.3
586.559	0.27
586.898	0.25
587.236	0.23
587.575	0.23
587.914	0.24
588.252	0.26
588.591	0.27
588.93	0.28
589.268	0.27
589.607	0.26
589.945	0.27
590.283	0.27
590.622	0.28
590.96	0.29
591.298	0.3
591.636	0.3
591.974	0.3
592.313	0.3
592.651	0.31
592.989	0.3
593.326	0.3
593.664	0.31
594.002	0.31
594.34	0.29
594.678	0.28
595.015	0.26
595.353	0.24
595.691	0.26
596.028	0.28
596.366	0.29
596.703	0.3
597.04	0.3
597.378	0.3
597.715	0.31
598.052	0.31
598.389	0.31
598.726	0.31
599.064	0.31
599.401	0.3
599.738	0.3
600.074	0.3
600.411	0.3
600.748	0.28
601.085	0.26
601.422	0.26
601.758	0.26
602.095	0.27
602.432	0.27
602.768	0.27
603.105	0.29
603.441	0.3
603.777	0.3
604.114	0.31
604.45	0.31
604.786	0.3
605.122	0.3
605.459	0.3
605.795	0.3
606.131	0.29
606.467	0.3
606.803	0.3
607.139	0.3
607.474	0.29
607.81	0.29
608.146	0.29
608.482	0.29
608.817	0.29
609.153	0.28
609.488	0.28
609.824	0.28
610.159	0.29
610.495	0.29
610.83	0.29
611.165	0.29
611.5	0.29
611.836	0.29
612.171	0.29
612.506	0.29
612.841	0.29
613.176	0.29
613.511	0.29
613.845	0.29
614.18	0.29
614.515	0.29
614.85	0.29
615.184	0.28
615.519	0.29
615.854	0.28
616.188	0.28
616.523	0.28
616.857	0.28
617.191	0.28
617.526	0.27
617.86	0.28
618.194	0.27
618.528	0.28
618.862	0.28
619.196	0.28
619.53	0.28
619.864	0.27
620.198	0.27
620.532	0.27
620.866	0.27
621.2	0.27
621.533	0.27
621.867	0.27
622.201	0.27
622.534	0.27
622.868	0.27
623.201	0.27
623.534	0.27
623.868	0.27
624.201	0.26
624.534	0.26
624.868	0.26
625.201	0.26
625.534	0.26
625.867	0.26
626.2	0.26
626.533	0.26
626.865	0.26
627.198	0.25
627.531	0.25
627.864	0.25
628.196	0.25
628.529	0.25
628.862	0.25
629.194	0.24
629.527	0.24
629.859	0.24
630.191	0.24
630.524	0.24
630.856	0.24
631.188	0.24
631.52	0.24
631.852	0.23
632.184	0.23
632.516	0.23
632.848	0.23
633.18	0.23
633.512	0.23
633.844	0.23
634.175	0.23
634.507	0.23
634.839	0.22
635.17	0.22
635.502	0.22
635.833	0.22
636.165	0.22
636.496	0.22
636.827	0.21
637.159	0.22
637.49	0.21
637.821	0.21
638.152	0.2
638.483	0.2
638.814	0.2
639.145	0.2
639.476	0.2
639.807	0.2
640.137	0.2
640.468	0.2
640.799	0.19
641.129	0.19
641.46	0.19
641.791	0.19
642.121	0.19
642.451	0.19
642.782	0.19
643.112	0.19
643.442	0.19
643.773	0.19
644.103	0.19
644.433	0.18
644.763	0.18
645.093	0.18
645.423	0.18
645.753	0.18
646.082	0.18
646.412	0.18
646.742	0.18
647.072	0.17
647.401	0.17
647.731	0.17
648.06	0.17
648.39	0.17
648.719	0.17
649.048	0.17
649.378	0.17
649.707	0.17
650.036	0.17
650.365	0.17
650.694	0.16
651.023	0.16
651.352	0.16
651.681	0.16
652.01	0.16
652.339	0.16
652.668	0.16
652.996	0.16
653.325	0.16
653.654	0.16
653.982	0.16
654.311	0.16
654.639	0.16
654.967	0.16
655.296	0.16
655.624	0.16
655.952	0.16
656.28	0.16
656.609	0.16
656.937	0.16
657.265	0.15
657.593	0.01
657.92	-0
658.248	0
658.576	0
658.904	0
659.231	0.05
659.559	0.11
659.887	0.15
660.214	0.15
660.542	0.15
660.869	0.15
661.196	0.15
661.524	0.15
661.851	0.15
662.178	0.15
662.505	0.15
662.832	0.15
663.159	0.15
663.486	0.15
663.813	0.15
664.14	0.15
664.467	0.15
664.794	0.15
665.12	0.15
665.447	0.14
665.774	0.15
666.1	0.14
666.427	0.14
666.753	0.14
667.079	0.14
667.406	0.14
667.732	0.14
668.058	0.14
668.384	0.14
668.71	0.14
669.036	0.13
669.362	0.13
669.688	0.13
670.014	0.13
670.34	0.13
670.666	0.13
670.991	0.13
671.317	0.13
671.643	0.13
671.968	0.13
672.294	0.12
672.619	0.12
672.945	0.12
673.27	0.12
673.595	0.12
673.92	0.11
674.246	0.11
674.571	0.11
674.896	0.11
675.221	0.11
675.546	0.11
675.87	0.11
676.195	0.11
676.52	0.11
676.845	0.11
677.169	0.11
677.494	0.11
677.819	0.11
678.143	0.1
678.468	0.1
678.792	0.1
679.116	0.1
679.44	0.1
679.765	0.09
680.089	0.09
680.413	0.09
680.737	0.09
681.061	0.08
681.385	0.08
681.709	0.08
682.033	0.07
682.356	0.08
682.68	0.08
683.004	0.08
683.327	0.07
683.651	0.07
683.974	0.07
684.298	0.07
684.621	0.07
684.944	0.07
685.268	0.07
685.591	0.07
685.914	0.06
686.237	0.05
686.56	0.05
686.883	0.04
687.206	0.03
687.529	0.03
687.852	0.03
688.175	0.03
688.497	0.04
688.82	0.04
689.142	0.03
689.465	0.03
689.787	0.04
690.11	0.04
690.432	0.04
690.755	0.03
691.077	0.04
691.399	0.03
691.721	0.03
692.043	0.03
692.365	0.03
692.687	0.02
693.009	0.02
693.331	0.01
693.653	0.01
693.974	0.02
694.296	0.01
694.618	0.02
694.939	0.02
695.261	0.01
695.582	0.01
695.904	0.01
696.225	0.02
696.546	0.02
696.868	0.02
697.189	0.01
697.51	0.01
697.831	0.01
698.152	0.01
698.473	0.01
698.794	0
699.114	0
699.435	0
699.756	0
700.077	0
700.397	0.01
700.718	0.01
701.038	0.01
701.359	0.01
701.679	0.01
701.999	0.01
702.32	0.01
702.64	0.01
702.96	0.01
703.28	0.01
703.6	0.01
703.92	0
704.24	0.01
704.56	0
704.879	0
705.199	0
705.519	0
705.838	0
706.158	0.01
706.478	0
706.797	0.01
707.116	0.01
707.436	0.01
707.755	0.01
708.074	0.01
708.393	0
708.712	0
709.031	0
709.35	0
709.669	-0
709.988	0
710.307	0
710.626	0
710.944	0
711.263	0
711.582	0
711.9	0
712.219	0
712.537	0
712.855	0
713.174	0
713.492	0
713.81	0
714.128	0
714.446	0
714.764	0
715.082	0
715.4	0
715.718	0
716.035	0
716.353	0
716.671	0
716.988	0
717.306	0
717.623	0
717.941	0
718.258	0.01
718.575	0.01
718.893	0
719.21	0
719.527	0.01
719.844	0
720.161	0
720.478	0
720.795	0
721.112	0
721.428	0
721.745	0.01
722.062	0.01
722.378	0.01
722.695	0.01
723.011	0.01
723.328	0.01
723.644	0.01
723.96	0.01
724.276	0.01
724.593	0.01
724.909	0.01
725.225	0.01
725.541	0.01
725.857	0.01
726.173	0.01
726.488	0.01
726.804	0.01
727.12	0.01
727.435	0.01
727.751	0.01
728.067	0.01
728.382	0.01
728.697	0.01
729.013	0.02
729.328	0.01
729.643	0.01
729.958	0.01
730.273	0.01
730.588	0.01
730.903	0.01
731.218	0.01
731.533	0.01
731.848	0.01
732.163	0.01
732.477	0.01
732.792	0.01
733.107	0
733.421	0
733.736	0.01
734.05	0.01
734.364	0.01
734.678	0.01
734.993	0.01
735.307	0.01
735.621	0.01
735.935	0.01
736.249	0.01
736.563	0.01
736.877	0.01
737.19	0.01
737.504	0.01
737.818	0.01
738.131	0.01
738.445	0.02
738.758	0.02
739.072	0.01
739.385	0.02
739.698	0.02
740.012	0.02
740.325	0.02
740.638	0.02
740.951	0.01
741.264	0.01
741.577	0.01
741.89	0.02
742.203	0.02
742.515	0.03
742.828	0.03
743.141	0.02
743.453	0.03
743.766	0.02
744.078	0.02
744.391	0.02
744.703	0.02
745.015	0.02
745.327	0.02
745.639	0.02
745.952	0.02
746.264	0.02
746.575	0.02
746.887	0.02
747.199	0.02
747.511	0.02
747.823	0.02
748.134	0.02
748.446	0.02
748.757	0.02
749.069	0.02
749.38	0.02
749.692	0.02
750.003	0.02
750.314	0.02
750.625	0.01
750.936	0.01
751.248	0.01
751.559	0.01
751.869	0.01
752.18	0.01
752.491	0.01
752.802	0.01
753.112	0.01
753.423	0.01
753.734	0.01
754.044	0.01
754.355	0.01
754.665	0.01
754.975	0
755.285	0
755.596	0
755.906	0.01
756.216	0.01
756.526	0.01
756.836	0.01
757.146	0
757.455	0
757.765	0
758.075	0
758.385	0
758.694	0
759.004	0
759.313	0
759.622	0
759.932	0
760.241	0
760.55	0
760.859	0
761.168	0
761.477	0
761.786	0
762.095	0
762.404	0
762.713	0
763.021	0
763.33	0
763.639	0
763.947	0.01
764.256	0.01
764.564	0.01
764.872	0.01
765.181	0.01
765.489	0.01
765.797	0.01
766.105	0.01
766.413	0
766.721	0
767.029	0.01
767.337	0.01
767.644	0.01
767.952	0.01
768.26	0.01
768.567	0.01
768.875	0.01
769.182	0.01
769.49	0.01
769.797	0.01
770.104	0.01
770.411	0.02
770.718	0.01
771.026	0.02
771.333	0.02
771.639	0.02
771.946	0.02
772.253	0.02
772.56	0.02
772.867	0.02
773.173	0.02
773.48	0.02
773.786	0.02
774.093	0.02
774.399	0.02
774.705	0.02
775.012	0.02
775.318	0.02
775.624	0.02
775.93	0.02
776.236	0.02
776.542	0.02
776.848	0.02
777.154	0.02
777.459	0.02
777.765	0.02
778.071	0.02
778.376	0.02
778.682	0.01
778.987	0.02
779.292	0.02
779.598	0.02
779.903	0.02
780.208	0.02
780.513	0.02
780.818	0.02
781.123	0.02
781.428	0.02
781.733	0.02
782.038	0.02
782.343	0.02
782.647	0.02
782.952	0.02
783.256	0.02
783.561	0.02
783.865	0.02
784.17	0.02
784.474	0.02
784.778	0.02
785.082	0.02
785.386	0.02
785.69	0.02
785.994	0.02
786.298	0.02
786.602	0.02
786.906	0.02
787.209	0.02
787.513	0.02
787.817	0.02
788.12	0.02
788.424	0.02
788.727	0.02
789.03	0.01
789.333	0.01
789.637	0.01
789.94	0.01
790.243	0.02
790.546	0.02
790.849	0.02
791.152	0.02
791.454	0.02
791.757	0.02
792.06	0.02
792.362	0.02
792.665	0.02
792.967	0.02
793.27	0.02
793.572	0.02
793.874	0.02
794.177	0.02
794.479	0.02
794.781	0.02
795.083	0.02
795.385	0.02
795.687	0.02
795.989	0.02
796.29	0.02
796.592	0.02
796.894	0.02
797.195	0.02
797.497	0.02
797.798	0.02
798.1	0.02
798.401	0.02
798.702	0.02
799.003	0.02
799.304	0.02
799.605	0.02
799.906	0.02
800.207	0.02
800.508	0.03
800.809	0.03
801.11	0.03
801.41	0.03
801.711	0.03
802.011	0.03
802.312	0.02
802.612	0.03
802.913	0.02
803.213	0.02
803.513	0.02
803.813	0.02
804.113	0.02
804.413	0.02
804.713	0.02
805.013	0.02
805.313	0.02
805.613	0.02
805.912	0.03
806.212	0.03
806.511	0.03
806.811	0.03
807.11	0.02
807.41	0.02
807.709	0.02
808.008	0.02
808.307	0.02
808.606	0.03
808.905	0.02
809.204	0.02
809.503	0.02
809.802	0.02
810.101	0.02
810.399	0.03
810.698	0.02
810.997	0.02
811.295	0.02
811.593	0.02
811.892	0.03
812.19	0.02
812.488	0.02
812.786	0.02
813.084	0.02
813.383	0.02
813.68	0.02
813.978	0.02
814.276	0.02
814.574	0.03
814.872	0.03
815.169	0.03
815.467	0.03
815.764	0.03
816.062	0.03
816.359	0.03
816.656	0.03
816.954	0.03
817.251	0.03
817.548	0.03
817.845	0.03
818.142	0.03
818.439	0.03
818.735	0.03
819.032	0.03
819.329	0.03
819.626	0.03
819.922	0.03
820.219	0.03
820.515	0.03
820.811	0.03
821.108	0.03
821.404	0.03
821.7	0.03
821.996	0.03
822.292	0.04
822.588	0.03
822.884	0.04
823.18	0.04
823.475	0.03
823.771	0.04
824.067	0.03
824.362	0.03
824.658	0.03
824.953	0.03
825.249	0.03
825.544	0.02
825.839	0.03
826.134	0.03
826.429	0.03
826.724	0.03
827.019	0.03
827.314	0.03
827.609	0.03
827.904	0.03
828.198	0.04
828.493	0.04
828.787	0.04
829.082	0.04
829.376	0.03
829.671	0.03
829.965	0.04
830.259	0.04
830.553	0.04
830.847	0.04
831.141	0.04
831.435	0.04
831.729	0.03
832.023	0.03
832.317	0.03
832.61	0.03
832.904	0.03
833.197	0.04
833.491	0.03
833.784	0.03
834.077	0.03
834.371	0.03
834.664	0.04
834.957	0.04
835.25	0.04
835.543	0.04
835.836	0.04
836.129	0.03
836.421	0.04
836.714	0.04
837.007	0.04
837.299	0.04
837.592	0.04
837.884	0.04
838.177	0.04
838.469	0.04
838.761	0.04
839.053	0.04
839.345	0.04
839.637	0.03
839.929	0.03
840.221	0.03
840.513	0.04
840.805	0.04
841.096	0.04
841.388	0.04
841.68	0.04
841.971	0.04
842.262	0.04
842.554	0.04
842.845	0.03
843.136	0.03
843.427	0.03
843.718	0.03
844.009	0.03
844.3	0.04
844.591	0.04
844.882	0.04
845.173	0.04
845.463	0.04
845.754	0.04
846.044	0.04
846.335	0.04
846.625	0.03
846.915	0.04
847.206	0.04
847.496	0.04
847.786	0.04
848.076	0.05
848.366	0.03
848.656	0.04
848.945	0.04
849.235	0.04
849.525	0.04
849.814	0.04
850.104	0.04
850.393	0.05
850.683	0.05
850.972	0.04
851.261	0.04
851.551	0.05
851.84	0.04
852.129	0.05
852.418	0.04
852.707	0.03
852.995	0.05
853.284	0.05
853.573	0.04
853.862	0.05
854.15	0.04
854.439	0.04
854.727	0.05
855.015	0.04
855.304	0.05
855.592	0.05
855.88	0.04
856.168	0.05
856.456	0.05
856.744	0.05
857.032	0.06
857.32	0.05
857.607	0.05
857.895	0.04
858.183	0.05
858.47	0.04
858.757	0.04
859.045	0.05
859.332	0.05
859.619	0.05
859.907	0.06
860.194	0.07
860.481	0.05
860.768	0.06
861.054	0.04
861.341	0.06
861.628	0.05
861.915	0.05
862.201	0.05
862.488	0.04
862.774	0.05
863.061	0.06
863.347	0.05
863.633	0.04
863.919	0.07
864.205	0.05
864.491	0.04
864.777	0.04
865.063	0.04
865.349	0.03
865.635	0.03
865.92	0.02
866.206	0.04
866.492	0.05
866.777	0.07
867.062	0.03
867.348	0.04
867.633	0.03
867.918	0.06
868.203	0.07
868.488	0.03
868.773	0.05
869.058	0.05
869.343	0.03
869.628	0.05
869.912	0.06
870.197	0.03
870.482	0.04
870.766	0.04
871.05	0.04
871.335	0.01
871.619	0.03
871.903	0.02
872.187	0.03
872.471	0.04
872.755	0.08
873.039	-0
873.323	0.03
873.607	0.09
873.89	0.01
874.174	0.05
874.458	0.04
874.741	0.06
875.024	0.02
875.308	0.03
875.591	0.04
875.874	0.02
876.157	0.04
876.44	0.04
876.723	0.04
877.006	0.04
877.289	0.02
877.572	0.04
877.854	0.05
878.137	0.02
878.42	0.06
878.702	0.04
878.984	0.01
879.267	-0.01
879.549	0.08
879.831	0.01
880.113	0.04
880.395	-0.05
880.677	-0.03
880.959	-0.02
