Data from Rubpy_BV_600_EDTA_Buffered_Absorbance_12-49-02-457.txt Node
Date: Wed Jul 01 12:49:02 BST 2026
User: fpm-admin
Spectrometer: OFX00224
Trigger mode: 0
Integration Time (sec): 7.000000E-2
Scans to average: 3
Nonlinearity correction enabled: false
Boxcar width: 0
Storing dark spectrum: false
XAxis mode: Wavelengths
Number of Pixels in Spectrum: 2136
>>>>>Begin Spectral Data<<<<<
154.91	-0.39
155.289	-0
155.669	-0
156.048	-0
156.428	-0
156.807	-0
157.186	-0.11
157.566	-0.3
157.945	0.28
158.325	0.77
158.704	-0
159.083	-0
159.462	0.1
159.842	0.35
160.221	0.01
160.6	-0
160.979	-0
161.359	0.05
161.738	-0
162.117	-0
162.496	-0
162.875	-0
163.254	-0
163.633	-0
164.012	-0.21
164.391	-0
164.77	-0.13
165.149	-0.16
165.528	-0
165.907	-0
166.286	-0
166.665	-0.07
167.044	-0
167.423	-0.12
167.802	-0
168.181	0.12
168.559	0.06
168.938	-1.23
169.317	-0.45
169.696	0.3
170.074	-0
170.453	-0
170.832	0.31
171.21	-0.88
171.589	-0
171.968	0.59
172.346	-0.03
172.725	-0
173.103	0.05
173.482	1.18
173.861	-0
174.239	-0
174.617	-0
174.996	-0.15
175.374	-0
175.753	-0
176.131	-0.17
176.51	0.02
176.888	-0
177.266	1.03
177.645	0
178.023	0.84
178.401	-0.4
178.779	0.06
179.158	-0.02
179.536	0.02
179.914	-0.03
180.292	-0
180.67	-0.03
181.048	0.41
181.427	-0.03
181.805	-0
182.183	0.12
182.561	1
182.939	0.21
183.317	0.65
183.695	0.21
184.073	-0
184.451	-0.48
184.829	-0
185.206	-0.22
185.584	0.22
185.962	-0
186.34	-0.6
186.718	-0.6
187.096	-0
187.473	-0
187.851	-0.08
188.229	-0.65
188.607	0.12
188.984	0.15
189.362	0.1
189.74	0.1
190.117	0.09
190.495	0.13
190.872	0.04
191.25	0.07
191.627	0.11
192.005	0.19
192.382	0.14
192.76	0.04
193.137	0.06
193.515	0.03
193.892	0.16
194.269	0.09
194.647	0.12
195.024	0.03
195.401	0.16
195.779	0.02
196.156	0.06
196.533	0.14
196.91	0.11
197.288	0.03
197.665	0.11
198.042	0.17
198.419	0.05
198.796	0.09
199.173	0.05
199.55	0.12
199.927	0.06
200.304	0.12
200.681	0.23
201.058	0.01
201.435	0.04
201.812	0.14
202.189	0.17
202.566	0.06
202.943	0.18
203.32	0.04
203.697	0.07
204.073	0.14
204.45	0.02
204.827	0.16
205.204	0.01
205.58	0.19
205.957	0.2
206.334	0.23
206.71	0.21
207.087	0.04
207.464	0.18
207.84	0.15
208.217	0.08
208.593	0.16
208.97	0.09
209.346	0.14
209.723	0.01
210.099	0.03
210.476	0.22
210.852	0.06
211.228	0.15
211.605	0.06
211.981	0.14
212.357	0.09
212.733	0.19
213.11	0.24
213.486	0.01
213.862	0.14
214.238	0.12
214.614	0.14
214.991	0.13
215.367	0.18
215.743	0.11
216.119	0.06
216.495	0.19
216.871	0.24
217.247	0.05
217.623	0.12
217.999	0.13
218.375	0.11
218.751	0.2
219.127	0.04
219.502	0.19
219.878	0.18
220.254	0.07
220.63	0.07
221.006	0.09
221.381	0.17
221.757	0.15
222.133	0.14
222.508	0.15
222.884	0.13
223.26	0.06
223.635	0.11
224.011	0.13
224.386	0.16
224.762	0.19
225.137	0.17
225.513	0.14
225.888	0.12
226.264	0.19
226.639	0.2
227.014	0.1
227.39	0.17
227.765	0.19
228.14	0.11
228.516	0.21
228.891	0.15
229.266	0.14
229.641	0.21
230.017	0.11
230.392	0.13
230.767	0.1
231.142	0.13
231.517	0.1
231.892	0.21
232.267	0.2
232.642	0.13
233.017	0.12
233.392	0.1
233.767	0.21
234.142	0.24
234.517	0.16
234.892	0.25
235.267	0.14
235.641	0.18
236.016	0.29
236.391	0.16
236.766	0.21
237.14	0.11
237.515	0.12
237.89	0.1
238.264	0.1
238.639	0.07
239.014	0.15
239.388	0.15
239.763	0.21
240.137	0.11
240.512	0.09
240.886	0.07
241.261	0.3
241.635	0.22
242.009	0.16
242.384	0.19
242.758	0.06
243.132	0.18
243.507	0.11
243.881	0.17
244.255	0.21
244.629	0.09
245.004	0.07
245.378	0.1
245.752	0.03
246.126	0.18
246.5	0.03
246.874	0.14
247.248	0.14
247.622	0.16
247.996	0.16
248.37	0.24
248.744	0.23
249.118	0.18
249.492	0.17
249.866	0.15
250.24	0.17
250.613	0.27
250.987	0.18
251.361	0.15
251.735	0.11
252.108	0.13
252.482	0.14
252.856	0.1
253.229	0.04
253.603	0.09
253.977	0.06
254.35	0.13
254.724	0.22
255.097	0.2
255.471	0.16
255.844	0.17
256.218	0.06
256.591	0.14
256.964	0.18
257.338	0.11
257.711	0.2
258.084	0.14
258.458	0.13
258.831	0.19
259.204	0.14
259.577	0.19
259.95	0.11
260.323	0.16
260.697	0.26
261.07	0.15
261.443	0.24
261.816	0.19
262.189	0.1
262.562	0.13
262.935	0.07
263.308	0.15
263.68	0.14
264.053	0.11
264.426	0.17
264.799	0.17
265.172	0.19
265.545	0.2
265.917	0.1
266.29	0.2
266.663	0.21
267.035	0.13
267.408	0.2
267.781	0.18
268.153	0.14
268.526	0.14
268.898	0.13
269.271	0.12
269.643	0.08
270.016	0.15
270.388	0.17
270.76	0.08
271.133	0.17
271.505	0.15
271.877	0.09
272.25	0.17
272.622	0.24
272.994	0.16
273.366	0.19
273.739	0.22
274.111	0.2
274.483	0.19
274.855	0.17
275.227	0.15
275.599	0.14
275.971	0.06
276.343	0.14
276.715	0.19
277.087	0.16
277.459	0.08
277.831	0.15
278.203	0.13
278.574	0.15
278.946	0.1
279.318	0.2
279.69	0.23
280.061	0.14
280.433	0.11
280.805	0.17
281.176	0.25
281.548	0.16
281.92	0.16
282.291	0.22
282.663	0.17
283.034	0.25
283.406	0.13
283.777	0.23
284.148	0.14
284.52	0.16
284.891	0.22
285.262	0.18
285.634	0.16
286.005	0.18
286.376	0.16
286.747	0.13
287.119	0.19
287.49	0.16
287.861	0.14
288.232	0.15
288.603	0.13
288.974	0.16
289.345	0.14
289.716	0.12
290.087	0.15
290.458	0.14
290.829	0.13
291.2	0.18
291.571	0.1
291.941	0.1
292.312	0.2
292.683	0.11
293.054	0.17
293.424	0.12
293.795	0.16
294.166	0.17
294.536	0.12
294.907	0.22
295.277	0.16
295.648	0.18
296.018	0.17
296.389	0.18
296.759	0.18
297.13	0.16
297.5	0.21
297.871	0.11
298.241	0.1
298.611	0.12
298.981	0.09
299.352	0.19
299.722	0.14
300.092	0.12
300.462	0.07
300.832	0.11
301.202	0.15
301.573	0.13
301.943	0.11
302.313	0.1
302.683	0.11
303.053	0.13
303.422	0.1
303.792	0.08
304.162	0.09
304.532	0.08
304.902	0.09
305.272	0.09
305.641	0.1
306.011	0.07
306.381	0.08
306.75	0.08
307.12	0.09
307.49	0.06
307.859	0.08
308.229	0.09
308.598	0.09
308.968	0.1
309.337	0.1
309.707	0.1
310.076	0.12
310.445	0.1
310.815	0.11
311.184	0.1
311.553	0.12
311.923	0.13
312.292	0.13
312.661	0.13
313.03	0.12
313.399	0.13
313.768	0.13
314.137	0.14
314.506	0.14
314.875	0.14
315.244	0.15
315.613	0.14
315.982	0.15
316.351	0.16
316.72	0.15
317.089	0.16
317.458	0.16
317.826	0.17
318.195	0.17
318.564	0.17
318.933	0.18
319.301	0.18
319.67	0.18
320.038	0.18
320.407	0.17
320.775	0.19
321.144	0.19
321.512	0.18
321.881	0.19
322.249	0.2
322.618	0.2
322.986	0.19
323.354	0.2
323.723	0.2
324.091	0.21
324.459	0.2
324.827	0.21
325.195	0.22
325.564	0.22
325.932	0.22
326.3	0.23
326.668	0.22
327.036	0.23
327.404	0.23
327.772	0.24
328.14	0.24
328.508	0.24
328.875	0.25
329.243	0.26
329.611	0.25
329.979	0.26
330.346	0.27
330.714	0.27
331.082	0.27
331.449	0.28
331.817	0.27
332.185	0.28
332.552	0.29
332.92	0.29
333.287	0.3
333.655	0.31
334.022	0.31
334.389	0.32
334.757	0.32
335.124	0.33
335.491	0.33
335.859	0.34
336.226	0.35
336.593	0.35
336.96	0.37
337.327	0.38
337.695	0.38
338.062	0.38
338.429	0.39
338.796	0.4
339.163	0.4
339.53	0.41
339.897	0.42
340.263	0.42
340.63	0.43
340.997	0.44
341.364	0.44
341.731	0.45
342.097	0.46
342.464	0.47
342.831	0.47
343.197	0.48
343.564	0.49
343.931	0.5
344.297	0.5
344.664	0.51
345.03	0.53
345.396	0.53
345.763	0.53
346.129	0.55
346.496	0.55
346.862	0.56
347.228	0.57
347.594	0.57
347.961	0.58
348.327	0.59
348.693	0.6
349.059	0.6
349.425	0.61
349.791	0.62
350.157	0.63
350.523	0.63
350.889	0.63
351.255	0.65
351.621	0.65
351.987	0.65
352.353	0.68
352.719	0.68
353.084	0.69
353.45	0.69
353.816	0.71
354.181	0.71
354.547	0.72
354.913	0.73
355.278	0.74
355.644	0.75
356.009	0.76
356.375	0.77
356.74	0.77
357.106	0.78
357.471	0.8
357.836	0.8
358.202	0.82
358.567	0.83
358.932	0.84
359.297	0.84
359.663	0.86
360.028	0.88
360.393	0.88
360.758	0.9
361.123	0.92
361.488	0.92
361.853	0.93
362.218	0.95
362.583	0.95
362.948	0.97
363.312	0.97
363.677	0.99
364.042	1
364.407	1.01
364.772	1.02
365.136	1.03
365.501	1.03
365.865	1.06
366.23	1.05
366.595	1.08
366.959	1.08
367.324	1.08
367.688	1.09
368.052	1.1
368.417	1.12
368.781	1.11
369.145	1.13
369.51	1.14
369.874	1.15
370.238	1.16
370.602	1.16
370.967	1.17
371.331	1.17
371.695	1.18
372.059	1.19
372.423	1.19
372.787	1.19
373.151	1.19
373.515	1.18
373.878	1.18
374.242	1.18
374.606	1.17
374.97	1.16
375.334	1.15
375.697	1.15
376.061	1.14
376.425	1.13
376.788	1.1
377.152	1.12
377.515	1.1
377.879	1.08
378.242	1.06
378.606	1.06
378.969	1.05
379.333	1.03
379.696	1.02
380.059	1.02
380.422	1.01
380.786	1
381.149	0.99
381.512	0.96
381.875	0.97
382.238	0.95
382.601	0.94
382.964	0.93
383.327	0.92
383.69	0.92
384.053	0.91
384.416	0.91
384.779	0.9
385.142	0.89
385.504	0.89
385.867	0.88
386.23	0.88
386.593	0.88
386.955	0.87
387.318	0.88
387.68	0.88
388.043	0.88
388.405	0.88
388.768	0.88
389.13	0.88
389.493	0.88
389.855	0.87
390.217	0.87
390.58	0.85
390.942	0.85
391.304	0.85
391.666	0.84
392.028	0.83
392.391	0.82
392.753	0.8
393.115	0.8
393.477	0.79
393.839	0.79
394.201	0.77
394.563	0.77
394.924	0.78
395.286	0.77
395.648	0.77
396.01	0.78
396.371	0.78
396.733	0.8
397.095	0.82
397.456	0.83
397.818	0.85
398.18	0.86
398.541	0.88
398.903	0.91
399.264	0.93
399.625	0.95
399.987	0.97
400.348	1
400.709	1
401.071	1.01
401.432	1.02
401.793	1.02
402.154	1
402.515	1
402.876	0.98
403.238	0.97
403.599	0.94
403.96	0.91
404.32	0.88
404.681	0.85
405.042	0.83
405.403	0.78
405.764	0.74
406.125	0.71
406.485	0.67
406.846	0.64
407.207	0.6
407.567	0.57
407.928	0.55
408.288	0.51
408.649	0.48
409.009	0.45
409.37	0.43
409.73	0.41
410.091	0.39
410.451	0.36
410.811	0.33
411.171	0.32
411.532	0.31
411.892	0.29
412.252	0.28
412.612	0.26
412.972	0.25
413.332	0.25
413.692	0.23
414.052	0.22
414.412	0.21
414.772	0.2
415.132	0.2
415.492	0.19
415.851	0.18
416.211	0.17
416.571	0.17
416.931	0.16
417.29	0.16
417.65	0.16
418.009	0.15
418.369	0.15
418.728	0.14
419.088	0.14
419.447	0.14
419.807	0.13
420.166	0.13
420.525	0.13
420.884	0.13
421.244	0.12
421.603	0.12
421.962	0.12
422.321	0.12
422.68	0.11
423.039	0.11
423.398	0.11
423.757	0.1
424.116	0.11
424.475	0.11
424.834	0.1
425.193	0.1
425.551	0.1
425.91	0.1
426.269	0.11
426.628	0.09
426.986	0.1
427.345	0.1
427.703	0.09
428.062	0.09
428.42	0.1
428.779	0.09
429.137	0.09
429.496	0.09
429.854	0.09
430.212	0.09
430.57	0.1
430.929	0.09
431.287	0.08
431.645	0.09
432.003	0.09
432.361	0.09
432.719	0.09
433.077	0.09
433.435	0.09
433.793	0.08
434.151	0.08
434.509	0.09
434.866	0.09
435.224	0.09
435.582	0.08
435.94	0.08
436.297	0.09
436.655	0.08
437.012	0.09
437.37	0.09
437.727	0.08
438.085	0.08
438.442	0.08
438.8	0.08
439.157	0.08
439.514	0.08
439.872	0.09
440.229	0.09
440.586	0.08
440.943	0.08
441.3	0.08
441.657	0.09
442.014	0.08
442.371	0.08
442.728	0.08
443.085	0.09
443.442	0.09
443.799	0.09
444.156	0.09
444.513	0.08
444.869	0.08
445.226	0.08
445.583	0.09
445.939	0.08
446.296	0.08
446.652	0.09
447.009	0.09
447.365	0.1
447.722	0.08
448.078	0.08
448.434	0.08
448.791	0.09
449.147	0.09
449.503	0.08
449.859	0.08
450.215	0.09
450.571	0.08
450.928	0.09
451.284	0.08
451.64	0.08
451.995	0.08
452.351	0.08
452.707	0.08
453.063	0.08
453.419	0.08
453.775	0.09
454.13	0.08
454.486	0.08
454.842	0.08
455.197	0.08
455.553	0.08
455.908	0.08
456.264	0.09
456.619	0.08
456.975	0.08
457.33	0.08
457.685	0.08
458.04	0.08
458.396	0.08
458.751	0.07
459.106	0.07
459.461	0.07
459.816	0.07
460.171	0.07
460.526	0.07
460.881	0.07
461.236	0.07
461.591	0.06
461.946	0.07
462.301	0.07
462.655	0.07
463.01	0.07
463.365	0.06
463.719	0.05
464.074	0.06
464.428	0.05
464.783	0.06
465.137	0.05
465.492	0.05
465.846	0.06
466.201	0.06
466.555	0.07
466.909	0.06
467.263	0.07
467.618	0.07
467.972	0.07
468.326	0.06
468.68	0.06
469.034	0.06
469.388	0.06
469.742	0.06
470.096	0.07
470.45	0.07
470.804	0.07
471.157	0.07
471.511	0.08
471.865	0.08
472.218	0.08
472.572	0.08
472.926	0.08
473.279	0.09
473.633	0.09
473.986	0.09
474.34	0.1
474.693	0.11
475.046	0.11
475.4	0.12
475.753	0.12
476.106	0.13
476.459	0.13
476.812	0.14
477.165	0.14
477.519	0.14
477.872	0.15
478.224	0.15
478.577	0.16
478.93	0.16
479.283	0.16
479.636	0.17
479.989	0.17
480.341	0.17
480.694	0.17
481.047	0.18
481.399	0.19
481.752	0.19
482.104	0.19
482.457	0.19
482.809	0.19
483.162	0.2
483.514	0.2
483.866	0.21
484.219	0.21
484.571	0.21
484.923	0.21
485.275	0.22
485.627	0.22
485.979	0.22
486.331	0.23
486.683	0.23
487.035	0.23
487.387	0.23
487.739	0.23
488.091	0.24
488.443	0.24
488.794	0.25
489.146	0.24
489.498	0.25
489.849	0.25
490.201	0.26
490.552	0.25
490.904	0.26
491.255	0.26
491.607	0.26
491.958	0.26
492.309	0.27
492.661	0.27
493.012	0.27
493.363	0.27
493.714	0.27
494.065	0.27
494.416	0.28
494.767	0.28
495.118	0.29
495.469	0.29
495.82	0.3
496.171	0.29
496.522	0.29
496.872	0.3
497.223	0.3
497.574	0.3
497.924	0.3
498.275	0.3
498.626	0.31
498.976	0.32
499.327	0.32
499.677	0.32
500.027	0.32
500.378	0.32
500.728	0.32
501.078	0.33
501.428	0.33
501.779	0.33
502.129	0.33
502.479	0.34
502.829	0.34
503.179	0.34
503.529	0.35
503.879	0.35
504.229	0.35
504.578	0.35
504.928	0.36
505.278	0.36
505.628	0.36
505.977	0.36
506.327	0.36
506.676	0.37
507.026	0.37
507.375	0.37
507.725	0.37
508.074	0.38
508.424	0.38
508.773	0.37
509.122	0.38
509.471	0.38
509.82	0.38
510.17	0.39
510.519	0.39
510.868	0.39
511.217	0.39
511.566	0.39
511.915	0.4
512.263	0.4
512.612	0.41
512.961	0.4
513.31	0.4
513.659	0.4
514.007	0.41
514.356	0.41
514.704	0.41
515.053	0.41
515.401	0.41
515.75	0.42
516.098	0.42
516.447	0.42
516.795	0.43
517.143	0.43
517.491	0.44
517.839	0.43
518.188	0.44
518.536	0.44
518.884	0.44
519.232	0.44
519.58	0.44
519.928	0.44
520.275	0.44
520.623	0.45
520.971	0.45
521.319	0.45
521.666	0.45
522.014	0.45
522.362	0.46
522.709	0.45
523.057	0.46
523.404	0.46
523.752	0.46
524.099	0.46
524.446	0.47
524.794	0.46
525.141	0.47
525.488	0.47
525.835	0.47
526.182	0.47
526.529	0.48
526.876	0.48
527.223	0.48
527.57	0.48
527.917	0.48
528.264	0.48
528.611	0.49
528.958	0.49
529.304	0.48
529.651	0.49
529.998	0.49
530.344	0.49
530.691	0.49
531.037	0.49
531.384	0.49
531.73	0.49
532.076	0.5
532.423	0.5
532.769	0.5
533.115	0.5
533.461	0.5
533.807	0.5
534.154	0.5
534.5	0.5
534.846	0.5
535.192	0.51
535.537	0.51
535.883	0.5
536.229	0.5
536.575	0.51
536.921	0.51
537.266	0.51
537.612	0.51
537.957	0.52
538.303	0.51
538.649	0.52
538.994	0.52
539.339	0.52
539.685	0.52
540.03	0.52
540.375	0.53
540.721	0.52
541.066	0.52
541.411	0.53
541.756	0.53
542.101	0.52
542.446	0.53
542.791	0.53
543.136	0.53
543.481	0.53
543.825	0.53
544.17	0.53
544.515	0.53
544.86	0.54
545.204	0.53
545.549	0.53
545.893	0.53
546.238	0.54
546.582	0.54
546.927	0.54
547.271	0.54
547.615	0.54
547.96	0.54
548.304	0.54
548.648	0.54
548.992	0.54
549.336	0.54
549.68	0.54
550.024	0.55
550.368	0.55
550.712	0.55
551.056	0.54
551.4	0.55
551.743	0.55
552.087	0.55
552.431	0.54
552.774	0.55
553.118	0.55
553.462	0.54
553.805	0.54
554.148	0.55
554.492	0.54
554.835	0.55
555.178	0.55
555.522	0.54
555.865	0.54
556.208	0.54
556.551	0.54
556.894	0.54
557.237	0.54
557.58	0.54
557.923	0.54
558.266	0.54
558.609	0.54
558.952	0.54
559.294	0.55
559.637	0.54
559.98	0.54
560.322	0.54
560.665	0.54
561.007	0.54
561.35	0.54
561.692	0.54
562.034	0.54
562.377	0.54
562.719	0.54
563.061	0.54
563.403	0.54
563.745	0.54
564.088	0.54
564.43	0.54
564.772	0.54
565.113	0.53
565.455	0.53
565.797	0.53
566.139	0.53
566.481	0.53
566.822	0.53
567.164	0.53
567.506	0.53
567.847	0.53
568.189	0.53
568.53	0.53
568.872	0.53
569.213	0.53
569.554	0.53
569.895	0.53
570.237	0.52
570.578	0.52
570.919	0.52
571.26	0.52
571.601	0.52
571.942	0.52
572.283	0.52
572.624	0.52
572.965	0.51
573.306	0.51
573.646	0.5
573.987	0.5
574.328	0.5
574.668	0.51
575.009	0.5
575.349	0.5
575.69	0.49
576.03	0.49
576.37	0.48
576.711	0.47
577.051	0.47
577.391	0.48
577.731	0.49
578.072	0.49
578.412	0.48
578.752	0.48
579.092	0.47
579.431	0.44
579.771	0.41
580.111	0.4
580.451	0.41
580.791	0.44
581.13	0.46
581.47	0.47
581.81	0.47
582.149	0.46
582.489	0.47
582.828	0.44
583.167	0.4
583.507	0.36
583.846	0.35
584.185	0.37
584.525	0.4
584.864	0.43
585.203	0.46
585.542	0.48
585.881	0.48
586.22	0.48
586.559	0.45
586.898	0.42
587.236	0.41
587.575	0.41
587.914	0.42
588.252	0.44
588.591	0.45
588.93	0.45
589.268	0.44
589.607	0.44
589.945	0.44
590.283	0.44
590.622	0.45
590.96	0.47
591.298	0.48
591.636	0.47
591.974	0.47
592.313	0.48
592.651	0.48
592.989	0.48
593.326	0.48
593.664	0.48
594.002	0.48
594.34	0.47
594.678	0.45
595.015	0.43
595.353	0.42
595.691	0.43
596.028	0.46
596.366	0.47
596.703	0.47
597.04	0.47
597.378	0.47
597.715	0.48
598.052	0.48
598.389	0.48
598.726	0.48
599.064	0.48
599.401	0.48
599.738	0.48
600.074	0.48
600.411	0.47
600.748	0.45
601.085	0.44
601.422	0.43
601.758	0.43
602.095	0.44
602.432	0.44
602.768	0.44
603.105	0.46
603.441	0.47
603.777	0.48
604.114	0.48
604.45	0.47
604.786	0.48
605.122	0.47
605.459	0.47
605.795	0.46
606.131	0.46
606.467	0.47
606.803	0.47
607.139	0.47
607.474	0.46
607.81	0.45
608.146	0.45
608.482	0.45
608.817	0.45
609.153	0.45
609.488	0.44
609.824	0.45
610.159	0.45
610.495	0.45
610.83	0.45
611.165	0.46
611.5	0.45
611.836	0.45
612.171	0.45
612.506	0.45
612.841	0.45
613.176	0.45
613.511	0.45
613.845	0.45
614.18	0.45
614.515	0.45
614.85	0.44
615.184	0.44
615.519	0.44
615.854	0.44
616.188	0.44
616.523	0.43
616.857	0.43
617.191	0.43
617.526	0.43
617.86	0.43
618.194	0.42
618.528	0.42
618.862	0.43
619.196	0.42
619.53	0.42
619.864	0.42
620.198	0.42
620.532	0.42
620.866	0.42
621.2	0.42
621.533	0.42
621.867	0.42
622.201	0.41
622.534	0.41
622.868	0.41
623.201	0.41
623.534	0.41
623.868	0.41
624.201	0.4
624.534	0.4
624.868	0.4
625.201	0.4
625.534	0.4
625.867	0.4
626.2	0.39
626.533	0.39
626.865	0.39
627.198	0.39
627.531	0.39
627.864	0.38
628.196	0.38
628.529	0.38
628.862	0.38
629.194	0.38
629.527	0.37
629.859	0.37
630.191	0.37
630.524	0.37
630.856	0.37
631.188	0.36
631.52	0.36
631.852	0.36
632.184	0.36
632.516	0.35
632.848	0.35
633.18	0.35
633.512	0.35
633.844	0.35
634.175	0.35
634.507	0.35
634.839	0.34
635.17	0.34
635.502	0.34
635.833	0.33
636.165	0.33
636.496	0.33
636.827	0.33
637.159	0.33
637.49	0.32
637.821	0.32
638.152	0.32
638.483	0.31
638.814	0.31
639.145	0.31
639.476	0.31
639.807	0.3
640.137	0.3
640.468	0.3
640.799	0.3
641.129	0.3
641.46	0.3
641.791	0.3
642.121	0.29
642.451	0.29
642.782	0.29
643.112	0.29
643.442	0.29
643.773	0.29
644.103	0.28
644.433	0.28
644.763	0.28
645.093	0.28
645.423	0.28
645.753	0.27
646.082	0.27
646.412	0.27
646.742	0.27
647.072	0.27
647.401	0.27
647.731	0.27
648.06	0.26
648.39	0.26
648.719	0.26
649.048	0.26
649.378	0.26
649.707	0.26
650.036	0.26
650.365	0.26
650.694	0.25
651.023	0.25
651.352	0.25
651.681	0.25
652.01	0.25
652.339	0.25
652.668	0.25
652.996	0.25
653.325	0.25
653.654	0.25
653.982	0.25
654.311	0.25
654.639	0.25
654.967	0.24
655.296	0.24
655.624	0.24
655.952	0.24
656.28	0.24
656.609	0.24
656.937	0.24
657.265	0.23
657.593	0.08
657.92	0
658.248	0
658.576	0
658.904	0.05
659.231	0.13
659.559	0.19
659.887	0.23
660.214	0.23
660.542	0.23
660.869	0.23
661.196	0.23
661.524	0.23
661.851	0.23
662.178	0.23
662.505	0.23
662.832	0.22
663.159	0.22
663.486	0.22
663.813	0.22
664.14	0.22
664.467	0.22
664.794	0.22
665.12	0.22
665.447	0.22
665.774	0.22
666.1	0.22
666.427	0.21
666.753	0.22
667.079	0.21
667.406	0.21
667.732	0.21
668.058	0.21
668.384	0.21
668.71	0.21
669.036	0.2
669.362	0.2
669.688	0.2
670.014	0.2
670.34	0.2
670.666	0.2
670.991	0.2
671.317	0.2
671.643	0.19
671.968	0.19
672.294	0.19
672.619	0.19
672.945	0.18
673.27	0.18
673.595	0.18
673.92	0.17
674.246	0.17
674.571	0.17
674.896	0.17
675.221	0.17
675.546	0.17
675.87	0.17
676.195	0.17
676.52	0.17
676.845	0.17
677.169	0.17
677.494	0.17
677.819	0.16
678.143	0.16
678.468	0.16
678.792	0.15
679.116	0.15
679.44	0.15
679.765	0.15
680.089	0.14
680.413	0.14
680.737	0.14
681.061	0.13
681.385	0.13
681.709	0.12
682.033	0.12
682.356	0.12
682.68	0.13
683.004	0.12
683.327	0.11
683.651	0.11
683.974	0.11
684.298	0.11
684.621	0.12
684.944	0.11
685.268	0.11
685.591	0.11
685.914	0.1
686.237	0.09
686.56	0.09
686.883	0.08
687.206	0.07
687.529	0.07
687.852	0.06
688.175	0.07
688.497	0.07
688.82	0.07
689.142	0.07
689.465	0.07
689.787	0.07
690.11	0.07
690.432	0.07
690.755	0.07
691.077	0.07
691.399	0.06
691.721	0.06
692.043	0.06
692.365	0.06
692.687	0.06
693.009	0.05
693.331	0.04
693.653	0.04
693.974	0.05
694.296	0.04
694.618	0.05
694.939	0.05
695.261	0.04
695.582	0.04
695.904	0.04
696.225	0.05
696.546	0.05
696.868	0.04
697.189	0.04
697.51	0.04
697.831	0.03
698.152	0.04
698.473	0.03
698.794	0.02
699.114	0.02
699.435	0.01
699.756	0.01
700.077	0.02
700.397	0.02
700.718	0.03
701.038	0.03
701.359	0.03
701.679	0.03
701.999	0.03
702.32	0.03
702.64	0.03
702.96	0.03
703.28	0.03
703.6	0.03
703.92	0.02
704.24	0.02
704.56	0.02
704.879	0.01
705.199	0.02
705.519	0.02
705.838	0.02
706.158	0.02
706.478	0.02
706.797	0.02
707.116	0.02
707.436	0.02
707.755	0.02
708.074	0.02
708.393	0.01
708.712	0.01
709.031	0
709.35	0
709.669	0
709.988	0
710.307	0.01
710.626	0.01
710.944	0.01
711.263	0.01
711.582	0.01
711.9	0.01
712.219	0.01
712.537	0.01
712.855	0.01
713.174	0.01
713.492	0.01
713.81	0.01
714.128	0.01
714.446	0.01
714.764	0.01
715.082	0.01
715.4	0.01
715.718	0.01
716.035	0.01
716.353	0.01
716.671	0.01
716.988	0.01
717.306	0.01
717.623	0.01
717.941	0.01
718.258	0.02
718.575	0.02
718.893	0.02
719.21	0.01
719.527	0.02
719.844	0.01
720.161	0.02
720.478	0.01
720.795	0.01
721.112	0.01
721.428	0.02
721.745	0.02
722.062	0.02
722.378	0.02
722.695	0.02
723.011	0.02
723.328	0.02
723.644	0.02
723.96	0.02
724.276	0.03
724.593	0.02
724.909	0.03
725.225	0.02
725.541	0.03
725.857	0.03
726.173	0.03
726.488	0.04
726.804	0.03
727.12	0.03
727.435	0.03
727.751	0.03
728.067	0.02
728.382	0.03
728.697	0.03
729.013	0.03
729.328	0.03
729.643	0.03
729.958	0.03
730.273	0.03
730.588	0.03
730.903	0.03
731.218	0.03
731.533	0.03
731.848	0.03
732.163	0.03
732.477	0.02
732.792	0.02
733.107	0.01
733.421	0.02
733.736	0.02
734.05	0.03
734.364	0.02
734.678	0.03
734.993	0.02
735.307	0.03
735.621	0.02
735.935	0.02
736.249	0.02
736.563	0.02
736.877	0.03
737.19	0.03
737.504	0.03
737.818	0.03
738.131	0.02
738.445	0.03
738.758	0.04
739.072	0.03
739.385	0.04
739.698	0.04
740.012	0.04
740.325	0.04
740.638	0.03
740.951	0.03
741.264	0.03
741.577	0.03
741.89	0.04
742.203	0.04
742.515	0.05
742.828	0.05
743.141	0.04
743.453	0.05
743.766	0.04
744.078	0.04
744.391	0.04
744.703	0.04
745.015	0.04
745.327	0.04
745.639	0.04
745.952	0.04
746.264	0.03
746.575	0.04
746.887	0.04
747.199	0.04
747.511	0.03
747.823	0.04
748.134	0.04
748.446	0.04
748.757	0.04
749.069	0.03
749.38	0.03
749.692	0.03
750.003	0.03
750.314	0.03
750.625	0.03
750.936	0.02
751.248	0.02
751.559	0.02
751.869	0.02
752.18	0.02
752.491	0.02
752.802	0.02
753.112	0.02
753.423	0.02
753.734	0.02
754.044	0.02
754.355	0.02
754.665	0.02
754.975	0.01
755.285	0.01
755.596	0.01
755.906	0.01
756.216	0.01
756.526	0.01
756.836	0.01
757.146	0.01
757.455	0.01
757.765	0.01
758.075	0.01
758.385	0
758.694	0
759.004	0
759.313	0
759.622	0
759.932	0
760.241	0
760.55	0.01
760.859	0.01
761.168	0.01
761.477	0.01
761.786	0.01
762.095	0.01
762.404	0
762.713	0.01
763.021	0.01
763.33	0.01
763.639	0.01
763.947	0.02
764.256	0.01
764.564	0.02
764.872	0.01
765.181	0.01
765.489	0.01
765.797	0.01
766.105	0.01
766.413	0.01
766.721	0.01
767.029	0.01
767.337	0.01
767.644	0.02
767.952	0.02
768.26	0.02
768.567	0.02
768.875	0.02
769.182	0.02
769.49	0.02
769.797	0.03
770.104	0.02
770.411	0.02
770.718	0.03
771.026	0.03
771.333	0.03
771.639	0.03
771.946	0.03
772.253	0.03
772.56	0.03
772.867	0.03
773.173	0.03
773.48	0.03
773.786	0.03
774.093	0.03
774.399	0.03
774.705	0.03
775.012	0.03
775.318	0.03
775.624	0.03
775.93	0.03
776.236	0.03
776.542	0.03
776.848	0.03
777.154	0.03
777.459	0.03
777.765	0.03
778.071	0.03
778.376	0.03
778.682	0.03
778.987	0.03
779.292	0.03
779.598	0.03
779.903	0.03
780.208	0.03
780.513	0.03
780.818	0.03
781.123	0.03
781.428	0.03
781.733	0.03
782.038	0.03
782.343	0.03
782.647	0.03
782.952	0.03
783.256	0.03
783.561	0.03
783.865	0.03
784.17	0.03
784.474	0.04
784.778	0.03
785.082	0.03
785.386	0.03
785.69	0.03
785.994	0.03
786.298	0.03
786.602	0.03
786.906	0.03
787.209	0.03
787.513	0.03
787.817	0.03
788.12	0.03
788.424	0.03
788.727	0.03
789.03	0.03
789.333	0.02
789.637	0.03
789.94	0.03
790.243	0.03
790.546	0.03
790.849	0.03
791.152	0.03
791.454	0.03
791.757	0.04
792.06	0.04
792.362	0.03
792.665	0.03
792.967	0.03
793.27	0.03
793.572	0.03
793.874	0.03
794.177	0.03
794.479	0.03
794.781	0.03
795.083	0.04
795.385	0.03
795.687	0.03
795.989	0.04
796.29	0.04
796.592	0.03
796.894	0.04
797.195	0.04
797.497	0.04
797.798	0.04
798.1	0.04
798.401	0.04
798.702	0.04
799.003	0.04
799.304	0.04
799.605	0.04
799.906	0.04
800.207	0.04
800.508	0.04
800.809	0.04
801.11	0.04
801.41	0.04
801.711	0.04
802.011	0.04
802.312	0.04
802.612	0.04
802.913	0.04
803.213	0.04
803.513	0.04
803.813	0.03
804.113	0.04
804.413	0.03
804.713	0.03
805.013	0.03
805.313	0.04
805.613	0.04
805.912	0.04
806.212	0.05
806.511	0.04
806.811	0.05
807.11	0.04
807.41	0.04
807.709	0.04
808.008	0.04
808.307	0.04
808.606	0.04
808.905	0.04
809.204	0.04
809.503	0.04
809.802	0.04
810.101	0.04
810.399	0.04
810.698	0.04
810.997	0.04
811.295	0.04
811.593	0.04
811.892	0.04
812.19	0.04
812.488	0.04
812.786	0.04
813.084	0.04
813.383	0.04
813.68	0.04
813.978	0.04
814.276	0.04
814.574	0.04
814.872	0.04
815.169	0.05
815.467	0.05
815.764	0.05
816.062	0.05
816.359	0.05
816.656	0.05
816.954	0.05
817.251	0.05
817.548	0.05
817.845	0.05
818.142	0.05
818.439	0.05
818.735	0.05
819.032	0.05
819.329	0.05
819.626	0.05
819.922	0.05
820.219	0.05
820.515	0.06
820.811	0.05
821.108	0.05
821.404	0.05
821.7	0.05
821.996	0.05
822.292	0.05
822.588	0.05
822.884	0.05
823.18	0.05
823.475	0.05
823.771	0.06
824.067	0.06
824.362	0.06
824.658	0.06
824.953	0.06
825.249	0.05
825.544	0.05
825.839	0.05
826.134	0.05
826.429	0.05
826.724	0.05
827.019	0.06
827.314	0.05
827.609	0.05
827.904	0.05
828.198	0.06
828.493	0.05
828.787	0.05
829.082	0.05
829.376	0.05
829.671	0.06
829.965	0.06
830.259	0.06
830.553	0.06
830.847	0.06
831.141	0.06
831.435	0.06
831.729	0.06
832.023	0.05
832.317	0.06
832.61	0.05
832.904	0.06
833.197	0.06
833.491	0.06
833.784	0.06
834.077	0.06
834.371	0.06
834.664	0.07
834.957	0.07
835.25	0.06
835.543	0.07
835.836	0.06
836.129	0.07
836.421	0.07
836.714	0.06
837.007	0.06
837.299	0.07
837.592	0.07
837.884	0.07
838.177	0.06
838.469	0.06
838.761	0.06
839.053	0.06
839.345	0.06
839.637	0.07
839.929	0.06
840.221	0.06
840.513	0.07
840.805	0.07
841.096	0.06
841.388	0.07
841.68	0.07
841.971	0.07
842.262	0.07
842.554	0.06
842.845	0.06
843.136	0.06
843.427	0.06
843.718	0.06
844.009	0.06
844.3	0.07
844.591	0.07
844.882	0.07
845.173	0.07
845.463	0.07
845.754	0.08
846.044	0.07
846.335	0.07
846.625	0.06
846.915	0.07
847.206	0.08
847.496	0.07
847.786	0.07
848.076	0.08
848.366	0.06
848.656	0.06
848.945	0.07
849.235	0.07
849.525	0.07
849.814	0.07
850.104	0.07
850.393	0.07
850.683	0.08
850.972	0.08
851.261	0.08
851.551	0.07
851.84	0.08
852.129	0.07
852.418	0.07
852.707	0.08
852.995	0.08
853.284	0.07
853.573	0.07
853.862	0.08
854.15	0.07
854.439	0.08
854.727	0.09
855.015	0.09
855.304	0.09
855.592	0.08
855.88	0.09
856.168	0.08
856.456	0.09
856.744	0.08
857.032	0.09
857.32	0.1
857.607	0.09
857.895	0.08
858.183	0.08
858.47	0.09
858.757	0.07
859.045	0.08
859.332	0.07
859.619	0.08
859.907	0.09
860.194	0.1
860.481	0.1
860.768	0.09
861.054	0.09
861.341	0.09
861.628	0.09
861.915	0.08
862.201	0.09
862.488	0.09
862.774	0.09
863.061	0.09
863.347	0.09
863.633	0.08
863.919	0.09
864.205	0.07
864.491	0.06
864.777	0.06
865.063	0.07
865.349	0.06
865.635	0.06
865.92	0.06
866.206	0.06
866.492	0.08
866.777	0.07
867.062	0.08
867.348	0.08
867.633	0.07
867.918	0.09
868.203	0.1
868.488	0.06
868.773	0.09
869.058	0.1
869.343	0.07
869.628	0.09
869.912	0.07
870.197	0.07
870.482	0.07
870.766	0.04
871.05	0.07
871.335	0.07
871.619	0.06
871.903	0.09
872.187	0.07
872.471	0.06
872.755	0.1
873.039	0.03
873.323	0.01
873.607	0.05
873.89	0.04
874.174	0.1
874.458	0.1
874.741	0.09
875.024	0.09
875.308	0.05
875.591	-0.01
875.874	0.03
876.157	0.06
876.44	0.04
876.723	0.11
877.006	0.09
877.289	0.06
877.572	0.07
877.854	0.07
878.137	0.04
878.42	0.11
878.702	0.04
878.984	0.03
879.267	0.03
879.549	-0.01
879.831	0.08
880.113	-0
880.395	-0.06
880.677	0.02
880.959	-0.02
