Data from Rubpy_BV_600_EDTA_Buffered_Absorbance_12-30-35-645.txt Node
Date: Wed Jul 01 12:30:35 BST 2026
User: fpm-admin
Spectrometer: OFX00224
Trigger mode: 0
Integration Time (sec): 7.000000E-2
Scans to average: 3
Nonlinearity correction enabled: false
Boxcar width: 0
Storing dark spectrum: false
XAxis mode: Wavelengths
Number of Pixels in Spectrum: 2136
>>>>>Begin Spectral Data<<<<<
154.91	-0.16
155.289	0.05
155.669	-0
156.048	-0
156.428	-0.05
156.807	-0
157.186	0.11
157.566	-0
157.945	0.58
158.325	-0
158.704	-0
159.083	-0
159.462	0.86
159.842	-0
160.221	0.64
160.6	-0.41
160.979	-0
161.359	-0.19
161.738	-0
162.117	-0
162.496	-0
162.875	-0
163.254	0.9
163.633	0.48
164.012	-0
164.391	0.37
164.77	0.08
165.149	-0.14
165.528	-0
165.907	-0.3
166.286	-0
166.665	0.35
167.044	-0
167.423	-0.39
167.802	-0
168.181	-0.03
168.559	-0.28
168.938	-0.74
169.317	0.08
169.696	-0.88
170.074	0.02
170.453	-0.08
170.832	0.25
171.21	-0.67
171.589	0.44
171.968	-0
172.346	0.01
172.725	-0
173.103	-0.15
173.482	0.45
173.861	-0.3
174.239	-0
174.617	-0
174.996	-0.15
175.374	-0
175.753	-0
176.131	-0
176.51	-0.37
176.888	0.28
177.266	1.56
177.645	-0.01
178.023	0.77
178.401	-0.22
178.779	0.15
179.158	0.1
179.536	1.4
179.914	-0
180.292	-0
180.67	-0.05
181.048	0.83
181.427	0.7
181.805	0.54
182.183	-0.51
182.561	-0
182.939	0.29
183.317	0.95
183.695	-0
184.073	1.24
184.451	-0
184.829	-0.08
185.206	1.36
185.584	0.03
185.962	-0
186.34	-0.63
186.718	-1.01
187.096	-1
187.473	0.18
187.851	-0.11
188.229	-0.58
188.607	0.01
188.984	0.1
189.362	0.04
189.74	0.1
190.117	0.14
190.495	0.11
190.872	0.05
191.25	0.05
191.627	0.07
192.005	0.09
192.382	0.09
192.76	0.1
193.137	0.08
193.515	0.09
193.892	0.19
194.269	0.02
194.647	0.04
195.024	0.01
195.401	0.06
195.779	0.01
196.156	0.07
196.533	0.19
196.91	0.07
197.288	0.08
197.665	0.2
198.042	0.18
198.419	0.09
198.796	0.04
199.173	0.04
199.55	-0.01
199.927	0.12
200.304	0.08
200.681	0.11
201.058	-0.03
201.435	0.07
201.812	0.07
202.189	0.13
202.566	0.07
202.943	0.11
203.32	0.11
203.697	-0.01
204.073	0.05
204.45	0.07
204.827	0.13
205.204	0.08
205.58	0.12
205.957	-0.01
206.334	0.13
206.71	0.25
207.087	0.03
207.464	0.12
207.84	0.12
208.217	0.21
208.593	0.07
208.97	0.07
209.346	0.12
209.723	0.07
210.099	0.02
210.476	0.05
210.852	0.12
211.228	0.15
211.605	0.14
211.981	0.13
212.357	-0
212.733	0.08
213.11	0.1
213.486	0.06
213.862	0.08
214.238	0.08
214.614	0.13
214.991	0.14
215.367	0.09
215.743	0.14
216.119	0.11
216.495	0.2
216.871	0.12
217.247	0.09
217.623	0.05
217.999	0.11
218.375	0.06
218.751	0.15
219.127	0.04
219.502	0.12
219.878	0.11
220.254	0.14
220.63	0.14
221.006	0.05
221.381	0.08
221.757	0.1
222.133	0.08
222.508	0.12
222.884	0.13
223.26	0.1
223.635	0.11
224.011	0.08
224.386	0.08
224.762	0.16
225.137	0.09
225.513	0.16
225.888	0.05
226.264	0.08
226.639	0.21
227.014	0.09
227.39	0.13
227.765	0.12
228.14	0.23
228.516	0.13
228.891	0.15
229.266	0.16
229.641	0.13
230.017	0.04
230.392	0.17
230.767	0.1
231.142	0.18
231.517	0.1
231.892	0.13
232.267	0.14
232.642	0.17
233.017	0.07
233.392	0.04
233.767	0.22
234.142	0.1
234.517	0.14
234.892	0.16
235.267	0.11
235.641	0.07
236.016	0.11
236.391	0.09
236.766	0.16
237.14	0.11
237.515	0.22
237.89	0.14
238.264	0.11
238.639	0.05
239.014	0.21
239.388	0.17
239.763	0.18
240.137	0.21
240.512	0.06
240.886	0.02
241.261	0.14
241.635	0.22
242.009	0.22
242.384	0.17
242.758	0.14
243.132	0.1
243.507	0.05
243.881	0.09
244.255	0.17
244.629	0.07
245.004	0.12
245.378	0.16
245.752	0.11
246.126	0.16
246.5	0.07
246.874	0.16
247.248	0.15
247.622	0.11
247.996	0.04
248.37	0.03
248.744	0.21
249.118	0.21
249.492	0.29
249.866	0.12
250.24	0.1
250.613	0.17
250.987	0.19
251.361	0.15
251.735	0.11
252.108	0.17
252.482	0.24
252.856	0.04
253.229	0.09
253.603	0.04
253.977	0.15
254.35	0.12
254.724	0.17
255.097	0.15
255.471	0.15
255.844	0.08
256.218	0.05
256.591	0.14
256.964	0.09
257.338	0.1
257.711	0.14
258.084	0.16
258.458	0.1
258.831	0.11
259.204	0.08
259.577	0.16
259.95	0.11
260.323	0.13
260.697	0.13
261.07	0.06
261.443	0.18
261.816	0.11
262.189	0.16
262.562	0.12
262.935	0.11
263.308	0.09
263.68	0.15
264.053	0.08
264.426	0.16
264.799	0.2
265.172	0.13
265.545	0.13
265.917	0.1
266.29	0.12
266.663	0.17
267.035	0.17
267.408	0.2
267.781	0.18
268.153	0.12
268.526	0.08
268.898	0.13
269.271	0.2
269.643	0.08
270.016	0.13
270.388	0.15
270.76	0.12
271.133	0.13
271.505	0.16
271.877	0.14
272.25	0.12
272.622	0.16
272.994	0.13
273.366	0.23
273.739	0.15
274.111	0.18
274.483	0.14
274.855	0.13
275.227	0.14
275.599	0.15
275.971	0.12
276.343	0.15
276.715	0.16
277.087	0.16
277.459	0.09
277.831	0.15
278.203	0.1
278.574	0.12
278.946	0.09
279.318	0.09
279.69	0.16
280.061	0.19
280.433	0.1
280.805	0.19
281.176	0.15
281.548	0.14
281.92	0.23
282.291	0.17
282.663	0.19
283.034	0.19
283.406	0.17
283.777	0.18
284.148	0.18
284.52	0.2
284.891	0.13
285.262	0.16
285.634	0.19
286.005	0.16
286.376	0.2
286.747	0.14
287.119	0.14
287.49	0.19
287.861	0.13
288.232	0.16
288.603	0.11
288.974	0.1
289.345	0.2
289.716	0.14
290.087	0.17
290.458	0.11
290.829	0.1
291.2	0.23
291.571	0.16
291.941	0.14
292.312	0.21
292.683	0.16
293.054	0.17
293.424	0.08
293.795	0.15
294.166	0.12
294.536	0.07
294.907	0.2
295.277	0.16
295.648	0.19
296.018	0.19
296.389	0.14
296.759	0.12
297.13	0.15
297.5	0.17
297.871	0.16
298.241	0.17
298.611	0.09
298.981	0.11
299.352	0.18
299.722	0.13
300.092	0.16
300.462	0.09
300.832	0.12
301.202	0.11
301.573	0.14
301.943	0.06
302.313	0.1
302.683	0.11
303.053	0.1
303.422	0.07
303.792	0.11
304.162	0.08
304.532	0.04
304.902	0.07
305.272	0.08
305.641	0.07
306.011	0.07
306.381	0.07
306.75	0.06
307.12	0.06
307.49	0.06
307.859	0.07
308.229	0.07
308.598	0.09
308.968	0.07
309.337	0.1
309.707	0.07
310.076	0.1
310.445	0.09
310.815	0.09
311.184	0.09
311.553	0.1
311.923	0.1
312.292	0.1
312.661	0.11
313.03	0.1
313.399	0.11
313.768	0.11
314.137	0.11
314.506	0.11
314.875	0.12
315.244	0.13
315.613	0.12
315.982	0.11
316.351	0.14
316.72	0.13
317.089	0.13
317.458	0.13
317.826	0.13
318.195	0.14
318.564	0.14
318.933	0.14
319.301	0.14
319.67	0.15
320.038	0.15
320.407	0.14
320.775	0.15
321.144	0.15
321.512	0.15
321.881	0.16
322.249	0.16
322.618	0.16
322.986	0.16
323.354	0.17
323.723	0.16
324.091	0.17
324.459	0.17
324.827	0.17
325.195	0.18
325.564	0.18
325.932	0.18
326.3	0.18
326.668	0.19
327.036	0.18
327.404	0.19
327.772	0.19
328.14	0.2
328.508	0.2
328.875	0.2
329.243	0.2
329.611	0.21
329.979	0.21
330.346	0.22
330.714	0.22
331.082	0.22
331.449	0.23
331.817	0.22
332.185	0.23
332.552	0.23
332.92	0.23
333.287	0.24
333.655	0.25
334.022	0.25
334.389	0.26
334.757	0.26
335.124	0.26
335.491	0.27
335.859	0.28
336.226	0.28
336.593	0.28
336.96	0.29
337.327	0.3
337.695	0.3
338.062	0.3
338.429	0.32
338.796	0.32
339.163	0.32
339.53	0.33
339.897	0.33
340.263	0.34
340.63	0.34
340.997	0.35
341.364	0.36
341.731	0.36
342.097	0.37
342.464	0.37
342.831	0.38
343.197	0.39
343.564	0.4
343.931	0.4
344.297	0.41
344.664	0.41
345.03	0.42
345.396	0.43
345.763	0.43
346.129	0.44
346.496	0.44
346.862	0.45
347.228	0.45
347.594	0.46
347.961	0.47
348.327	0.48
348.693	0.48
349.059	0.49
349.425	0.5
349.791	0.5
350.157	0.5
350.523	0.52
350.889	0.51
351.255	0.53
351.621	0.53
351.987	0.53
352.353	0.54
352.719	0.55
353.084	0.56
353.45	0.55
353.816	0.57
354.181	0.57
354.547	0.58
354.913	0.58
355.278	0.59
355.644	0.61
356.009	0.61
356.375	0.62
356.74	0.63
357.106	0.64
357.471	0.64
357.836	0.65
358.202	0.65
358.567	0.66
358.932	0.67
359.297	0.68
359.663	0.69
360.028	0.71
360.393	0.72
360.758	0.72
361.123	0.74
361.488	0.75
361.853	0.75
362.218	0.77
362.583	0.77
362.948	0.78
363.312	0.8
363.677	0.8
364.042	0.82
364.407	0.82
364.772	0.83
365.136	0.84
365.501	0.85
365.865	0.86
366.23	0.86
366.595	0.86
366.959	0.88
367.324	0.89
367.688	0.9
368.052	0.9
368.417	0.9
368.781	0.91
369.145	0.92
369.51	0.93
369.874	0.94
370.238	0.94
370.602	0.95
370.967	0.95
371.331	0.95
371.695	0.97
372.059	0.97
372.423	0.97
372.787	0.96
373.151	0.98
373.515	0.97
373.878	0.97
374.242	0.96
374.606	0.96
374.97	0.94
375.334	0.94
375.697	0.93
376.061	0.92
376.425	0.92
376.788	0.91
377.152	0.9
377.515	0.9
377.879	0.88
378.242	0.87
378.606	0.87
378.969	0.86
379.333	0.84
379.696	0.84
380.059	0.82
380.422	0.83
380.786	0.82
381.149	0.8
381.512	0.79
381.875	0.79
382.238	0.77
382.601	0.77
382.964	0.77
383.327	0.76
383.69	0.75
384.053	0.74
384.416	0.74
384.779	0.74
385.142	0.73
385.504	0.72
385.867	0.73
386.23	0.73
386.593	0.73
386.955	0.73
387.318	0.73
387.68	0.72
388.043	0.73
388.405	0.73
388.768	0.73
389.13	0.72
389.493	0.72
389.855	0.71
390.217	0.71
390.58	0.71
390.942	0.71
391.304	0.71
391.666	0.7
392.028	0.69
392.391	0.68
392.753	0.66
393.115	0.66
393.477	0.65
393.839	0.65
394.201	0.64
394.563	0.64
394.924	0.64
395.286	0.64
395.648	0.64
396.01	0.65
396.371	0.65
396.733	0.67
397.095	0.68
397.456	0.7
397.818	0.71
398.18	0.73
398.541	0.74
398.903	0.76
399.264	0.78
399.625	0.81
399.987	0.82
400.348	0.83
400.709	0.84
401.071	0.85
401.432	0.86
401.793	0.86
402.154	0.85
402.515	0.84
402.876	0.83
403.238	0.82
403.599	0.79
403.96	0.77
404.32	0.74
404.681	0.72
405.042	0.68
405.403	0.66
405.764	0.63
406.125	0.59
406.485	0.57
406.846	0.54
407.207	0.5
407.567	0.48
407.928	0.46
408.288	0.43
408.649	0.4
409.009	0.38
409.37	0.36
409.73	0.34
410.091	0.31
410.451	0.3
410.811	0.29
411.171	0.27
411.532	0.26
411.892	0.24
412.252	0.23
412.612	0.22
412.972	0.21
413.332	0.2
413.692	0.2
414.052	0.19
414.412	0.18
414.772	0.17
415.132	0.17
415.492	0.16
415.851	0.15
416.211	0.15
416.571	0.14
416.931	0.14
417.29	0.14
417.65	0.13
418.009	0.13
418.369	0.13
418.728	0.12
419.088	0.12
419.447	0.12
419.807	0.11
420.166	0.11
420.525	0.11
420.884	0.1
421.244	0.09
421.603	0.1
421.962	0.1
422.321	0.09
422.68	0.1
423.039	0.1
423.398	0.09
423.757	0.09
424.116	0.09
424.475	0.09
424.834	0.08
425.193	0.09
425.551	0.08
425.91	0.08
426.269	0.09
426.628	0.08
426.986	0.09
427.345	0.08
427.703	0.07
428.062	0.08
428.42	0.08
428.779	0.08
429.137	0.08
429.496	0.08
429.854	0.08
430.212	0.07
430.57	0.08
430.929	0.07
431.287	0.07
431.645	0.08
432.003	0.08
432.361	0.07
432.719	0.07
433.077	0.08
433.435	0.07
433.793	0.07
434.151	0.07
434.509	0.07
434.866	0.08
435.224	0.08
435.582	0.07
435.94	0.08
436.297	0.07
436.655	0.07
437.012	0.07
437.37	0.07
437.727	0.07
438.085	0.08
438.442	0.07
438.8	0.07
439.157	0.07
439.514	0.06
439.872	0.08
440.229	0.07
440.586	0.07
440.943	0.07
441.3	0.07
441.657	0.08
442.014	0.07
442.371	0.07
442.728	0.07
443.085	0.07
443.442	0.07
443.799	0.07
444.156	0.07
444.513	0.07
444.869	0.07
445.226	0.07
445.583	0.07
445.939	0.07
446.296	0.06
446.652	0.06
447.009	0.07
447.365	0.07
447.722	0.07
448.078	0.07
448.434	0.05
448.791	0.07
449.147	0.07
449.503	0.07
449.859	0.07
450.215	0.07
450.571	0.06
450.928	0.07
451.284	0.07
451.64	0.07
451.995	0.06
452.351	0.07
452.707	0.06
453.063	0.06
453.419	0.07
453.775	0.07
454.13	0.07
454.486	0.07
454.842	0.06
455.197	0.06
455.553	0.06
455.908	0.05
456.264	0.07
456.619	0.07
456.975	0.06
457.33	0.06
457.685	0.06
458.04	0.06
458.396	0.06
458.751	0.05
459.106	0.05
459.461	0.05
459.816	0.05
460.171	0.05
460.526	0.05
460.881	0.04
461.236	0.04
461.591	0.04
461.946	0.05
462.301	0.04
462.655	0.04
463.01	0.04
463.365	0.04
463.719	0.03
464.074	0.04
464.428	0.03
464.783	0.04
465.137	0.03
465.492	0.02
465.846	0.03
466.201	0.03
466.555	0.04
466.909	0.03
467.263	0.04
467.618	0.04
467.972	0.04
468.326	0.04
468.68	0.03
469.034	0.03
469.388	0.03
469.742	0.03
470.096	0.04
470.45	0.04
470.804	0.04
471.157	0.04
471.511	0.04
471.865	0.04
472.218	0.05
472.572	0.05
472.926	0.05
473.279	0.05
473.633	0.06
473.986	0.06
474.34	0.07
474.693	0.07
475.046	0.07
475.4	0.08
475.753	0.08
476.106	0.09
476.459	0.09
476.812	0.1
477.165	0.1
477.519	0.11
477.872	0.11
478.224	0.11
478.577	0.12
478.93	0.13
479.283	0.12
479.636	0.13
479.989	0.13
480.341	0.13
480.694	0.13
481.047	0.13
481.399	0.14
481.752	0.15
482.104	0.15
482.457	0.15
482.809	0.15
483.162	0.16
483.514	0.15
483.866	0.16
484.219	0.16
484.571	0.16
484.923	0.17
485.275	0.17
485.627	0.17
485.979	0.17
486.331	0.18
486.683	0.18
487.035	0.18
487.387	0.18
487.739	0.19
488.091	0.19
488.443	0.19
488.794	0.19
489.146	0.2
489.498	0.19
489.849	0.2
490.201	0.2
490.552	0.2
490.904	0.2
491.255	0.21
491.607	0.21
491.958	0.21
492.309	0.21
492.661	0.22
493.012	0.22
493.363	0.21
493.714	0.22
494.065	0.22
494.416	0.22
494.767	0.23
495.118	0.23
495.469	0.23
495.82	0.23
496.171	0.23
496.522	0.24
496.872	0.24
497.223	0.24
497.574	0.24
497.924	0.25
498.275	0.24
498.626	0.25
498.976	0.25
499.327	0.26
499.677	0.25
500.027	0.26
500.378	0.25
500.728	0.26
501.078	0.26
501.428	0.26
501.779	0.26
502.129	0.26
502.479	0.27
502.829	0.27
503.179	0.27
503.529	0.28
503.879	0.28
504.229	0.28
504.578	0.28
504.928	0.28
505.278	0.29
505.628	0.29
505.977	0.29
506.327	0.29
506.676	0.29
507.026	0.29
507.375	0.3
507.725	0.3
508.074	0.3
508.424	0.3
508.773	0.3
509.122	0.31
509.471	0.31
509.82	0.31
510.17	0.31
510.519	0.31
510.868	0.31
511.217	0.32
511.566	0.32
511.915	0.32
512.263	0.32
512.612	0.32
512.961	0.33
513.31	0.32
513.659	0.33
514.007	0.33
514.356	0.33
514.704	0.33
515.053	0.33
515.401	0.34
515.75	0.34
516.098	0.34
516.447	0.34
516.795	0.34
517.143	0.34
517.491	0.35
517.839	0.35
518.188	0.35
518.536	0.35
518.884	0.35
519.232	0.35
519.58	0.36
519.928	0.37
520.275	0.36
520.623	0.36
520.971	0.36
521.319	0.37
521.666	0.36
522.014	0.37
522.362	0.37
522.709	0.36
523.057	0.37
523.404	0.37
523.752	0.37
524.099	0.37
524.446	0.37
524.794	0.37
525.141	0.38
525.488	0.38
525.835	0.38
526.182	0.38
526.529	0.38
526.876	0.39
527.223	0.38
527.57	0.38
527.917	0.39
528.264	0.39
528.611	0.39
528.958	0.39
529.304	0.39
529.651	0.4
529.998	0.4
530.344	0.4
530.691	0.4
531.037	0.4
531.384	0.4
531.73	0.4
532.076	0.4
532.423	0.41
532.769	0.41
533.115	0.4
533.461	0.4
533.807	0.4
534.154	0.41
534.5	0.41
534.846	0.41
535.192	0.41
535.537	0.41
535.883	0.41
536.229	0.41
536.575	0.41
536.921	0.42
537.266	0.41
537.612	0.41
537.957	0.42
538.303	0.41
538.649	0.42
538.994	0.42
539.339	0.42
539.685	0.42
540.03	0.42
540.375	0.42
540.721	0.42
541.066	0.42
541.411	0.43
541.756	0.42
542.101	0.42
542.446	0.43
542.791	0.43
543.136	0.43
543.481	0.43
543.825	0.43
544.17	0.43
544.515	0.43
544.86	0.43
545.204	0.43
545.549	0.43
545.893	0.43
546.238	0.44
546.582	0.44
546.927	0.43
547.271	0.44
547.615	0.44
547.96	0.44
548.304	0.44
548.648	0.44
548.992	0.44
549.336	0.44
549.68	0.44
550.024	0.44
550.368	0.44
550.712	0.44
551.056	0.44
551.4	0.44
551.743	0.44
552.087	0.44
552.431	0.44
552.774	0.45
553.118	0.44
553.462	0.44
553.805	0.44
554.148	0.44
554.492	0.44
554.835	0.44
555.178	0.44
555.522	0.44
555.865	0.44
556.208	0.44
556.551	0.44
556.894	0.44
557.237	0.44
557.58	0.44
557.923	0.44
558.266	0.44
558.609	0.45
558.952	0.44
559.294	0.44
559.637	0.44
559.98	0.44
560.322	0.44
560.665	0.44
561.007	0.44
561.35	0.44
561.692	0.44
562.034	0.44
562.377	0.44
562.719	0.44
563.061	0.44
563.403	0.44
563.745	0.44
564.088	0.44
564.43	0.44
564.772	0.44
565.113	0.44
565.455	0.43
565.797	0.43
566.139	0.44
566.481	0.43
566.822	0.43
567.164	0.43
567.506	0.43
567.847	0.43
568.189	0.43
568.53	0.43
568.872	0.43
569.213	0.43
569.554	0.43
569.895	0.43
570.237	0.43
570.578	0.43
570.919	0.43
571.26	0.42
571.601	0.42
571.942	0.42
572.283	0.42
572.624	0.42
572.965	0.42
573.306	0.41
573.646	0.41
573.987	0.41
574.328	0.41
574.668	0.41
575.009	0.41
575.349	0.4
575.69	0.4
576.03	0.4
576.37	0.39
576.711	0.38
577.051	0.38
577.391	0.38
577.731	0.4
578.072	0.39
578.412	0.39
578.752	0.39
579.092	0.37
579.431	0.34
579.771	0.32
580.111	0.31
580.451	0.32
580.791	0.35
581.13	0.37
581.47	0.38
581.81	0.38
582.149	0.37
582.489	0.38
582.828	0.35
583.167	0.31
583.507	0.27
583.846	0.26
584.185	0.28
584.525	0.31
584.864	0.34
585.203	0.37
585.542	0.38
585.881	0.39
586.22	0.39
586.559	0.36
586.898	0.33
587.236	0.32
587.575	0.31
587.914	0.33
588.252	0.35
588.591	0.36
588.93	0.36
589.268	0.35
589.607	0.35
589.945	0.35
590.283	0.35
590.622	0.36
590.96	0.38
591.298	0.39
591.636	0.39
591.974	0.38
592.313	0.39
592.651	0.39
592.989	0.39
593.326	0.39
593.664	0.39
594.002	0.39
594.34	0.38
594.678	0.37
595.015	0.34
595.353	0.33
595.691	0.34
596.028	0.37
596.366	0.38
596.703	0.39
597.04	0.39
597.378	0.39
597.715	0.39
598.052	0.39
598.389	0.4
598.726	0.39
599.064	0.39
599.401	0.39
599.738	0.39
600.074	0.39
600.411	0.38
600.748	0.36
601.085	0.35
601.422	0.34
601.758	0.34
602.095	0.35
602.432	0.35
602.768	0.35
603.105	0.37
603.441	0.38
603.777	0.39
604.114	0.39
604.45	0.39
604.786	0.39
605.122	0.39
605.459	0.39
605.795	0.38
606.131	0.38
606.467	0.38
606.803	0.38
607.139	0.38
607.474	0.38
607.81	0.37
608.146	0.37
608.482	0.37
608.817	0.36
609.153	0.37
609.488	0.36
609.824	0.36
610.159	0.37
610.495	0.37
610.83	0.37
611.165	0.37
611.5	0.37
611.836	0.37
612.171	0.37
612.506	0.36
612.841	0.37
613.176	0.37
613.511	0.37
613.845	0.37
614.18	0.36
614.515	0.37
614.85	0.36
615.184	0.36
615.519	0.36
615.854	0.36
616.188	0.35
616.523	0.35
616.857	0.35
617.191	0.35
617.526	0.35
617.86	0.35
618.194	0.35
618.528	0.35
618.862	0.35
619.196	0.35
619.53	0.35
619.864	0.35
620.198	0.34
620.532	0.35
620.866	0.35
621.2	0.34
621.533	0.34
621.867	0.34
622.201	0.34
622.534	0.34
622.868	0.34
623.201	0.34
623.534	0.34
623.868	0.33
624.201	0.33
624.534	0.33
624.868	0.33
625.201	0.32
625.534	0.33
625.867	0.32
626.2	0.32
626.533	0.32
626.865	0.32
627.198	0.32
627.531	0.32
627.864	0.31
628.196	0.32
628.529	0.31
628.862	0.31
629.194	0.31
629.527	0.3
629.859	0.3
630.191	0.3
630.524	0.3
630.856	0.3
631.188	0.3
631.52	0.3
631.852	0.3
632.184	0.29
632.516	0.29
632.848	0.29
633.18	0.29
633.512	0.29
633.844	0.29
634.175	0.29
634.507	0.28
634.839	0.28
635.17	0.28
635.502	0.28
635.833	0.27
636.165	0.27
636.496	0.27
636.827	0.27
637.159	0.27
637.49	0.27
637.821	0.26
638.152	0.26
638.483	0.26
638.814	0.26
639.145	0.25
639.476	0.25
639.807	0.25
640.137	0.25
640.468	0.25
640.799	0.24
641.129	0.24
641.46	0.24
641.791	0.24
642.121	0.24
642.451	0.24
642.782	0.24
643.112	0.24
643.442	0.24
643.773	0.24
644.103	0.23
644.433	0.23
644.763	0.23
645.093	0.23
645.423	0.23
645.753	0.22
646.082	0.22
646.412	0.22
646.742	0.22
647.072	0.22
647.401	0.22
647.731	0.21
648.06	0.22
648.39	0.22
648.719	0.22
649.048	0.22
649.378	0.21
649.707	0.21
650.036	0.21
650.365	0.21
650.694	0.21
651.023	0.21
651.352	0.2
651.681	0.2
652.01	0.21
652.339	0.21
652.668	0.2
652.996	0.2
653.325	0.2
653.654	0.2
653.982	0.2
654.311	0.2
654.639	0.2
654.967	0.2
655.296	0.2
655.624	0.2
655.952	0.2
656.28	0.2
656.609	0.2
656.937	0.2
657.265	0.19
657.593	0.04
657.92	-0
658.248	0
658.576	0
658.904	0.01
659.231	0.09
659.559	0.15
659.887	0.18
660.214	0.19
660.542	0.19
660.869	0.19
661.196	0.19
661.524	0.19
661.851	0.19
662.178	0.19
662.505	0.18
662.832	0.18
663.159	0.18
663.486	0.18
663.813	0.18
664.14	0.18
664.467	0.18
664.794	0.18
665.12	0.18
665.447	0.18
665.774	0.18
666.1	0.18
666.427	0.18
666.753	0.18
667.079	0.17
667.406	0.18
667.732	0.17
668.058	0.17
668.384	0.17
668.71	0.17
669.036	0.17
669.362	0.17
669.688	0.17
670.014	0.17
670.34	0.17
670.666	0.16
670.991	0.16
671.317	0.16
671.643	0.16
671.968	0.16
672.294	0.15
672.619	0.15
672.945	0.15
673.27	0.15
673.595	0.15
673.92	0.14
674.246	0.13
674.571	0.14
674.896	0.14
675.221	0.14
675.546	0.14
675.87	0.14
676.195	0.14
676.52	0.14
676.845	0.14
677.169	0.14
677.494	0.14
677.819	0.14
678.143	0.13
678.468	0.13
678.792	0.13
679.116	0.13
679.44	0.12
679.765	0.12
680.089	0.11
680.413	0.11
680.737	0.11
681.061	0.1
681.385	0.11
681.709	0.1
682.033	0.09
682.356	0.1
682.68	0.1
683.004	0.1
683.327	0.09
683.651	0.09
683.974	0.09
684.298	0.09
684.621	0.09
684.944	0.09
685.268	0.09
685.591	0.09
685.914	0.08
686.237	0.07
686.56	0.07
686.883	0.06
687.206	0.05
687.529	0.05
687.852	0.05
688.175	0.05
688.497	0.05
688.82	0.05
689.142	0.05
689.465	0.05
689.787	0.06
690.11	0.06
690.432	0.05
690.755	0.05
691.077	0.05
691.399	0.04
691.721	0.05
692.043	0.05
692.365	0.04
692.687	0.04
693.009	0.04
693.331	0.03
693.653	0.03
693.974	0.03
694.296	0.03
694.618	0.03
694.939	0.03
695.261	0.02
695.582	0.03
695.904	0.02
696.225	0.03
696.546	0.03
696.868	0.03
697.189	0.03
697.51	0.02
697.831	0.02
698.152	0.02
698.473	0.02
698.794	0.01
699.114	0.01
699.435	0
699.756	0.01
700.077	0.01
700.397	0.01
700.718	0.02
701.038	0.02
701.359	0.02
701.679	0.02
701.999	0.02
702.32	0.02
702.64	0.02
702.96	0.02
703.28	0.02
703.6	0.02
703.92	0.01
704.24	0.01
704.56	0.01
704.879	0.01
705.199	0.01
705.519	0.01
705.838	0.01
706.158	0.01
706.478	0.01
706.797	0.01
707.116	0.01
707.436	0.01
707.755	0.01
708.074	0.01
708.393	0.01
708.712	0
709.031	0
709.35	0
709.669	0
709.988	0
710.307	0
710.626	0
710.944	0
711.263	0
711.582	0.01
711.9	0.01
712.219	0
712.537	0
712.855	0.01
713.174	0
713.492	0
713.81	0.01
714.128	0
714.446	0.01
714.764	0
715.082	0
715.4	0
715.718	0
716.035	0
716.353	0
716.671	0
716.988	0
717.306	0
717.623	0.01
717.941	0.01
718.258	0.01
718.575	0.01
718.893	0.01
719.21	0.01
719.527	0.01
719.844	0.01
720.161	0.01
720.478	0.01
720.795	0.01
721.112	0.01
721.428	0.01
721.745	0.01
722.062	0.01
722.378	0.01
722.695	0.01
723.011	0.01
723.328	0.02
723.644	0.01
723.96	0.02
724.276	0.02
724.593	0.01
724.909	0.02
725.225	0.01
725.541	0.02
725.857	0.02
726.173	0.02
726.488	0.02
726.804	0.02
727.12	0.02
727.435	0.02
727.751	0.02
728.067	0.01
728.382	0.02
728.697	0.02
729.013	0.02
729.328	0.02
729.643	0.02
729.958	0.02
730.273	0.02
730.588	0.02
730.903	0.02
731.218	0.02
731.533	0.02
731.848	0.02
732.163	0.02
732.477	0.01
732.792	0.01
733.107	0.01
733.421	0.01
733.736	0.01
734.05	0.02
734.364	0.01
734.678	0.02
734.993	0.01
735.307	0.02
735.621	0.01
735.935	0.01
736.249	0.01
736.563	0.01
736.877	0.02
737.19	0.02
737.504	0.02
737.818	0.02
738.131	0.02
738.445	0.02
738.758	0.03
739.072	0.02
739.385	0.03
739.698	0.03
740.012	0.03
740.325	0.03
740.638	0.02
740.951	0.02
741.264	0.01
741.577	0.02
741.89	0.03
742.203	0.03
742.515	0.04
742.828	0.04
743.141	0.03
743.453	0.04
743.766	0.03
744.078	0.03
744.391	0.03
744.703	0.03
745.015	0.03
745.327	0.03
745.639	0.03
745.952	0.03
746.264	0.03
746.575	0.03
746.887	0.03
747.199	0.03
747.511	0.03
747.823	0.03
748.134	0.03
748.446	0.03
748.757	0.03
749.069	0.03
749.38	0.03
749.692	0.03
750.003	0.03
750.314	0.02
750.625	0.02
750.936	0.02
751.248	0.02
751.559	0.02
751.869	0.01
752.18	0.01
752.491	0.01
752.802	0.01
753.112	0.01
753.423	0.01
753.734	0.01
754.044	0.01
754.355	0.01
754.665	0.01
754.975	0.01
755.285	0.01
755.596	0.01
755.906	0.01
756.216	0.01
756.526	0.01
756.836	0.01
757.146	0.01
757.455	0.01
757.765	0.01
758.075	0
758.385	0
758.694	0
759.004	0
759.313	0
759.622	0
759.932	0
760.241	0
760.55	0
760.859	0.01
761.168	0.01
761.477	0.01
761.786	0.01
762.095	0
762.404	0
762.713	0.01
763.021	0
763.33	0.01
763.639	0.01
763.947	0.01
764.256	0.01
764.564	0.01
764.872	0.01
765.181	0.01
765.489	0.01
765.797	0.01
766.105	0.01
766.413	0.01
766.721	0.01
767.029	0.01
767.337	0.01
767.644	0.01
767.952	0.02
768.26	0.02
768.567	0.02
768.875	0.02
769.182	0.02
769.49	0.02
769.797	0.02
770.104	0.02
770.411	0.02
770.718	0.02
771.026	0.02
771.333	0.02
771.639	0.02
771.946	0.02
772.253	0.02
772.56	0.02
772.867	0.02
773.173	0.02
773.48	0.03
773.786	0.03
774.093	0.03
774.399	0.03
774.705	0.03
775.012	0.03
775.318	0.03
775.624	0.03
775.93	0.03
776.236	0.03
776.542	0.02
776.848	0.02
777.154	0.03
777.459	0.02
777.765	0.02
778.071	0.02
778.376	0.02
778.682	0.02
778.987	0.02
779.292	0.02
779.598	0.02
779.903	0.03
780.208	0.02
780.513	0.02
780.818	0.02
781.123	0.02
781.428	0.02
781.733	0.02
782.038	0.02
782.343	0.02
782.647	0.02
782.952	0.03
783.256	0.03
783.561	0.03
783.865	0.03
784.17	0.02
784.474	0.03
784.778	0.03
785.082	0.02
785.386	0.02
785.69	0.02
785.994	0.03
786.298	0.02
786.602	0.03
786.906	0.03
787.209	0.03
787.513	0.03
787.817	0.03
788.12	0.02
788.424	0.03
788.727	0.02
789.03	0.02
789.333	0.02
789.637	0.02
789.94	0.02
790.243	0.02
790.546	0.03
790.849	0.03
791.152	0.03
791.454	0.03
791.757	0.03
792.06	0.03
792.362	0.03
792.665	0.03
792.967	0.03
793.27	0.02
793.572	0.02
793.874	0.03
794.177	0.02
794.479	0.02
794.781	0.03
795.083	0.03
795.385	0.03
795.687	0.03
795.989	0.03
796.29	0.03
796.592	0.03
796.894	0.03
797.195	0.03
797.497	0.03
797.798	0.03
798.1	0.03
798.401	0.03
798.702	0.03
799.003	0.03
799.304	0.03
799.605	0.03
799.906	0.03
800.207	0.03
800.508	0.03
800.809	0.03
801.11	0.03
801.41	0.04
801.711	0.03
802.011	0.04
802.312	0.03
802.612	0.04
802.913	0.03
803.213	0.03
803.513	0.03
803.813	0.03
804.113	0.03
804.413	0.03
804.713	0.03
805.013	0.03
805.313	0.04
805.613	0.03
805.912	0.04
806.212	0.04
806.511	0.03
806.811	0.04
807.11	0.03
807.41	0.03
807.709	0.03
808.008	0.03
808.307	0.03
808.606	0.03
808.905	0.03
809.204	0.03
809.503	0.03
809.802	0.03
810.101	0.03
810.399	0.03
810.698	0.03
810.997	0.03
811.295	0.03
811.593	0.03
811.892	0.03
812.19	0.03
812.488	0.03
812.786	0.03
813.084	0.03
813.383	0.03
813.68	0.03
813.978	0.03
814.276	0.04
814.574	0.04
814.872	0.04
815.169	0.04
815.467	0.04
815.764	0.04
816.062	0.04
816.359	0.04
816.656	0.04
816.954	0.04
817.251	0.04
817.548	0.04
817.845	0.04
818.142	0.04
818.439	0.04
818.735	0.04
819.032	0.04
819.329	0.04
819.626	0.04
819.922	0.04
820.219	0.04
820.515	0.04
820.811	0.05
821.108	0.04
821.404	0.04
821.7	0.04
821.996	0.04
822.292	0.04
822.588	0.04
822.884	0.05
823.18	0.04
823.475	0.04
823.771	0.04
824.067	0.04
824.362	0.05
824.658	0.04
824.953	0.04
825.249	0.04
825.544	0.04
825.839	0.04
826.134	0.04
826.429	0.04
826.724	0.05
827.019	0.04
827.314	0.04
827.609	0.04
827.904	0.05
828.198	0.05
828.493	0.05
828.787	0.04
829.082	0.05
829.376	0.04
829.671	0.05
829.965	0.05
830.259	0.04
830.553	0.05
830.847	0.05
831.141	0.05
831.435	0.05
831.729	0.05
832.023	0.04
832.317	0.05
832.61	0.04
832.904	0.05
833.197	0.05
833.491	0.05
833.784	0.05
834.077	0.05
834.371	0.05
834.664	0.05
834.957	0.05
835.25	0.05
835.543	0.05
835.836	0.05
836.129	0.05
836.421	0.05
836.714	0.05
837.007	0.05
837.299	0.06
837.592	0.05
837.884	0.05
838.177	0.05
838.469	0.05
838.761	0.06
839.053	0.05
839.345	0.05
839.637	0.06
839.929	0.05
840.221	0.05
840.513	0.05
840.805	0.05
841.096	0.06
841.388	0.06
841.68	0.06
841.971	0.05
842.262	0.06
842.554	0.05
842.845	0.05
843.136	0.04
843.427	0.05
843.718	0.05
844.009	0.05
844.3	0.05
844.591	0.06
844.882	0.06
845.173	0.05
845.463	0.06
845.754	0.06
846.044	0.06
846.335	0.05
846.625	0.05
846.915	0.05
847.206	0.06
847.496	0.05
847.786	0.05
848.076	0.06
848.366	0.05
848.656	0.05
848.945	0.06
849.235	0.06
849.525	0.06
849.814	0.06
850.104	0.06
850.393	0.06
850.683	0.07
850.972	0.06
851.261	0.06
851.551	0.06
851.84	0.06
852.129	0.06
852.418	0.05
852.707	0.05
852.995	0.06
853.284	0.06
853.573	0.06
853.862	0.07
854.15	0.06
854.439	0.07
854.727	0.07
855.015	0.06
855.304	0.07
855.592	0.07
855.88	0.06
856.168	0.06
856.456	0.07
856.744	0.07
857.032	0.06
857.32	0.08
857.607	0.06
857.895	0.07
858.183	0.07
858.47	0.06
858.757	0.06
859.045	0.06
859.332	0.07
859.619	0.07
859.907	0.08
860.194	0.09
860.481	0.07
860.768	0.08
861.054	0.06
861.341	0.07
861.628	0.07
861.915	0.06
862.201	0.06
862.488	0.06
862.774	0.08
863.061	0.09
863.347	0.07
863.633	0.05
863.919	0.08
864.205	0.07
864.491	0.05
864.777	0.06
865.063	0.04
865.349	0.04
865.635	0.05
865.92	0.05
866.206	0.05
866.492	0.07
866.777	0.08
867.062	0.05
867.348	0.06
867.633	0.05
867.918	0.09
868.203	0.09
868.488	0.03
868.773	0.06
869.058	0.09
869.343	0.06
869.628	0.06
869.912	0.07
870.197	0.07
870.482	0.08
870.766	0.07
871.05	0.06
871.335	0.04
871.619	0.05
871.903	0.02
872.187	0.05
872.471	0.04
872.755	0.05
873.039	0.03
873.323	0.03
873.607	0.06
873.89	0.03
874.174	0.07
874.458	0.04
874.741	0.06
875.024	0.03
875.308	0.05
875.591	-0
875.874	0
876.157	0.09
876.44	0.08
876.723	0.07
877.006	0.07
877.289	0.01
877.572	0.06
877.854	0.06
878.137	0.05
878.42	0.05
878.702	0
878.984	0
879.267	-0.02
879.549	0.01
879.831	0.12
880.113	0.06
880.395	0.01
880.677	-0.05
880.959	-0.06
