Data from Rubpy_BV_600_EDTA_Buffered_Absorbance_12-28-50-519.txt Node
Date: Wed Jul 01 12:28:50 BST 2026
User: fpm-admin
Spectrometer: OFX00224
Trigger mode: 0
Integration Time (sec): 7.000000E-2
Scans to average: 3
Nonlinearity correction enabled: false
Boxcar width: 0
Storing dark spectrum: false
XAxis mode: Wavelengths
Number of Pixels in Spectrum: 2136
>>>>>Begin Spectral Data<<<<<
154.91	-0
155.289	0.63
155.669	-0.21
156.048	-0
156.428	0.41
156.807	-0.45
157.186	0.31
157.566	-0
157.945	-0.29
158.325	0.7
158.704	-0
159.083	-0
159.462	0.42
159.842	0.08
160.221	-0
160.6	-0
160.979	-0
161.359	-0.4
161.738	0.9
162.117	-0
162.496	-0
162.875	-0
163.254	-0.29
163.633	-0.37
164.012	-0.21
164.391	-0
164.77	0.7
165.149	-0.03
165.528	-0
165.907	-0.2
166.286	-0
166.665	0.35
167.044	-0
167.423	0.32
167.802	-0.5
168.181	0.6
168.559	0.18
168.938	-1.41
169.317	-0
169.696	-0
170.074	0.05
170.453	-0.26
170.832	0.14
171.21	-1.19
171.589	-0
171.968	-0.2
172.346	-0.29
172.725	-0
173.103	-0.08
173.482	0.15
173.861	-0.95
174.239	-0
174.617	-0
174.996	-0.09
175.374	0.32
175.753	0.08
176.131	-0.06
176.51	0.26
176.888	0.32
177.266	0.96
177.645	-0.07
178.023	1.17
178.401	-0.17
178.779	0.05
179.158	-0.02
179.536	0.28
179.914	-0.19
180.292	-0.1
180.67	-0.26
181.048	0.12
181.427	0.62
181.805	-0.14
182.183	-0.15
182.561	-0
182.939	-0.1
183.317	0.42
183.695	-0
184.073	0.37
184.451	-0.34
184.829	0.05
185.206	-0.3
185.584	0.42
185.962	1.26
186.34	-0.35
186.718	-0
187.096	-0
187.473	0.24
187.851	0.71
188.229	-0
188.607	0.12
188.984	0.07
189.362	0.03
189.74	0.13
190.117	0.2
190.495	0.14
190.872	-0.05
191.25	0.04
191.627	0.18
192.005	0.12
192.382	0.15
192.76	0.09
193.137	0.27
193.515	-0.05
193.892	0.11
194.269	-0.01
194.647	0.24
195.024	0.17
195.401	0.2
195.779	0.03
196.156	0.04
196.533	0.21
196.91	0.06
197.288	0.09
197.665	0.1
198.042	0.12
198.419	0.1
198.796	0.13
199.173	0.13
199.55	-0.02
199.927	0.17
200.304	0.14
200.681	0.14
201.058	-0.02
201.435	0.15
201.812	0.07
202.189	0.12
202.566	0.08
202.943	0.2
203.32	0.2
203.697	0.04
204.073	0.12
204.45	0.01
204.827	0.19
205.204	0.13
205.58	0.09
205.957	0.06
206.334	0.19
206.71	0.14
207.087	0.12
207.464	0.26
207.84	0.13
208.217	0.15
208.593	0.04
208.97	0.12
209.346	0.19
209.723	0.08
210.099	0.1
210.476	0.07
210.852	0.05
211.228	0.21
211.605	0.17
211.981	0.12
212.357	0.07
212.733	0.06
213.11	0.11
213.486	-0
213.862	0.04
214.238	0.1
214.614	0.03
214.991	0.18
215.367	0.16
215.743	0.07
216.119	0.06
216.495	0.25
216.871	0.09
217.247	0.04
217.623	0.09
217.999	0.08
218.375	0.11
218.751	0.21
219.127	-0.01
219.502	0.11
219.878	0.11
220.254	0.1
220.63	0.07
221.006	0.12
221.381	0.11
221.757	0.11
222.133	0.12
222.508	0.11
222.884	0.11
223.26	0.13
223.635	0.05
224.011	0.08
224.386	0.17
224.762	0.11
225.137	0.05
225.513	0.09
225.888	-0.02
226.264	0.09
226.639	0.11
227.014	0.11
227.39	0.17
227.765	0.12
228.14	0.04
228.516	0.13
228.891	0.15
229.266	0.2
229.641	0.12
230.017	0.18
230.392	0.16
230.767	0.14
231.142	0.11
231.517	0.1
231.892	0.15
232.267	0.24
232.642	0.09
233.017	0.07
233.392	0.14
233.767	0.15
234.142	0.21
234.517	0.07
234.892	0.11
235.267	0.13
235.641	0.18
236.016	0.13
236.391	0.1
236.766	0.1
237.14	0.09
237.515	0.08
237.89	0.07
238.264	0.1
238.639	0.14
239.014	0.15
239.388	0.19
239.763	0.16
240.137	0.08
240.512	0.14
240.886	0.12
241.261	0.2
241.635	0.15
242.009	0.13
242.384	0.1
242.758	0.11
243.132	0.09
243.507	0.11
243.881	0.07
244.255	0.17
244.629	0.1
245.004	0.2
245.378	0.22
245.752	0.08
246.126	0.14
246.5	0.06
246.874	0.2
247.248	0.16
247.622	0.05
247.996	0.06
248.37	0.01
248.744	0.19
249.118	0.17
249.492	0.2
249.866	0.08
250.24	0.2
250.613	0.22
250.987	0.07
251.361	0.17
251.735	0.12
252.108	0.14
252.482	0.13
252.856	0.07
253.229	0.07
253.603	0.03
253.977	0.19
254.35	0.15
254.724	0.18
255.097	0.24
255.471	0.12
255.844	0.12
256.218	0.14
256.591	0.14
256.964	0.05
257.338	0.11
257.711	0.2
258.084	0.14
258.458	0.12
258.831	0.22
259.204	0.12
259.577	0.13
259.95	0.15
260.323	0.16
260.697	0.11
261.07	0.15
261.443	0.12
261.816	0.16
262.189	0.15
262.562	0.15
262.935	0.1
263.308	0.07
263.68	0.25
264.053	0.13
264.426	0.13
264.799	0.12
265.172	0.12
265.545	0.18
265.917	0.17
266.29	0.1
266.663	0.12
267.035	0.18
267.408	0.2
267.781	0.17
268.153	0.13
268.526	0.11
268.898	0.16
269.271	0.19
269.643	0.11
270.016	0.18
270.388	0.18
270.76	0.12
271.133	0.14
271.505	0.12
271.877	0.14
272.25	0.12
272.622	0.19
272.994	0.18
273.366	0.19
273.739	0.18
274.111	0.17
274.483	0.12
274.855	0.17
275.227	0.15
275.599	0.17
275.971	0.1
276.343	0.14
276.715	0.17
277.087	0.12
277.459	0.05
277.831	0.11
278.203	0.16
278.574	0.12
278.946	0.18
279.318	0.22
279.69	0.22
280.061	0.13
280.433	0.13
280.805	0.13
281.176	0.21
281.548	0.14
281.92	0.13
282.291	0.18
282.663	0.22
283.034	0.18
283.406	0.17
283.777	0.21
284.148	0.18
284.52	0.17
284.891	0.11
285.262	0.14
285.634	0.2
286.005	0.18
286.376	0.18
286.747	0.17
287.119	0.12
287.49	0.16
287.861	0.12
288.232	0.09
288.603	0.19
288.974	0.17
289.345	0.14
289.716	0.09
290.087	0.14
290.458	0.09
290.829	0.09
291.2	0.16
291.571	0.15
291.941	0.12
292.312	0.17
292.683	0.11
293.054	0.2
293.424	0.16
293.795	0.15
294.166	0.16
294.536	0.16
294.907	0.18
295.277	0.15
295.648	0.16
296.018	0.11
296.389	0.16
296.759	0.17
297.13	0.16
297.5	0.17
297.871	0.13
298.241	0.12
298.611	0.11
298.981	0.13
299.352	0.11
299.722	0.1
300.092	0.13
300.462	0.06
300.832	0.12
301.202	0.15
301.573	0.1
301.943	0.07
302.313	0.08
302.683	0.11
303.053	0.1
303.422	0.06
303.792	0.09
304.162	0.08
304.532	0.08
304.902	0.06
305.272	0.08
305.641	0.08
306.011	0.07
306.381	0.06
306.75	0.08
307.12	0.07
307.49	0.06
307.859	0.08
308.229	0.07
308.598	0.08
308.968	0.08
309.337	0.08
309.707	0.08
310.076	0.08
310.445	0.08
310.815	0.08
311.184	0.08
311.553	0.1
311.923	0.1
312.292	0.1
312.661	0.1
313.03	0.11
313.399	0.09
313.768	0.11
314.137	0.11
314.506	0.11
314.875	0.1
315.244	0.12
315.613	0.12
315.982	0.11
316.351	0.13
316.72	0.12
317.089	0.13
317.458	0.12
317.826	0.13
318.195	0.13
318.564	0.13
318.933	0.13
319.301	0.14
319.67	0.14
320.038	0.14
320.407	0.13
320.775	0.14
321.144	0.14
321.512	0.15
321.881	0.15
322.249	0.15
322.618	0.16
322.986	0.15
323.354	0.16
323.723	0.16
324.091	0.15
324.459	0.16
324.827	0.17
325.195	0.16
325.564	0.17
325.932	0.17
326.3	0.17
326.668	0.18
327.036	0.17
327.404	0.17
327.772	0.18
328.14	0.19
328.508	0.19
328.875	0.19
329.243	0.19
329.611	0.2
329.979	0.2
330.346	0.2
330.714	0.2
331.082	0.21
331.449	0.21
331.817	0.21
332.185	0.21
332.552	0.22
332.92	0.21
333.287	0.23
333.655	0.23
334.022	0.23
334.389	0.24
334.757	0.24
335.124	0.25
335.491	0.25
335.859	0.26
336.226	0.26
336.593	0.27
336.96	0.28
337.327	0.28
337.695	0.28
338.062	0.29
338.429	0.3
338.796	0.3
339.163	0.3
339.53	0.31
339.897	0.32
340.263	0.32
340.63	0.32
340.997	0.33
341.364	0.33
341.731	0.34
342.097	0.34
342.464	0.35
342.831	0.36
343.197	0.37
343.564	0.37
343.931	0.37
344.297	0.38
344.664	0.38
345.03	0.4
345.396	0.4
345.763	0.4
346.129	0.41
346.496	0.42
346.862	0.42
347.228	0.43
347.594	0.43
347.961	0.44
348.327	0.45
348.693	0.45
349.059	0.46
349.425	0.47
349.791	0.47
350.157	0.47
350.523	0.48
350.889	0.49
351.255	0.49
351.621	0.5
351.987	0.5
352.353	0.51
352.719	0.51
353.084	0.52
353.45	0.53
353.816	0.54
354.181	0.54
354.547	0.54
354.913	0.55
355.278	0.56
355.644	0.57
356.009	0.57
356.375	0.58
356.74	0.6
357.106	0.59
357.471	0.61
357.836	0.61
358.202	0.62
358.567	0.63
358.932	0.64
359.297	0.64
359.663	0.65
360.028	0.66
360.393	0.67
360.758	0.68
361.123	0.7
361.488	0.71
361.853	0.72
362.218	0.72
362.583	0.73
362.948	0.73
363.312	0.75
363.677	0.76
364.042	0.76
364.407	0.78
364.772	0.78
365.136	0.79
365.501	0.79
365.865	0.8
366.23	0.81
366.595	0.82
366.959	0.83
367.324	0.83
367.688	0.84
368.052	0.86
368.417	0.86
368.781	0.86
369.145	0.88
369.51	0.88
369.874	0.89
370.238	0.89
370.602	0.9
370.967	0.91
371.331	0.91
371.695	0.91
372.059	0.91
372.423	0.92
372.787	0.92
373.151	0.92
373.515	0.91
373.878	0.91
374.242	0.9
374.606	0.9
374.97	0.9
375.334	0.89
375.697	0.88
376.061	0.87
376.425	0.87
376.788	0.85
377.152	0.85
377.515	0.84
377.879	0.83
378.242	0.82
378.606	0.81
378.969	0.81
379.333	0.8
379.696	0.79
380.059	0.77
380.422	0.78
380.786	0.77
381.149	0.76
381.512	0.75
381.875	0.75
382.238	0.74
382.601	0.73
382.964	0.72
383.327	0.72
383.69	0.71
384.053	0.71
384.416	0.7
384.779	0.69
385.142	0.69
385.504	0.69
385.867	0.69
386.23	0.69
386.593	0.69
386.955	0.69
387.318	0.69
387.68	0.69
388.043	0.69
388.405	0.69
388.768	0.69
389.13	0.69
389.493	0.69
389.855	0.69
390.217	0.69
390.58	0.68
390.942	0.67
391.304	0.67
391.666	0.66
392.028	0.66
392.391	0.65
392.753	0.63
393.115	0.63
393.477	0.63
393.839	0.61
394.201	0.62
394.563	0.62
394.924	0.61
395.286	0.62
395.648	0.62
396.01	0.62
396.371	0.63
396.733	0.64
397.095	0.65
397.456	0.67
397.818	0.68
398.18	0.69
398.541	0.71
398.903	0.73
399.264	0.75
399.625	0.77
399.987	0.79
400.348	0.8
400.709	0.81
401.071	0.82
401.432	0.82
401.793	0.83
402.154	0.82
402.515	0.81
402.876	0.8
403.238	0.78
403.599	0.76
403.96	0.74
404.32	0.71
404.681	0.69
405.042	0.66
405.403	0.63
405.764	0.6
406.125	0.57
406.485	0.55
406.846	0.51
407.207	0.48
407.567	0.46
407.928	0.44
408.288	0.41
408.649	0.39
409.009	0.37
409.37	0.34
409.73	0.33
410.091	0.3
410.451	0.28
410.811	0.28
411.171	0.26
411.532	0.24
411.892	0.24
412.252	0.23
412.612	0.21
412.972	0.2
413.332	0.19
413.692	0.19
414.052	0.18
414.412	0.17
414.772	0.16
415.132	0.15
415.492	0.15
415.851	0.15
416.211	0.14
416.571	0.14
416.931	0.13
417.29	0.13
417.65	0.13
418.009	0.12
418.369	0.12
418.728	0.11
419.088	0.11
419.447	0.11
419.807	0.11
420.166	0.1
420.525	0.11
420.884	0.1
421.244	0.1
421.603	0.1
421.962	0.09
422.321	0.09
422.68	0.09
423.039	0.09
423.398	0.09
423.757	0.08
424.116	0.09
424.475	0.09
424.834	0.08
425.193	0.08
425.551	0.08
425.91	0.08
426.269	0.09
426.628	0.07
426.986	0.08
427.345	0.08
427.703	0.07
428.062	0.07
428.42	0.08
428.779	0.08
429.137	0.07
429.496	0.08
429.854	0.07
430.212	0.08
430.57	0.07
430.929	0.07
431.287	0.07
431.645	0.07
432.003	0.07
432.361	0.07
432.719	0.06
433.077	0.07
433.435	0.07
433.793	0.07
434.151	0.06
434.509	0.07
434.866	0.07
435.224	0.07
435.582	0.07
435.94	0.07
436.297	0.06
436.655	0.07
437.012	0.06
437.37	0.07
437.727	0.06
438.085	0.07
438.442	0.06
438.8	0.06
439.157	0.06
439.514	0.06
439.872	0.07
440.229	0.06
440.586	0.06
440.943	0.07
441.3	0.06
441.657	0.07
442.014	0.06
442.371	0.07
442.728	0.06
443.085	0.07
443.442	0.07
443.799	0.07
444.156	0.07
444.513	0.07
444.869	0.06
445.226	0.06
445.583	0.07
445.939	0.07
446.296	0.06
446.652	0.06
447.009	0.06
447.365	0.07
447.722	0.06
448.078	0.06
448.434	0.06
448.791	0.07
449.147	0.06
449.503	0.07
449.859	0.07
450.215	0.07
450.571	0.06
450.928	0.06
451.284	0.06
451.64	0.06
451.995	0.07
452.351	0.06
452.707	0.06
453.063	0.06
453.419	0.06
453.775	0.06
454.13	0.06
454.486	0.06
454.842	0.06
455.197	0.06
455.553	0.06
455.908	0.05
456.264	0.06
456.619	0.06
456.975	0.05
457.33	0.06
457.685	0.05
458.04	0.05
458.396	0.05
458.751	0.04
459.106	0.04
459.461	0.04
459.816	0.04
460.171	0.04
460.526	0.04
460.881	0.04
461.236	0.04
461.591	0.03
461.946	0.04
462.301	0.04
462.655	0.04
463.01	0.03
463.365	0.03
463.719	0.02
464.074	0.03
464.428	0.02
464.783	0.03
465.137	0.02
465.492	0.01
465.846	0.02
466.201	0.02
466.555	0.03
466.909	0.03
467.263	0.03
467.618	0.03
467.972	0.03
468.326	0.03
468.68	0.03
469.034	0.02
469.388	0.02
469.742	0.02
470.096	0.03
470.45	0.03
470.804	0.03
471.157	0.03
471.511	0.04
471.865	0.04
472.218	0.04
472.572	0.04
472.926	0.04
473.279	0.05
473.633	0.05
473.986	0.05
474.34	0.06
474.693	0.06
475.046	0.07
475.4	0.07
475.753	0.07
476.106	0.08
476.459	0.09
476.812	0.1
477.165	0.09
477.519	0.09
477.872	0.1
478.224	0.1
478.577	0.11
478.93	0.11
479.283	0.11
479.636	0.12
479.989	0.12
480.341	0.12
480.694	0.12
481.047	0.12
481.399	0.13
481.752	0.14
482.104	0.14
482.457	0.14
482.809	0.14
483.162	0.15
483.514	0.15
483.866	0.15
484.219	0.15
484.571	0.16
484.923	0.15
485.275	0.16
485.627	0.16
485.979	0.16
486.331	0.16
486.683	0.17
487.035	0.17
487.387	0.17
487.739	0.17
488.091	0.18
488.443	0.18
488.794	0.18
489.146	0.18
489.498	0.18
489.849	0.18
490.201	0.19
490.552	0.18
490.904	0.19
491.255	0.19
491.607	0.2
491.958	0.2
492.309	0.2
492.661	0.2
493.012	0.2
493.363	0.2
493.714	0.2
494.065	0.2
494.416	0.21
494.767	0.21
495.118	0.21
495.469	0.21
495.82	0.22
496.171	0.22
496.522	0.22
496.872	0.22
497.223	0.22
497.574	0.22
497.924	0.23
498.275	0.23
498.626	0.23
498.976	0.23
499.327	0.24
499.677	0.24
500.027	0.24
500.378	0.24
500.728	0.24
501.078	0.25
501.428	0.25
501.779	0.25
502.129	0.25
502.479	0.25
502.829	0.25
503.179	0.25
503.529	0.26
503.879	0.26
504.229	0.26
504.578	0.27
504.928	0.26
505.278	0.27
505.628	0.27
505.977	0.27
506.327	0.28
506.676	0.28
507.026	0.28
507.375	0.28
507.725	0.28
508.074	0.28
508.424	0.28
508.773	0.28
509.122	0.29
509.471	0.28
509.82	0.29
510.17	0.29
510.519	0.29
510.868	0.29
511.217	0.29
511.566	0.3
511.915	0.3
512.263	0.3
512.612	0.31
512.961	0.3
513.31	0.31
513.659	0.31
514.007	0.31
514.356	0.31
514.704	0.31
515.053	0.31
515.401	0.31
515.75	0.32
516.098	0.32
516.447	0.32
516.795	0.32
517.143	0.32
517.491	0.32
517.839	0.33
518.188	0.32
518.536	0.33
518.884	0.33
519.232	0.33
519.58	0.33
519.928	0.34
520.275	0.34
520.623	0.34
520.971	0.34
521.319	0.34
521.666	0.34
522.014	0.34
522.362	0.35
522.709	0.34
523.057	0.35
523.404	0.35
523.752	0.35
524.099	0.35
524.446	0.35
524.794	0.35
525.141	0.36
525.488	0.36
525.835	0.35
526.182	0.36
526.529	0.36
526.876	0.36
527.223	0.36
527.57	0.36
527.917	0.37
528.264	0.37
528.611	0.37
528.958	0.37
529.304	0.36
529.651	0.37
529.998	0.37
530.344	0.37
530.691	0.37
531.037	0.38
531.384	0.37
531.73	0.38
532.076	0.38
532.423	0.38
532.769	0.38
533.115	0.38
533.461	0.38
533.807	0.38
534.154	0.38
534.5	0.38
534.846	0.38
535.192	0.39
535.537	0.38
535.883	0.38
536.229	0.39
536.575	0.38
536.921	0.39
537.266	0.39
537.612	0.39
537.957	0.39
538.303	0.39
538.649	0.39
538.994	0.4
539.339	0.39
539.685	0.4
540.03	0.4
540.375	0.4
540.721	0.4
541.066	0.4
541.411	0.4
541.756	0.4
542.101	0.4
542.446	0.41
542.791	0.4
543.136	0.41
543.481	0.4
543.825	0.4
544.17	0.41
544.515	0.4
544.86	0.41
545.204	0.41
545.549	0.41
545.893	0.41
546.238	0.41
546.582	0.41
546.927	0.41
547.271	0.41
547.615	0.41
547.96	0.41
548.304	0.42
548.648	0.42
548.992	0.41
549.336	0.41
549.68	0.41
550.024	0.42
550.368	0.42
550.712	0.42
551.056	0.42
551.4	0.42
551.743	0.42
552.087	0.41
552.431	0.41
552.774	0.42
553.118	0.42
553.462	0.42
553.805	0.42
554.148	0.42
554.492	0.42
554.835	0.42
555.178	0.41
555.522	0.42
555.865	0.42
556.208	0.42
556.551	0.41
556.894	0.42
557.237	0.41
557.58	0.42
557.923	0.42
558.266	0.42
558.609	0.42
558.952	0.41
559.294	0.42
559.637	0.41
559.98	0.41
560.322	0.42
560.665	0.42
561.007	0.42
561.35	0.42
561.692	0.42
562.034	0.42
562.377	0.42
562.719	0.41
563.061	0.41
563.403	0.42
563.745	0.42
564.088	0.41
564.43	0.42
564.772	0.41
565.113	0.41
565.455	0.41
565.797	0.41
566.139	0.41
566.481	0.41
566.822	0.41
567.164	0.41
567.506	0.41
567.847	0.41
568.189	0.41
568.53	0.41
568.872	0.41
569.213	0.41
569.554	0.41
569.895	0.4
570.237	0.4
570.578	0.4
570.919	0.4
571.26	0.4
571.601	0.4
571.942	0.4
572.283	0.4
572.624	0.4
572.965	0.39
573.306	0.39
573.646	0.39
573.987	0.38
574.328	0.39
574.668	0.39
575.009	0.38
575.349	0.38
575.69	0.38
576.03	0.37
576.37	0.37
576.711	0.36
577.051	0.36
577.391	0.36
577.731	0.38
578.072	0.37
578.412	0.36
578.752	0.37
579.092	0.35
579.431	0.32
579.771	0.3
580.111	0.29
580.451	0.3
580.791	0.33
581.13	0.34
581.47	0.35
581.81	0.35
582.149	0.35
582.489	0.36
582.828	0.32
583.167	0.29
583.507	0.25
583.846	0.24
584.185	0.26
584.525	0.29
584.864	0.32
585.203	0.35
585.542	0.36
585.881	0.36
586.22	0.36
586.559	0.34
586.898	0.31
587.236	0.3
587.575	0.29
587.914	0.31
588.252	0.32
588.591	0.34
588.93	0.34
589.268	0.33
589.607	0.33
589.945	0.33
590.283	0.33
590.622	0.34
590.96	0.36
591.298	0.37
591.636	0.36
591.974	0.36
592.313	0.37
592.651	0.37
592.989	0.37
593.326	0.37
593.664	0.37
594.002	0.37
594.34	0.36
594.678	0.35
595.015	0.32
595.353	0.31
595.691	0.32
596.028	0.34
596.366	0.36
596.703	0.36
597.04	0.37
597.378	0.37
597.715	0.37
598.052	0.37
598.389	0.37
598.726	0.37
599.064	0.37
599.401	0.37
599.738	0.37
600.074	0.37
600.411	0.36
600.748	0.34
601.085	0.33
601.422	0.32
601.758	0.32
602.095	0.33
602.432	0.33
602.768	0.33
603.105	0.35
603.441	0.36
603.777	0.37
604.114	0.37
604.45	0.37
604.786	0.37
605.122	0.37
605.459	0.36
605.795	0.36
606.131	0.36
606.467	0.36
606.803	0.36
607.139	0.36
607.474	0.36
607.81	0.35
608.146	0.35
608.482	0.35
608.817	0.35
609.153	0.34
609.488	0.34
609.824	0.34
610.159	0.35
610.495	0.35
610.83	0.35
611.165	0.35
611.5	0.35
611.836	0.35
612.171	0.35
612.506	0.35
612.841	0.35
613.176	0.35
613.511	0.35
613.845	0.35
614.18	0.35
614.515	0.35
614.85	0.35
615.184	0.34
615.519	0.34
615.854	0.34
616.188	0.34
616.523	0.34
616.857	0.33
617.191	0.33
617.526	0.33
617.86	0.33
618.194	0.33
618.528	0.33
618.862	0.33
619.196	0.33
619.53	0.33
619.864	0.33
620.198	0.33
620.532	0.33
620.866	0.33
621.2	0.33
621.533	0.33
621.867	0.33
622.201	0.32
622.534	0.32
622.868	0.32
623.201	0.32
623.534	0.32
623.868	0.31
624.201	0.31
624.534	0.31
624.868	0.31
625.201	0.31
625.534	0.31
625.867	0.31
626.2	0.3
626.533	0.31
626.865	0.3
627.198	0.3
627.531	0.3
627.864	0.3
628.196	0.3
628.529	0.3
628.862	0.29
629.194	0.29
629.527	0.29
629.859	0.29
630.191	0.29
630.524	0.29
630.856	0.29
631.188	0.29
631.52	0.28
631.852	0.28
632.184	0.28
632.516	0.27
632.848	0.28
633.18	0.27
633.512	0.27
633.844	0.27
634.175	0.28
634.507	0.27
634.839	0.27
635.17	0.27
635.502	0.26
635.833	0.26
636.165	0.26
636.496	0.26
636.827	0.26
637.159	0.26
637.49	0.26
637.821	0.25
638.152	0.25
638.483	0.24
638.814	0.24
639.145	0.24
639.476	0.24
639.807	0.24
640.137	0.24
640.468	0.24
640.799	0.23
641.129	0.23
641.46	0.23
641.791	0.23
642.121	0.23
642.451	0.23
642.782	0.23
643.112	0.22
643.442	0.23
643.773	0.23
644.103	0.22
644.433	0.22
644.763	0.22
645.093	0.22
645.423	0.21
645.753	0.21
646.082	0.21
646.412	0.21
646.742	0.21
647.072	0.21
647.401	0.21
647.731	0.21
648.06	0.2
648.39	0.2
648.719	0.21
649.048	0.21
649.378	0.2
649.707	0.2
650.036	0.2
650.365	0.2
650.694	0.19
651.023	0.2
651.352	0.19
651.681	0.19
652.01	0.19
652.339	0.2
652.668	0.19
652.996	0.19
653.325	0.19
653.654	0.2
653.982	0.19
654.311	0.19
654.639	0.19
654.967	0.19
655.296	0.19
655.624	0.19
655.952	0.19
656.28	0.19
656.609	0.19
656.937	0.19
657.265	0.18
657.593	0.04
657.92	0
658.248	0
658.576	-0
658.904	0.01
659.231	0.08
659.559	0.14
659.887	0.18
660.214	0.18
660.542	0.18
660.869	0.18
661.196	0.18
661.524	0.18
661.851	0.18
662.178	0.18
662.505	0.17
662.832	0.17
663.159	0.17
663.486	0.17
663.813	0.17
664.14	0.17
664.467	0.17
664.794	0.17
665.12	0.17
665.447	0.17
665.774	0.17
666.1	0.17
666.427	0.17
666.753	0.17
667.079	0.17
667.406	0.17
667.732	0.16
668.058	0.17
668.384	0.16
668.71	0.16
669.036	0.16
669.362	0.16
669.688	0.16
670.014	0.16
670.34	0.16
670.666	0.16
670.991	0.16
671.317	0.15
671.643	0.15
671.968	0.15
672.294	0.15
672.619	0.15
672.945	0.14
673.27	0.14
673.595	0.14
673.92	0.13
674.246	0.13
674.571	0.13
674.896	0.13
675.221	0.13
675.546	0.13
675.87	0.13
676.195	0.13
676.52	0.13
676.845	0.13
677.169	0.13
677.494	0.13
677.819	0.13
678.143	0.12
678.468	0.12
678.792	0.12
679.116	0.12
679.44	0.12
679.765	0.11
680.089	0.11
680.413	0.1
680.737	0.1
681.061	0.1
681.385	0.1
681.709	0.09
682.033	0.09
682.356	0.09
682.68	0.1
683.004	0.09
683.327	0.08
683.651	0.08
683.974	0.08
684.298	0.09
684.621	0.09
684.944	0.09
685.268	0.09
685.591	0.08
685.914	0.07
686.237	0.06
686.56	0.06
686.883	0.05
687.206	0.05
687.529	0.04
687.852	0.04
688.175	0.04
688.497	0.05
688.82	0.05
689.142	0.05
689.465	0.05
689.787	0.05
690.11	0.05
690.432	0.05
690.755	0.05
691.077	0.05
691.399	0.04
691.721	0.04
692.043	0.04
692.365	0.04
692.687	0.04
693.009	0.03
693.331	0.02
693.653	0.02
693.974	0.03
694.296	0.02
694.618	0.03
694.939	0.03
695.261	0.02
695.582	0.02
695.904	0.02
696.225	0.03
696.546	0.03
696.868	0.03
697.189	0.02
697.51	0.02
697.831	0.02
698.152	0.02
698.473	0.02
698.794	0.01
699.114	0.01
699.435	0
699.756	0
700.077	0.01
700.397	0.01
700.718	0.01
701.038	0.02
701.359	0.02
701.679	0.02
701.999	0.02
702.32	0.02
702.64	0.02
702.96	0.02
703.28	0.02
703.6	0.02
703.92	0.01
704.24	0.01
704.56	0.01
704.879	0
705.199	0.01
705.519	0.01
705.838	0.01
706.158	0.01
706.478	0.01
706.797	0.01
707.116	0.01
707.436	0.01
707.755	0.01
708.074	0.01
708.393	0.01
708.712	0
709.031	0
709.35	0
709.669	0
709.988	0
710.307	0
710.626	0
710.944	0
711.263	0
711.582	0
711.9	0
712.219	0
712.537	0
712.855	0
713.174	0
713.492	0
713.81	0.01
714.128	0
714.446	0
714.764	0
715.082	0
715.4	0
715.718	0
716.035	0
716.353	0
716.671	0
716.988	0
717.306	0
717.623	0.01
717.941	0.01
718.258	0.01
718.575	0.01
718.893	0.01
719.21	0.01
719.527	0.01
719.844	0.01
720.161	0.01
720.478	0
720.795	0.01
721.112	0.01
721.428	0.01
721.745	0.01
722.062	0.01
722.378	0.01
722.695	0.01
723.011	0.01
723.328	0.01
723.644	0.01
723.96	0.01
724.276	0.01
724.593	0.01
724.909	0.02
725.225	0.01
725.541	0.02
725.857	0.02
726.173	0.02
726.488	0.02
726.804	0.02
727.12	0.02
727.435	0.02
727.751	0.02
728.067	0.01
728.382	0.02
728.697	0.02
729.013	0.02
729.328	0.02
729.643	0.02
729.958	0.02
730.273	0.02
730.588	0.02
730.903	0.02
731.218	0.02
731.533	0.02
731.848	0.02
732.163	0.02
732.477	0.01
732.792	0.01
733.107	0.01
733.421	0.01
733.736	0.01
734.05	0.01
734.364	0.01
734.678	0.02
734.993	0.01
735.307	0.02
735.621	0.01
735.935	0.01
736.249	0.01
736.563	0.01
736.877	0.02
737.19	0.02
737.504	0.02
737.818	0.01
738.131	0.01
738.445	0.02
738.758	0.02
739.072	0.02
739.385	0.02
739.698	0.03
740.012	0.03
740.325	0.02
740.638	0.02
740.951	0.02
741.264	0.01
741.577	0.02
741.89	0.03
742.203	0.03
742.515	0.04
742.828	0.04
743.141	0.03
743.453	0.03
743.766	0.03
744.078	0.03
744.391	0.02
744.703	0.03
745.015	0.03
745.327	0.03
745.639	0.03
745.952	0.03
746.264	0.03
746.575	0.03
746.887	0.03
747.199	0.03
747.511	0.02
747.823	0.03
748.134	0.03
748.446	0.03
748.757	0.03
749.069	0.02
749.38	0.02
749.692	0.03
750.003	0.03
750.314	0.02
750.625	0.02
750.936	0.02
751.248	0.01
751.559	0.01
751.869	0.01
752.18	0.01
752.491	0.01
752.802	0.01
753.112	0.01
753.423	0.01
753.734	0.01
754.044	0.01
754.355	0.01
754.665	0.01
754.975	0.01
755.285	0.01
755.596	0
755.906	0.01
756.216	0.01
756.526	0.01
756.836	0.01
757.146	0.01
757.455	0.01
757.765	0.01
758.075	0
758.385	0
758.694	0
759.004	0
759.313	0
759.622	0
759.932	0
760.241	0
760.55	0
760.859	0.01
761.168	0.01
761.477	0.01
761.786	0
762.095	0
762.404	0
762.713	0.01
763.021	0
763.33	0.01
763.639	0.01
763.947	0.01
764.256	0.01
764.564	0.01
764.872	0.01
765.181	0.01
765.489	0.01
765.797	0.01
766.105	0.01
766.413	0
766.721	0.01
767.029	0.01
767.337	0.01
767.644	0.01
767.952	0.02
768.26	0.02
768.567	0.02
768.875	0.02
769.182	0.02
769.49	0.02
769.797	0.02
770.104	0.02
770.411	0.02
770.718	0.02
771.026	0.02
771.333	0.02
771.639	0.02
771.946	0.02
772.253	0.02
772.56	0.02
772.867	0.02
773.173	0.02
773.48	0.02
773.786	0.02
774.093	0.02
774.399	0.03
774.705	0.03
775.012	0.02
775.318	0.03
775.624	0.02
775.93	0.03
776.236	0.02
776.542	0.02
776.848	0.02
777.154	0.02
777.459	0.02
777.765	0.02
778.071	0.02
778.376	0.02
778.682	0.02
778.987	0.02
779.292	0.02
779.598	0.02
779.903	0.02
780.208	0.02
780.513	0.02
780.818	0.02
781.123	0.02
781.428	0.02
781.733	0.02
782.038	0.02
782.343	0.02
782.647	0.02
782.952	0.02
783.256	0.02
783.561	0.03
783.865	0.03
784.17	0.02
784.474	0.03
784.778	0.02
785.082	0.02
785.386	0.02
785.69	0.02
785.994	0.02
786.298	0.02
786.602	0.02
786.906	0.02
787.209	0.02
787.513	0.02
787.817	0.03
788.12	0.02
788.424	0.02
788.727	0.02
789.03	0.02
789.333	0.02
789.637	0.02
789.94	0.02
790.243	0.02
790.546	0.02
790.849	0.03
791.152	0.02
791.454	0.03
791.757	0.03
792.06	0.03
792.362	0.03
792.665	0.02
792.967	0.03
793.27	0.02
793.572	0.02
793.874	0.02
794.177	0.02
794.479	0.02
794.781	0.02
795.083	0.02
795.385	0.02
795.687	0.03
795.989	0.03
796.29	0.03
796.592	0.03
796.894	0.03
797.195	0.03
797.497	0.03
797.798	0.03
798.1	0.03
798.401	0.03
798.702	0.03
799.003	0.03
799.304	0.03
799.605	0.03
799.906	0.03
800.207	0.03
800.508	0.03
800.809	0.03
801.11	0.03
801.41	0.03
801.711	0.03
802.011	0.03
802.312	0.03
802.612	0.03
802.913	0.03
803.213	0.03
803.513	0.03
803.813	0.02
804.113	0.03
804.413	0.03
804.713	0.03
805.013	0.03
805.313	0.03
805.613	0.03
805.912	0.03
806.212	0.03
806.511	0.03
806.811	0.03
807.11	0.03
807.41	0.03
807.709	0.03
808.008	0.03
808.307	0.03
808.606	0.03
808.905	0.03
809.204	0.03
809.503	0.03
809.802	0.03
810.101	0.03
810.399	0.03
810.698	0.03
810.997	0.03
811.295	0.03
811.593	0.03
811.892	0.03
812.19	0.03
812.488	0.03
812.786	0.03
813.084	0.03
813.383	0.03
813.68	0.03
813.978	0.03
814.276	0.04
814.574	0.04
814.872	0.04
815.169	0.04
815.467	0.04
815.764	0.04
816.062	0.04
816.359	0.04
816.656	0.04
816.954	0.04
817.251	0.04
817.548	0.04
817.845	0.04
818.142	0.04
818.439	0.04
818.735	0.04
819.032	0.04
819.329	0.04
819.626	0.04
819.922	0.04
820.219	0.04
820.515	0.04
820.811	0.04
821.108	0.04
821.404	0.04
821.7	0.04
821.996	0.04
822.292	0.04
822.588	0.04
822.884	0.05
823.18	0.04
823.475	0.04
823.771	0.04
824.067	0.04
824.362	0.04
824.658	0.04
824.953	0.04
825.249	0.04
825.544	0.03
825.839	0.04
826.134	0.04
826.429	0.04
826.724	0.04
827.019	0.04
827.314	0.04
827.609	0.04
827.904	0.04
828.198	0.05
828.493	0.04
828.787	0.04
829.082	0.04
829.376	0.04
829.671	0.05
829.965	0.05
830.259	0.04
830.553	0.05
830.847	0.05
831.141	0.05
831.435	0.05
831.729	0.04
832.023	0.04
832.317	0.04
832.61	0.04
832.904	0.04
833.197	0.05
833.491	0.05
833.784	0.04
834.077	0.04
834.371	0.05
834.664	0.05
834.957	0.05
835.25	0.05
835.543	0.05
835.836	0.04
836.129	0.05
836.421	0.05
836.714	0.05
837.007	0.05
837.299	0.05
837.592	0.05
837.884	0.05
838.177	0.05
838.469	0.04
838.761	0.05
839.053	0.05
839.345	0.05
839.637	0.05
839.929	0.05
840.221	0.04
840.513	0.05
840.805	0.05
841.096	0.05
841.388	0.05
841.68	0.06
841.971	0.05
842.262	0.05
842.554	0.05
842.845	0.05
843.136	0.04
843.427	0.04
843.718	0.04
844.009	0.05
844.3	0.05
844.591	0.05
844.882	0.05
845.173	0.05
845.463	0.05
845.754	0.05
846.044	0.04
846.335	0.05
846.625	0.05
846.915	0.06
847.206	0.05
847.496	0.05
847.786	0.04
848.076	0.06
848.366	0.04
848.656	0.05
848.945	0.05
849.235	0.05
849.525	0.05
849.814	0.05
850.104	0.05
850.393	0.06
850.683	0.06
850.972	0.05
851.261	0.05
851.551	0.06
851.84	0.05
852.129	0.05
852.418	0.05
852.707	0.05
852.995	0.06
853.284	0.06
853.573	0.05
853.862	0.06
854.15	0.06
854.439	0.06
854.727	0.06
855.015	0.06
855.304	0.06
855.592	0.07
855.88	0.06
856.168	0.06
856.456	0.06
856.744	0.07
857.032	0.07
857.32	0.07
857.607	0.07
857.895	0.05
858.183	0.06
858.47	0.06
858.757	0.07
859.045	0.06
859.332	0.06
859.619	0.08
859.907	0.08
860.194	0.09
860.481	0.07
860.768	0.08
861.054	0.06
861.341	0.07
861.628	0.07
861.915	0.07
862.201	0.06
862.488	0.06
862.774	0.07
863.061	0.07
863.347	0.06
863.633	0.05
863.919	0.06
864.205	0.07
864.491	0.06
864.777	0.06
865.063	0.07
865.349	0.05
865.635	0.06
865.92	0.05
866.206	0.06
866.492	0.08
866.777	0.07
867.062	0.06
867.348	0.08
867.633	0.04
867.918	0.05
868.203	0.07
868.488	0.06
868.773	0.06
869.058	0.09
869.343	0.06
869.628	0.07
869.912	0.05
870.197	0.03
870.482	0.06
870.766	0.05
871.05	0.07
871.335	0.04
871.619	0.05
871.903	0.04
872.187	0.04
872.471	0.06
872.755	0.07
873.039	0.05
873.323	0.05
873.607	0.06
873.89	0.06
874.174	0.08
874.458	0.05
874.741	0.07
875.024	0.02
875.308	0.03
875.591	0.03
875.874	0.05
876.157	0.03
876.44	0.04
876.723	0.06
877.006	0.06
877.289	0.03
877.572	0.04
877.854	0.05
878.137	0.09
878.42	0.06
878.702	0.09
878.984	0.06
879.267	0.02
879.549	0.05
879.831	0.08
880.113	0.06
880.395	0.02
880.677	0.07
880.959	-0.01
