Data from Rubpy_BV_600_EDTA_Buffered_Absorbance_12-26-07-442.txt Node
Date: Wed Jul 01 12:26:07 BST 2026
User: fpm-admin
Spectrometer: OFX00224
Trigger mode: 0
Integration Time (sec): 7.000000E-2
Scans to average: 3
Nonlinearity correction enabled: false
Boxcar width: 0
Storing dark spectrum: false
XAxis mode: Wavelengths
Number of Pixels in Spectrum: 2136
>>>>>Begin Spectral Data<<<<<
154.91	-0.13
155.289	0.33
155.669	-0
156.048	-0
156.428	1.11
156.807	0.22
157.186	0.24
157.566	-0
157.945	-0.06
158.325	0.24
158.704	-0
159.083	0.3
159.462	0.76
159.842	0.49
160.221	0.13
160.6	0.33
160.979	0.22
161.359	-0.52
161.738	0.09
162.117	-0
162.496	0.9
162.875	-0
163.254	-0
163.633	-0.54
164.012	1.4
164.391	-0.11
164.77	0.16
165.149	-0.19
165.528	-0
165.907	-0
166.286	-0
166.665	-0.12
167.044	-0
167.423	-0.46
167.802	-0
168.181	-0.17
168.559	-0.24
168.938	-0.85
169.317	0.48
169.696	-0.78
170.074	-0.12
170.453	-0.08
170.832	0.25
171.21	-0.8
171.589	0.7
171.968	0.32
172.346	-0.31
172.725	-0
173.103	-0.36
173.482	0.26
173.861	-1.59
174.239	-0
174.617	0.19
174.996	-0.11
175.374	-0
175.753	0.14
176.131	0.07
176.51	-0.1
176.888	0.38
177.266	0.57
177.645	-0.01
178.023	0.5
178.401	-0.22
178.779	0.01
179.158	-0.06
179.536	-0
179.914	0.27
180.292	-0.57
180.67	-0.16
181.048	-0.09
181.427	-0.16
181.805	0.09
182.183	0.3
182.561	-0.23
182.939	0.01
183.317	0.54
183.695	-0
184.073	0.24
184.451	-0.92
184.829	0.48
185.206	0.02
185.584	-0.06
185.962	-0
186.34	-0.51
186.718	-0
187.096	-0
187.473	-0
187.851	-0.19
188.229	-0.34
188.607	0.06
188.984	0.26
189.362	0.03
189.74	0.01
190.117	-0.03
190.495	0.04
190.872	0.01
191.25	0.11
191.627	0.08
192.005	0.17
192.382	0.03
192.76	0.09
193.137	0.14
193.515	0.02
193.892	0.14
194.269	0.03
194.647	0.08
195.024	0.05
195.401	0.11
195.779	-0.03
196.156	0.06
196.533	0.11
196.91	0.15
197.288	0.02
197.665	0.1
198.042	0.07
198.419	0.12
198.796	0.01
199.173	0.11
199.55	-0.01
199.927	0.08
200.304	0.13
200.681	0.08
201.058	-0.09
201.435	-0
201.812	0.13
202.189	0.11
202.566	0.07
202.943	0.2
203.32	0.1
203.697	0.02
204.073	0.07
204.45	-0
204.827	0.07
205.204	-0.01
205.58	0.09
205.957	0.03
206.334	0.1
206.71	0.15
207.087	0.05
207.464	0.12
207.84	0.03
208.217	0.09
208.593	0.04
208.97	0.09
209.346	0.14
209.723	0.1
210.099	0.03
210.476	0.04
210.852	0.11
211.228	0.19
211.605	0.02
211.981	0.11
212.357	0.08
212.733	0.07
213.11	0.02
213.486	0.02
213.862	0.14
214.238	0.02
214.614	0.07
214.991	0.15
215.367	0.05
215.743	0.02
216.119	0.13
216.495	0.17
216.871	0.14
217.247	0.02
217.623	0.03
217.999	0.09
218.375	0.07
218.751	0.12
219.127	0.01
219.502	0.09
219.878	0.07
220.254	0.15
220.63	0.11
221.006	0.07
221.381	0.09
221.757	0.04
222.133	0.16
222.508	0.07
222.884	0.12
223.26	0.15
223.635	0.07
224.011	0.09
224.386	0.14
224.762	0.04
225.137	0.06
225.513	0.02
225.888	0.08
226.264	0.08
226.639	0.15
227.014	0.07
227.39	0.08
227.765	0.17
228.14	0.11
228.516	0.13
228.891	0.13
229.266	0.08
229.641	0.03
230.017	0.14
230.392	0.17
230.767	0.06
231.142	0.11
231.517	0.05
231.892	0.1
232.267	0.17
232.642	0.07
233.017	0.13
233.392	-0.01
233.767	0.2
234.142	0.11
234.517	0.06
234.892	0.08
235.267	0.15
235.641	0.09
236.016	0
236.391	0.12
236.766	0.12
237.14	0.05
237.515	0.1
237.89	0.03
238.264	0.09
238.639	0.1
239.014	0.16
239.388	0.13
239.763	0.1
240.137	0.06
240.512	0.09
240.886	-0
241.261	0.11
241.635	0.17
242.009	0.15
242.384	0.16
242.758	0.06
243.132	0.11
243.507	0.1
243.881	0.11
244.255	0.13
244.629	0.06
245.004	0.06
245.378	0.1
245.752	0.01
246.126	0.21
246.5	0.07
246.874	0.07
247.248	0.13
247.622	0.11
247.996	0.09
248.37	0.05
248.744	0.19
249.118	0.15
249.492	0.2
249.866	0.09
250.24	0.1
250.613	0.16
250.987	0.12
251.361	0.07
251.735	0.07
252.108	0.13
252.482	0.13
252.856	0.01
253.229	0
253.603	0.03
253.977	0.07
254.35	0.08
254.724	0.12
255.097	0.09
255.471	0.11
255.844	0.1
256.218	0.07
256.591	0.1
256.964	0.08
257.338	0.1
257.711	0.06
258.084	0.05
258.458	0.18
258.831	0.13
259.204	0.03
259.577	0.14
259.95	0.09
260.323	0.12
260.697	0.12
261.07	0.07
261.443	0.05
261.816	0.12
262.189	0.07
262.562	0.04
262.935	0.1
263.308	0.07
263.68	0.13
264.053	0.13
264.426	0.1
264.799	0.11
265.172	0.14
265.545	0.12
265.917	0.08
266.29	0.1
266.663	0.1
267.035	0.08
267.408	0.08
267.781	0.14
268.153	0.13
268.526	0.14
268.898	0.04
269.271	0.09
269.643	0.04
270.016	0.06
270.388	0.15
270.76	0.07
271.133	0.09
271.505	0.13
271.877	0.11
272.25	0.13
272.622	0.17
272.994	0.13
273.366	0.15
273.739	0.15
274.111	0.13
274.483	0.14
274.855	0.11
275.227	0.13
275.599	0.08
275.971	0.03
276.343	0.16
276.715	0.13
277.087	0.15
277.459	0.06
277.831	0.06
278.203	0.09
278.574	0.14
278.946	0.09
279.318	0.17
279.69	0.12
280.061	0.08
280.433	0.09
280.805	0.11
281.176	0.15
281.548	0.13
281.92	0.14
282.291	0.21
282.663	0.14
283.034	0.2
283.406	0.13
283.777	0.16
284.148	0.15
284.52	0.15
284.891	0.08
285.262	0.09
285.634	0.08
286.005	0.12
286.376	0.16
286.747	0.15
287.119	0.11
287.49	0.13
287.861	0.04
288.232	0.06
288.603	0.1
288.974	0.13
289.345	0.11
289.716	0.08
290.087	0.11
290.458	0.07
290.829	0.07
291.2	0.16
291.571	0.09
291.941	0.05
292.312	0.15
292.683	0.08
293.054	0.17
293.424	0.08
293.795	0.08
294.166	0.07
294.536	0.16
294.907	0.16
295.277	0.12
295.648	0.12
296.018	0.1
296.389	0.13
296.759	0.07
297.13	0.12
297.5	0.12
297.871	0.11
298.241	0.05
298.611	0.06
298.981	0.03
299.352	0.11
299.722	0.09
300.092	0.11
300.462	0.03
300.832	0.1
301.202	0.08
301.573	0.09
301.943	0.06
302.313	0.08
302.683	0.09
303.053	0.1
303.422	0.07
303.792	0.07
304.162	0.09
304.532	0.06
304.902	0.03
305.272	0.05
305.641	0.07
306.011	0.05
306.381	0.04
306.75	0.04
307.12	0.04
307.49	0.05
307.859	0.06
308.229	0.05
308.598	0.07
308.968	0.05
309.337	0.06
309.707	0.06
310.076	0.08
310.445	0.06
310.815	0.07
311.184	0.06
311.553	0.08
311.923	0.08
312.292	0.07
312.661	0.07
313.03	0.07
313.399	0.08
313.768	0.08
314.137	0.08
314.506	0.09
314.875	0.08
315.244	0.09
315.613	0.09
315.982	0.09
316.351	0.09
316.72	0.09
317.089	0.1
317.458	0.09
317.826	0.1
318.195	0.11
318.564	0.11
318.933	0.1
319.301	0.11
319.67	0.11
320.038	0.11
320.407	0.11
320.775	0.11
321.144	0.11
321.512	0.11
321.881	0.12
322.249	0.12
322.618	0.12
322.986	0.12
323.354	0.13
323.723	0.12
324.091	0.13
324.459	0.12
324.827	0.13
325.195	0.13
325.564	0.13
325.932	0.14
326.3	0.14
326.668	0.14
327.036	0.13
327.404	0.13
327.772	0.14
328.14	0.14
328.508	0.15
328.875	0.15
329.243	0.15
329.611	0.15
329.979	0.16
330.346	0.15
330.714	0.16
331.082	0.16
331.449	0.16
331.817	0.16
332.185	0.17
332.552	0.17
332.92	0.17
333.287	0.18
333.655	0.18
334.022	0.18
334.389	0.19
334.757	0.19
335.124	0.19
335.491	0.19
335.859	0.2
336.226	0.21
336.593	0.21
336.96	0.21
337.327	0.22
337.695	0.22
338.062	0.22
338.429	0.22
338.796	0.23
339.163	0.23
339.53	0.24
339.897	0.24
340.263	0.24
340.63	0.25
340.997	0.25
341.364	0.26
341.731	0.26
342.097	0.27
342.464	0.27
342.831	0.27
343.197	0.28
343.564	0.29
343.931	0.29
344.297	0.3
344.664	0.3
345.03	0.31
345.396	0.31
345.763	0.31
346.129	0.32
346.496	0.32
346.862	0.33
347.228	0.33
347.594	0.33
347.961	0.34
348.327	0.35
348.693	0.35
349.059	0.35
349.425	0.36
349.791	0.37
350.157	0.36
350.523	0.37
350.889	0.37
351.255	0.38
351.621	0.38
351.987	0.39
352.353	0.39
352.719	0.4
353.084	0.4
353.45	0.4
353.816	0.41
354.181	0.42
354.547	0.42
354.913	0.43
355.278	0.43
355.644	0.44
356.009	0.45
356.375	0.45
356.74	0.46
357.106	0.46
357.471	0.47
357.836	0.47
358.202	0.48
358.567	0.48
358.932	0.49
359.297	0.5
359.663	0.51
360.028	0.52
360.393	0.52
360.758	0.53
361.123	0.54
361.488	0.55
361.853	0.55
362.218	0.57
362.583	0.56
362.948	0.57
363.312	0.58
363.677	0.59
364.042	0.6
364.407	0.6
364.772	0.61
365.136	0.61
365.501	0.61
365.865	0.63
366.23	0.64
366.595	0.64
366.959	0.64
367.324	0.65
367.688	0.66
368.052	0.66
368.417	0.67
368.781	0.67
369.145	0.69
369.51	0.69
369.874	0.69
370.238	0.7
370.602	0.7
370.967	0.71
371.331	0.71
371.695	0.72
372.059	0.71
372.423	0.72
372.787	0.72
373.151	0.73
373.515	0.72
373.878	0.72
374.242	0.71
374.606	0.71
374.97	0.7
375.334	0.69
375.697	0.7
376.061	0.68
376.425	0.68
376.788	0.67
377.152	0.67
377.515	0.67
377.879	0.67
378.242	0.65
378.606	0.65
378.969	0.64
379.333	0.63
379.696	0.62
380.059	0.62
380.422	0.62
380.786	0.61
381.149	0.6
381.512	0.6
381.875	0.59
382.238	0.59
382.601	0.57
382.964	0.57
383.327	0.57
383.69	0.57
384.053	0.56
384.416	0.56
384.779	0.55
385.142	0.56
385.504	0.56
385.867	0.55
386.23	0.56
386.593	0.56
386.955	0.56
387.318	0.56
387.68	0.56
388.043	0.57
388.405	0.56
388.768	0.56
389.13	0.57
389.493	0.57
389.855	0.57
390.217	0.56
390.58	0.56
390.942	0.55
391.304	0.55
391.666	0.54
392.028	0.54
392.391	0.54
392.753	0.53
393.115	0.53
393.477	0.51
393.839	0.51
394.201	0.51
394.563	0.51
394.924	0.51
395.286	0.51
395.648	0.51
396.01	0.51
396.371	0.52
396.733	0.53
397.095	0.54
397.456	0.56
397.818	0.57
398.18	0.58
398.541	0.6
398.903	0.62
399.264	0.63
399.625	0.66
399.987	0.66
400.348	0.67
400.709	0.68
401.071	0.69
401.432	0.7
401.793	0.7
402.154	0.7
402.515	0.69
402.876	0.67
403.238	0.66
403.599	0.65
403.96	0.63
404.32	0.6
404.681	0.58
405.042	0.56
405.403	0.54
405.764	0.51
406.125	0.48
406.485	0.46
406.846	0.43
407.207	0.41
407.567	0.38
407.928	0.37
408.288	0.34
408.649	0.32
409.009	0.3
409.37	0.29
409.73	0.27
410.091	0.25
410.451	0.24
410.811	0.23
411.171	0.21
411.532	0.2
411.892	0.19
412.252	0.18
412.612	0.17
412.972	0.17
413.332	0.16
413.692	0.16
414.052	0.15
414.412	0.15
414.772	0.14
415.132	0.13
415.492	0.13
415.851	0.12
416.211	0.12
416.571	0.12
416.931	0.11
417.29	0.1
417.65	0.1
418.009	0.1
418.369	0.1
418.728	0.09
419.088	0.09
419.447	0.09
419.807	0.09
420.166	0.08
420.525	0.08
420.884	0.08
421.244	0.08
421.603	0.08
421.962	0.08
422.321	0.07
422.68	0.08
423.039	0.08
423.398	0.08
423.757	0.06
424.116	0.07
424.475	0.07
424.834	0.06
425.193	0.07
425.551	0.06
425.91	0.07
426.269	0.07
426.628	0.06
426.986	0.07
427.345	0.06
427.703	0.06
428.062	0.06
428.42	0.07
428.779	0.06
429.137	0.06
429.496	0.06
429.854	0.06
430.212	0.06
430.57	0.06
430.929	0.05
431.287	0.05
431.645	0.06
432.003	0.06
432.361	0.06
432.719	0.06
433.077	0.06
433.435	0.05
433.793	0.06
434.151	0.05
434.509	0.06
434.866	0.05
435.224	0.05
435.582	0.05
435.94	0.05
436.297	0.05
436.655	0.05
437.012	0.06
437.37	0.05
437.727	0.05
438.085	0.05
438.442	0.05
438.8	0.04
439.157	0.05
439.514	0.05
439.872	0.06
440.229	0.05
440.586	0.05
440.943	0.05
441.3	0.05
441.657	0.06
442.014	0.05
442.371	0.06
442.728	0.05
443.085	0.05
443.442	0.05
443.799	0.05
444.156	0.05
444.513	0.05
444.869	0.05
445.226	0.05
445.583	0.05
445.939	0.05
446.296	0.05
446.652	0.05
447.009	0.04
447.365	0.06
447.722	0.05
448.078	0.05
448.434	0.04
448.791	0.05
449.147	0.05
449.503	0.05
449.859	0.05
450.215	0.05
450.571	0.05
450.928	0.05
451.284	0.04
451.64	0.04
451.995	0.04
452.351	0.04
452.707	0.04
453.063	0.04
453.419	0.05
453.775	0.05
454.13	0.05
454.486	0.04
454.842	0.04
455.197	0.04
455.553	0.04
455.908	0.04
456.264	0.04
456.619	0.04
456.975	0.04
457.33	0.03
457.685	0.03
458.04	0.03
458.396	0.03
458.751	0.03
459.106	0.02
459.461	0.03
459.816	0.03
460.171	0.01
460.526	0.02
460.881	0.02
461.236	0.02
461.591	0.01
461.946	0.02
462.301	0.02
462.655	0.02
463.01	0.02
463.365	0.01
463.719	0
464.074	0.01
464.428	0.01
464.783	0.01
465.137	0.01
465.492	-0
465.846	-0
466.201	0.01
466.555	0.01
466.909	0
467.263	0.01
467.618	0.02
467.972	0.01
468.326	0.01
468.68	0.01
469.034	0
469.388	-0
469.742	0
470.096	0
470.45	0.01
470.804	0.01
471.157	0.01
471.511	0
471.865	0.01
472.218	0.02
472.572	0.01
472.926	0.02
473.279	0.02
473.633	0.03
473.986	0.03
474.34	0.03
474.693	0.04
475.046	0.04
475.4	0.05
475.753	0.05
476.106	0.05
476.459	0.06
476.812	0.06
477.165	0.06
477.519	0.07
477.872	0.06
478.224	0.07
478.577	0.07
478.93	0.08
479.283	0.08
479.636	0.08
479.989	0.08
480.341	0.09
480.694	0.09
481.047	0.09
481.399	0.1
481.752	0.1
482.104	0.1
482.457	0.1
482.809	0.11
483.162	0.11
483.514	0.11
483.866	0.11
484.219	0.11
484.571	0.12
484.923	0.12
485.275	0.12
485.627	0.12
485.979	0.12
486.331	0.12
486.683	0.13
487.035	0.13
487.387	0.12
487.739	0.13
488.091	0.13
488.443	0.14
488.794	0.14
489.146	0.14
489.498	0.14
489.849	0.14
490.201	0.14
490.552	0.14
490.904	0.14
491.255	0.15
491.607	0.15
491.958	0.14
492.309	0.15
492.661	0.15
493.012	0.15
493.363	0.15
493.714	0.15
494.065	0.15
494.416	0.16
494.767	0.16
495.118	0.16
495.469	0.16
495.82	0.17
496.171	0.17
496.522	0.16
496.872	0.17
497.223	0.17
497.574	0.17
497.924	0.17
498.275	0.18
498.626	0.18
498.976	0.18
499.327	0.19
499.677	0.18
500.027	0.18
500.378	0.18
500.728	0.18
501.078	0.19
501.428	0.18
501.779	0.19
502.129	0.19
502.479	0.19
502.829	0.19
503.179	0.2
503.529	0.2
503.879	0.2
504.229	0.2
504.578	0.21
504.928	0.2
505.278	0.21
505.628	0.21
505.977	0.21
506.327	0.21
506.676	0.21
507.026	0.21
507.375	0.21
507.725	0.22
508.074	0.22
508.424	0.22
508.773	0.22
509.122	0.22
509.471	0.22
509.82	0.22
510.17	0.22
510.519	0.23
510.868	0.23
511.217	0.23
511.566	0.22
511.915	0.23
512.263	0.23
512.612	0.23
512.961	0.24
513.31	0.23
513.659	0.24
514.007	0.24
514.356	0.24
514.704	0.24
515.053	0.24
515.401	0.24
515.75	0.25
516.098	0.24
516.447	0.25
516.795	0.25
517.143	0.25
517.491	0.25
517.839	0.25
518.188	0.25
518.536	0.26
518.884	0.26
519.232	0.26
519.58	0.26
519.928	0.26
520.275	0.26
520.623	0.26
520.971	0.26
521.319	0.27
521.666	0.26
522.014	0.27
522.362	0.27
522.709	0.27
523.057	0.27
523.404	0.27
523.752	0.27
524.099	0.27
524.446	0.27
524.794	0.27
525.141	0.28
525.488	0.28
525.835	0.28
526.182	0.27
526.529	0.28
526.876	0.28
527.223	0.28
527.57	0.28
527.917	0.29
528.264	0.28
528.611	0.29
528.958	0.29
529.304	0.28
529.651	0.29
529.998	0.29
530.344	0.29
530.691	0.29
531.037	0.29
531.384	0.29
531.73	0.29
532.076	0.3
532.423	0.3
532.769	0.3
533.115	0.29
533.461	0.29
533.807	0.29
534.154	0.3
534.5	0.3
534.846	0.3
535.192	0.3
535.537	0.3
535.883	0.3
536.229	0.3
536.575	0.3
536.921	0.3
537.266	0.3
537.612	0.3
537.957	0.3
538.303	0.3
538.649	0.31
538.994	0.31
539.339	0.31
539.685	0.31
540.03	0.31
540.375	0.31
540.721	0.31
541.066	0.31
541.411	0.31
541.756	0.31
542.101	0.31
542.446	0.31
542.791	0.31
543.136	0.31
543.481	0.32
543.825	0.31
544.17	0.32
544.515	0.32
544.86	0.32
545.204	0.32
545.549	0.32
545.893	0.32
546.238	0.32
546.582	0.32
546.927	0.32
547.271	0.32
547.615	0.32
547.96	0.32
548.304	0.32
548.648	0.33
548.992	0.33
549.336	0.32
549.68	0.32
550.024	0.33
550.368	0.33
550.712	0.33
551.056	0.33
551.4	0.33
551.743	0.33
552.087	0.33
552.431	0.33
552.774	0.33
553.118	0.33
553.462	0.32
553.805	0.32
554.148	0.33
554.492	0.33
554.835	0.33
555.178	0.33
555.522	0.33
555.865	0.33
556.208	0.32
556.551	0.33
556.894	0.33
557.237	0.33
557.58	0.33
557.923	0.33
558.266	0.33
558.609	0.33
558.952	0.33
559.294	0.33
559.637	0.33
559.98	0.33
560.322	0.33
560.665	0.33
561.007	0.33
561.35	0.33
561.692	0.33
562.034	0.32
562.377	0.33
562.719	0.33
563.061	0.33
563.403	0.33
563.745	0.32
564.088	0.33
564.43	0.33
564.772	0.33
565.113	0.33
565.455	0.33
565.797	0.32
566.139	0.33
566.481	0.32
566.822	0.33
567.164	0.32
567.506	0.32
567.847	0.32
568.189	0.32
568.53	0.32
568.872	0.32
569.213	0.32
569.554	0.32
569.895	0.32
570.237	0.32
570.578	0.32
570.919	0.32
571.26	0.32
571.601	0.32
571.942	0.31
572.283	0.31
572.624	0.31
572.965	0.31
573.306	0.31
573.646	0.3
573.987	0.3
574.328	0.3
574.668	0.31
575.009	0.3
575.349	0.3
575.69	0.29
576.03	0.29
576.37	0.28
576.711	0.28
577.051	0.28
577.391	0.28
577.731	0.3
578.072	0.29
578.412	0.28
578.752	0.29
579.092	0.28
579.431	0.25
579.771	0.22
580.111	0.21
580.451	0.22
580.791	0.25
581.13	0.27
581.47	0.28
581.81	0.28
582.149	0.27
582.489	0.28
582.828	0.25
583.167	0.21
583.507	0.17
583.846	0.16
584.185	0.19
584.525	0.21
584.864	0.24
585.203	0.27
585.542	0.28
585.881	0.29
586.22	0.29
586.559	0.26
586.898	0.24
587.236	0.22
587.575	0.22
587.914	0.23
588.252	0.25
588.591	0.27
588.93	0.27
589.268	0.26
589.607	0.26
589.945	0.26
590.283	0.26
590.622	0.27
590.96	0.28
591.298	0.29
591.636	0.29
591.974	0.29
592.313	0.29
592.651	0.3
592.989	0.29
593.326	0.3
593.664	0.3
594.002	0.3
594.34	0.28
594.678	0.27
595.015	0.25
595.353	0.23
595.691	0.25
596.028	0.27
596.366	0.28
596.703	0.29
597.04	0.29
597.378	0.29
597.715	0.3
598.052	0.3
598.389	0.3
598.726	0.3
599.064	0.3
599.401	0.3
599.738	0.29
600.074	0.29
600.411	0.28
600.748	0.27
601.085	0.26
601.422	0.25
601.758	0.25
602.095	0.26
602.432	0.26
602.768	0.26
603.105	0.28
603.441	0.28
603.777	0.3
604.114	0.3
604.45	0.3
604.786	0.3
605.122	0.29
605.459	0.29
605.795	0.29
606.131	0.29
606.467	0.29
606.803	0.29
607.139	0.29
607.474	0.28
607.81	0.28
608.146	0.28
608.482	0.28
608.817	0.27
609.153	0.28
609.488	0.27
609.824	0.27
610.159	0.28
610.495	0.28
610.83	0.28
611.165	0.28
611.5	0.28
611.836	0.28
612.171	0.28
612.506	0.28
612.841	0.28
613.176	0.28
613.511	0.28
613.845	0.28
614.18	0.28
614.515	0.28
614.85	0.28
615.184	0.28
615.519	0.28
615.854	0.28
616.188	0.27
616.523	0.27
616.857	0.27
617.191	0.27
617.526	0.27
617.86	0.27
618.194	0.26
618.528	0.27
618.862	0.27
619.196	0.27
619.53	0.27
619.864	0.27
620.198	0.26
620.532	0.27
620.866	0.27
621.2	0.27
621.533	0.26
621.867	0.26
622.201	0.26
622.534	0.26
622.868	0.26
623.201	0.26
623.534	0.26
623.868	0.26
624.201	0.25
624.534	0.25
624.868	0.25
625.201	0.25
625.534	0.25
625.867	0.25
626.2	0.25
626.533	0.25
626.865	0.25
627.198	0.25
627.531	0.25
627.864	0.24
628.196	0.24
628.529	0.24
628.862	0.24
629.194	0.24
629.527	0.24
629.859	0.24
630.191	0.23
630.524	0.23
630.856	0.23
631.188	0.23
631.52	0.23
631.852	0.23
632.184	0.23
632.516	0.23
632.848	0.23
633.18	0.22
633.512	0.22
633.844	0.22
634.175	0.22
634.507	0.22
634.839	0.22
635.17	0.22
635.502	0.22
635.833	0.21
636.165	0.21
636.496	0.21
636.827	0.21
637.159	0.21
637.49	0.21
637.821	0.2
638.152	0.2
638.483	0.2
638.814	0.2
639.145	0.2
639.476	0.2
639.807	0.19
640.137	0.19
640.468	0.19
640.799	0.19
641.129	0.19
641.46	0.19
641.791	0.19
642.121	0.19
642.451	0.18
642.782	0.18
643.112	0.18
643.442	0.19
643.773	0.19
644.103	0.18
644.433	0.18
644.763	0.18
645.093	0.18
645.423	0.17
645.753	0.18
646.082	0.17
646.412	0.17
646.742	0.17
647.072	0.17
647.401	0.17
647.731	0.17
648.06	0.17
648.39	0.17
648.719	0.17
649.048	0.17
649.378	0.17
649.707	0.17
650.036	0.16
650.365	0.16
650.694	0.16
651.023	0.16
651.352	0.16
651.681	0.16
652.01	0.16
652.339	0.16
652.668	0.16
652.996	0.16
653.325	0.16
653.654	0.16
653.982	0.16
654.311	0.15
654.639	0.15
654.967	0.16
655.296	0.15
655.624	0.15
655.952	0.15
656.28	0.16
656.609	0.15
656.937	0.15
657.265	0.15
657.593	0.01
657.92	0
658.248	0
658.576	0
658.904	0
659.231	0.05
659.559	0.11
659.887	0.14
660.214	0.14
660.542	0.15
660.869	0.14
661.196	0.15
661.524	0.14
661.851	0.15
662.178	0.15
662.505	0.14
662.832	0.14
663.159	0.14
663.486	0.14
663.813	0.14
664.14	0.14
664.467	0.14
664.794	0.14
665.12	0.14
665.447	0.14
665.774	0.14
666.1	0.14
666.427	0.14
666.753	0.14
667.079	0.14
667.406	0.14
667.732	0.13
668.058	0.14
668.384	0.13
668.71	0.13
669.036	0.13
669.362	0.13
669.688	0.13
670.014	0.13
670.34	0.13
670.666	0.13
670.991	0.13
671.317	0.13
671.643	0.12
671.968	0.12
672.294	0.12
672.619	0.12
672.945	0.12
673.27	0.12
673.595	0.11
673.92	0.11
674.246	0.1
674.571	0.1
674.896	0.1
675.221	0.11
675.546	0.11
675.87	0.11
676.195	0.11
676.52	0.11
676.845	0.11
677.169	0.11
677.494	0.11
677.819	0.11
678.143	0.1
678.468	0.1
678.792	0.1
679.116	0.1
679.44	0.1
679.765	0.09
680.089	0.09
680.413	0.08
680.737	0.08
681.061	0.08
681.385	0.08
681.709	0.07
682.033	0.07
682.356	0.08
682.68	0.08
683.004	0.07
683.327	0.07
683.651	0.06
683.974	0.06
684.298	0.07
684.621	0.07
684.944	0.07
685.268	0.07
685.591	0.07
685.914	0.06
686.237	0.05
686.56	0.04
686.883	0.04
687.206	0.03
687.529	0.03
687.852	0.03
688.175	0.03
688.497	0.03
688.82	0.04
689.142	0.03
689.465	0.03
689.787	0.04
690.11	0.04
690.432	0.03
690.755	0.03
691.077	0.03
691.399	0.02
691.721	0.03
692.043	0.03
692.365	0.03
692.687	0.02
693.009	0.02
693.331	0.01
693.653	0.01
693.974	0.02
694.296	0.01
694.618	0.02
694.939	0.02
695.261	0.01
695.582	0.01
695.904	0.01
696.225	0.02
696.546	0.02
696.868	0.02
697.189	0.01
697.51	0.01
697.831	0.01
698.152	0.01
698.473	0.01
698.794	0
699.114	0
699.435	0
699.756	0
700.077	0
700.397	0.01
700.718	0.01
701.038	0.01
701.359	0.01
701.679	0.01
701.999	0.01
702.32	0.01
702.64	0.01
702.96	0.01
703.28	0.01
703.6	0.01
703.92	0
704.24	0.01
704.56	0
704.879	0
705.199	0
705.519	0
705.838	0
706.158	0.01
706.478	0
706.797	0.01
707.116	0.01
707.436	0.01
707.755	0
708.074	0
708.393	0
708.712	0
709.031	0
709.35	0
709.669	0
709.988	0
710.307	0
710.626	0
710.944	0
711.263	0
711.582	0
711.9	0
712.219	0
712.537	0
712.855	0
713.174	0
713.492	0
713.81	0
714.128	0
714.446	0
714.764	0
715.082	0
715.4	0
715.718	0
716.035	0
716.353	0
716.671	0
716.988	0
717.306	0
717.623	0
717.941	0
718.258	0
718.575	0
718.893	0
719.21	0
719.527	0.01
719.844	0
720.161	0
720.478	0
720.795	0
721.112	0
721.428	0
721.745	0.01
722.062	0.01
722.378	0.01
722.695	0.01
723.011	0.01
723.328	0.01
723.644	0.01
723.96	0.01
724.276	0.01
724.593	0.01
724.909	0.01
725.225	0.01
725.541	0.01
725.857	0.01
726.173	0.01
726.488	0.01
726.804	0.01
727.12	0.01
727.435	0.01
727.751	0.01
728.067	0.01
728.382	0.01
728.697	0.01
729.013	0.01
729.328	0.01
729.643	0.01
729.958	0.01
730.273	0.01
730.588	0.01
730.903	0.01
731.218	0.01
731.533	0.01
731.848	0.01
732.163	0.01
732.477	0.01
732.792	0.01
733.107	0
733.421	0
733.736	0.01
734.05	0.01
734.364	0.01
734.678	0.01
734.993	0.01
735.307	0.01
735.621	0.01
735.935	0.01
736.249	0.01
736.563	0.01
736.877	0.01
737.19	0.01
737.504	0.01
737.818	0.01
738.131	0.01
738.445	0.01
738.758	0.02
739.072	0.01
739.385	0.02
739.698	0.02
740.012	0.02
740.325	0.02
740.638	0.01
740.951	0.01
741.264	0.01
741.577	0.01
741.89	0.02
742.203	0.02
742.515	0.03
742.828	0.03
743.141	0.02
743.453	0.03
743.766	0.02
744.078	0.02
744.391	0.02
744.703	0.02
745.015	0.02
745.327	0.02
745.639	0.02
745.952	0.02
746.264	0.02
746.575	0.02
746.887	0.02
747.199	0.02
747.511	0.02
747.823	0.02
748.134	0.02
748.446	0.02
748.757	0.02
749.069	0.02
749.38	0.02
749.692	0.02
750.003	0.02
750.314	0.02
750.625	0.01
750.936	0.01
751.248	0.01
751.559	0.01
751.869	0.01
752.18	0.01
752.491	0.01
752.802	0.01
753.112	0.01
753.423	0.01
753.734	0.01
754.044	0.01
754.355	0.01
754.665	0.01
754.975	0
755.285	0
755.596	0
755.906	0
756.216	0.01
756.526	0.01
756.836	0.01
757.146	0
757.455	0
757.765	0
758.075	0
758.385	0
758.694	0
759.004	0
759.313	0
759.622	0
759.932	0
760.241	0
760.55	0
760.859	0
761.168	0
761.477	0
761.786	0
762.095	0
762.404	0
762.713	0
763.021	0
763.33	0.01
763.639	0
763.947	0.01
764.256	0
764.564	0.01
764.872	0.01
765.181	0.01
765.489	0.01
765.797	0
766.105	0.01
766.413	0
766.721	0
767.029	0.01
767.337	0.01
767.644	0.01
767.952	0.01
768.26	0.01
768.567	0.01
768.875	0.01
769.182	0.01
769.49	0.02
769.797	0.01
770.104	0.01
770.411	0.01
770.718	0.01
771.026	0.01
771.333	0.02
771.639	0.02
771.946	0.02
772.253	0.02
772.56	0.02
772.867	0.02
773.173	0.02
773.48	0.02
773.786	0.02
774.093	0.02
774.399	0.02
774.705	0.02
775.012	0.02
775.318	0.02
775.624	0.02
775.93	0.02
776.236	0.02
776.542	0.02
776.848	0.02
777.154	0.02
777.459	0.02
777.765	0.02
778.071	0.01
778.376	0.02
778.682	0.01
778.987	0.01
779.292	0.02
779.598	0.02
779.903	0.02
780.208	0.02
780.513	0.02
780.818	0.02
781.123	0.02
781.428	0.02
781.733	0.02
782.038	0.02
782.343	0.02
782.647	0.02
782.952	0.02
783.256	0.02
783.561	0.02
783.865	0.02
784.17	0.02
784.474	0.02
784.778	0.02
785.082	0.02
785.386	0.01
785.69	0.02
785.994	0.02
786.298	0.02
786.602	0.02
786.906	0.02
787.209	0.02
787.513	0.02
787.817	0.02
788.12	0.02
788.424	0.02
788.727	0.02
789.03	0.01
789.333	0.01
789.637	0.01
789.94	0.01
790.243	0.02
790.546	0.02
790.849	0.02
791.152	0.02
791.454	0.02
791.757	0.02
792.06	0.02
792.362	0.02
792.665	0.02
792.967	0.02
793.27	0.02
793.572	0.02
793.874	0.02
794.177	0.01
794.479	0.02
794.781	0.02
795.083	0.02
795.385	0.02
795.687	0.02
795.989	0.02
796.29	0.02
796.592	0.02
796.894	0.02
797.195	0.02
797.497	0.02
797.798	0.02
798.1	0.02
798.401	0.02
798.702	0.02
799.003	0.02
799.304	0.02
799.605	0.02
799.906	0.02
800.207	0.02
800.508	0.02
800.809	0.02
801.11	0.03
801.41	0.03
801.711	0.02
802.011	0.02
802.312	0.02
802.612	0.02
802.913	0.02
803.213	0.02
803.513	0.02
803.813	0.02
804.113	0.02
804.413	0.02
804.713	0.02
805.013	0.02
805.313	0.02
805.613	0.02
805.912	0.03
806.212	0.03
806.511	0.02
806.811	0.03
807.11	0.02
807.41	0.02
807.709	0.02
808.008	0.02
808.307	0.03
808.606	0.02
808.905	0.02
809.204	0.02
809.503	0.02
809.802	0.02
810.101	0.02
810.399	0.02
810.698	0.02
810.997	0.02
811.295	0.02
811.593	0.02
811.892	0.02
812.19	0.02
812.488	0.02
812.786	0.02
813.084	0.02
813.383	0.02
813.68	0.02
813.978	0.02
814.276	0.02
814.574	0.02
814.872	0.02
815.169	0.03
815.467	0.03
815.764	0.03
816.062	0.03
816.359	0.03
816.656	0.02
816.954	0.03
817.251	0.03
817.548	0.03
817.845	0.03
818.142	0.03
818.439	0.03
818.735	0.03
819.032	0.03
819.329	0.02
819.626	0.03
819.922	0.03
820.219	0.03
820.515	0.03
820.811	0.03
821.108	0.03
821.404	0.03
821.7	0.03
821.996	0.03
822.292	0.03
822.588	0.03
822.884	0.03
823.18	0.04
823.475	0.03
823.771	0.04
824.067	0.03
824.362	0.03
824.658	0.04
824.953	0.03
825.249	0.03
825.544	0.02
825.839	0.03
826.134	0.03
826.429	0.03
826.724	0.03
827.019	0.03
827.314	0.03
827.609	0.03
827.904	0.03
828.198	0.03
828.493	0.03
828.787	0.03
829.082	0.03
829.376	0.03
829.671	0.03
829.965	0.04
830.259	0.03
830.553	0.04
830.847	0.04
831.141	0.04
831.435	0.03
831.729	0.03
832.023	0.04
832.317	0.03
832.61	0.03
832.904	0.03
833.197	0.03
833.491	0.03
833.784	0.03
834.077	0.03
834.371	0.03
834.664	0.04
834.957	0.04
835.25	0.04
835.543	0.04
835.836	0.03
836.129	0.04
836.421	0.04
836.714	0.03
837.007	0.04
837.299	0.04
837.592	0.04
837.884	0.03
838.177	0.03
838.469	0.03
838.761	0.04
839.053	0.04
839.345	0.04
839.637	0.03
839.929	0.04
840.221	0.03
840.513	0.03
840.805	0.04
841.096	0.04
841.388	0.04
841.68	0.04
841.971	0.04
842.262	0.04
842.554	0.03
842.845	0.03
843.136	0.03
843.427	0.03
843.718	0.03
844.009	0.03
844.3	0.04
844.591	0.04
844.882	0.04
845.173	0.03
845.463	0.05
845.754	0.04
846.044	0.04
846.335	0.05
846.625	0.03
846.915	0.04
847.206	0.04
847.496	0.03
847.786	0.04
848.076	0.04
848.366	0.03
848.656	0.03
848.945	0.03
849.235	0.03
849.525	0.04
849.814	0.03
850.104	0.04
850.393	0.04
850.683	0.04
850.972	0.04
851.261	0.04
851.551	0.04
851.84	0.04
852.129	0.04
852.418	0.04
852.707	0.04
852.995	0.05
853.284	0.04
853.573	0.04
853.862	0.05
854.15	0.04
854.439	0.05
854.727	0.05
855.015	0.05
855.304	0.05
855.592	0.06
855.88	0.05
856.168	0.04
856.456	0.06
856.744	0.04
857.032	0.05
857.32	0.06
857.607	0.06
857.895	0.05
858.183	0.04
858.47	0.04
858.757	0.04
859.045	0.03
859.332	0.04
859.619	0.05
859.907	0.06
860.194	0.08
860.481	0.05
860.768	0.07
861.054	0.05
861.341	0.05
861.628	0.05
861.915	0.05
862.201	0.04
862.488	0.03
862.774	0.05
863.061	0.07
863.347	0.04
863.633	0.04
863.919	0.06
864.205	0.04
864.491	0.05
864.777	0.04
865.063	0.04
865.349	0.04
865.635	0.03
865.92	0.03
866.206	0.02
866.492	0.05
866.777	0.06
867.062	0.03
867.348	0.04
867.633	0.03
867.918	0.02
868.203	0.04
868.488	0.03
868.773	0.05
869.058	0.07
869.343	0.03
869.628	0.05
869.912	0.06
870.197	0.02
870.482	0.05
870.766	0.04
871.05	0.05
871.335	0.06
871.619	0.05
871.903	0.03
872.187	0.02
872.471	0.04
872.755	0.05
873.039	0.01
873.323	0.03
873.607	0.05
873.89	0.02
874.174	0.05
874.458	-0.01
874.741	0.05
875.024	0
875.308	0.03
875.591	-0.02
875.874	0.03
876.157	0.09
876.44	0.05
876.723	0.07
877.006	0.07
877.289	0.02
877.572	-0.01
877.854	0.08
878.137	0.01
878.42	0.08
878.702	0.07
878.984	0.03
879.267	0.03
879.549	-0.03
879.831	0.05
880.113	0.07
880.395	-0.04
880.677	-0
880.959	0
