Data from Rubpy_BV_600_EDTA_Buffered_Absorbance_12-38-09-507.txt Node
Date: Wed Jul 01 12:38:09 BST 2026
User: fpm-admin
Spectrometer: OFX00224
Trigger mode: 0
Integration Time (sec): 7.000000E-2
Scans to average: 3
Nonlinearity correction enabled: false
Boxcar width: 0
Storing dark spectrum: false
XAxis mode: Wavelengths
Number of Pixels in Spectrum: 2136
>>>>>Begin Spectral Data<<<<<
154.91	-0.31
155.289	-0.09
155.669	-0
156.048	-0
156.428	0.21
156.807	-0.08
157.186	0.04
157.566	-0.54
157.945	0.24
158.325	0.5
158.704	-0
159.083	-0
159.462	0.76
159.842	0.82
160.221	0.21
160.6	0.03
160.979	0.54
161.359	-0.36
161.738	-0
162.117	-0
162.496	0.51
162.875	-0
163.254	-0
163.633	-0.43
164.012	0.06
164.391	0.54
164.77	0.13
165.149	0.7
165.528	-0
165.907	-0.3
166.286	-0
166.665	-0.12
167.044	-0
167.423	0.05
167.802	-0
168.181	-0.15
168.559	0.1
168.938	-0.78
169.317	-0
169.696	-0.85
170.074	0.41
170.453	-0.04
170.832	0.14
171.21	-0.75
171.589	-0
171.968	0.53
172.346	0.24
172.725	-0
173.103	-0
173.482	0.4
173.861	-1.08
174.239	-1.02
174.617	-0
174.996	-0
175.374	-0
175.753	-0
176.131	0.5
176.51	-0.12
176.888	-0
177.266	-0
177.645	0.04
178.023	0.71
178.401	-0.27
178.779	0.07
179.158	-0.02
179.536	-0
179.914	-0.15
180.292	-0
180.67	-0.24
181.048	-0
181.427	0.22
181.805	0.67
182.183	-0.26
182.561	-0
182.939	0.61
183.317	1.65
183.695	0.34
184.073	0.64
184.451	-0
184.829	0.15
185.206	0.52
185.584	0.17
185.962	1.26
186.34	-0.59
186.718	-0
187.096	-0.18
187.473	-0
187.851	-0
188.229	-0
188.607	0.15
188.984	0.19
189.362	0.11
189.74	0.06
190.117	0.03
190.495	0.1
190.872	0.08
191.25	0.06
191.627	-0.03
192.005	0.09
192.382	0.07
192.76	0.07
193.137	0.17
193.515	0.04
193.892	0.18
194.269	0.13
194.647	0.12
195.024	0.12
195.401	0.16
195.779	-0.01
196.156	0.15
196.533	0.08
196.91	0.08
197.288	0.15
197.665	0.13
198.042	0.17
198.419	0.1
198.796	0.05
199.173	0.11
199.55	-0.1
199.927	0.11
200.304	0.15
200.681	0.22
201.058	0
201.435	0.15
201.812	0.11
202.189	0.14
202.566	0.05
202.943	0.11
203.32	0.06
203.697	0.05
204.073	0.12
204.45	0.01
204.827	0.09
205.204	0.09
205.58	0.09
205.957	0.08
206.334	0.24
206.71	0.16
207.087	0.13
207.464	0.12
207.84	0.02
208.217	0.09
208.593	-0.01
208.97	0.09
209.346	0.21
209.723	0.09
210.099	0.07
210.476	0.14
210.852	0.1
211.228	0.22
211.605	0.09
211.981	0.16
212.357	0.04
212.733	0.09
213.11	0.14
213.486	0.06
213.862	0.18
214.238	0.12
214.614	0.12
214.991	0.2
215.367	0.25
215.743	0.03
216.119	0.06
216.495	0.27
216.871	0.11
217.247	0.16
217.623	0.15
217.999	0.09
218.375	0.11
218.751	0.15
219.127	0.04
219.502	0.06
219.878	0.11
220.254	0.06
220.63	0.11
221.006	0.15
221.381	0.09
221.757	0.11
222.133	0.06
222.508	0.07
222.884	0.14
223.26	0.15
223.635	0.08
224.011	0.08
224.386	0.17
224.762	0.22
225.137	0.11
225.513	0.07
225.888	0.2
226.264	-0.02
226.639	0.09
227.014	0.15
227.39	0.09
227.765	0.2
228.14	0.19
228.516	0.22
228.891	0.13
229.266	0.1
229.641	0.11
230.017	0.16
230.392	0.12
230.767	0.13
231.142	0.12
231.517	0.06
231.892	0.24
232.267	0.2
232.642	0.13
233.017	0.05
233.392	0.07
233.767	0.18
234.142	0.13
234.517	0.09
234.892	0.2
235.267	0.08
235.641	0.17
236.016	0.22
236.391	0.23
236.766	0.23
237.14	0.14
237.515	0.08
237.89	0.15
238.264	0.09
238.639	0.13
239.014	0.15
239.388	0.13
239.763	0.22
240.137	0.18
240.512	0.14
240.886	0.02
241.261	0.21
241.635	0.23
242.009	0.26
242.384	0.14
242.758	0.14
243.132	0.14
243.507	0.08
243.881	0.18
244.255	0.15
244.629	0.11
245.004	0.11
245.378	0.18
245.752	0.12
246.126	0.22
246.5	0.15
246.874	0.11
247.248	0.25
247.622	0.19
247.996	0.16
248.37	0.12
248.744	0.17
249.118	0.17
249.492	0.16
249.866	0.16
250.24	0.17
250.613	0.17
250.987	0.16
251.361	0.15
251.735	0.09
252.108	0.2
252.482	0.19
252.856	0.03
253.229	0.12
253.603	0.1
253.977	0.12
254.35	0.11
254.724	0.17
255.097	0.18
255.471	0.16
255.844	0.24
256.218	0.09
256.591	0.16
256.964	0.08
257.338	0.13
257.711	0.15
258.084	0.16
258.458	0.12
258.831	0.19
259.204	0.17
259.577	0.23
259.95	0.2
260.323	0.21
260.697	0.14
261.07	0.15
261.443	0.14
261.816	0.19
262.189	0.07
262.562	0.18
262.935	0.12
263.308	0.13
263.68	0.15
264.053	0.1
264.426	0.17
264.799	0.11
265.172	0.12
265.545	0.2
265.917	0.19
266.29	0.08
266.663	0.18
267.035	0.1
267.408	0.24
267.781	0.14
268.153	0.12
268.526	0.15
268.898	0.13
269.271	0.25
269.643	0.15
270.016	0.18
270.388	0.17
270.76	0.19
271.133	0.16
271.505	0.11
271.877	0.1
272.25	0.19
272.622	0.23
272.994	0.17
273.366	0.21
273.739	0.21
274.111	0.15
274.483	0.19
274.855	0.18
275.227	0.16
275.599	0.07
275.971	0.09
276.343	0.18
276.715	0.22
277.087	0.12
277.459	0.09
277.831	0.15
278.203	0.14
278.574	0.13
278.946	0.2
279.318	0.17
279.69	0.23
280.061	0.16
280.433	0.19
280.805	0.2
281.176	0.19
281.548	0.15
281.92	0.21
282.291	0.27
282.663	0.17
283.034	0.21
283.406	0.16
283.777	0.17
284.148	0.22
284.52	0.12
284.891	0.15
285.262	0.17
285.634	0.14
286.005	0.16
286.376	0.18
286.747	0.13
287.119	0.16
287.49	0.16
287.861	0.17
288.232	0.12
288.603	0.13
288.974	0.13
289.345	0.19
289.716	0.15
290.087	0.16
290.458	0.12
290.829	0.1
291.2	0.2
291.571	0.09
291.941	0.18
292.312	0.21
292.683	0.16
293.054	0.16
293.424	0.12
293.795	0.14
294.166	0.14
294.536	0.17
294.907	0.12
295.277	0.16
295.648	0.19
296.018	0.18
296.389	0.17
296.759	0.22
297.13	0.12
297.5	0.18
297.871	0.15
298.241	0.19
298.611	0.11
298.981	0.11
299.352	0.14
299.722	0.2
300.092	0.16
300.462	0.1
300.832	0.13
301.202	0.11
301.573	0.14
301.943	0.08
302.313	0.08
302.683	0.13
303.053	0.11
303.422	0.1
303.792	0.1
304.162	0.08
304.532	0.08
304.902	0.05
305.272	0.07
305.641	0.08
306.011	0.07
306.381	0.08
306.75	0.07
307.12	0.07
307.49	0.06
307.859	0.07
308.229	0.07
308.598	0.08
308.968	0.09
309.337	0.1
309.707	0.09
310.076	0.1
310.445	0.08
310.815	0.09
311.184	0.09
311.553	0.11
311.923	0.11
312.292	0.11
312.661	0.1
313.03	0.11
313.399	0.11
313.768	0.11
314.137	0.12
314.506	0.11
314.875	0.11
315.244	0.13
315.613	0.12
315.982	0.13
316.351	0.13
316.72	0.13
317.089	0.14
317.458	0.13
317.826	0.14
318.195	0.14
318.564	0.14
318.933	0.15
319.301	0.16
319.67	0.15
320.038	0.16
320.407	0.16
320.775	0.16
321.144	0.16
321.512	0.16
321.881	0.16
322.249	0.17
322.618	0.17
322.986	0.17
323.354	0.17
323.723	0.17
324.091	0.18
324.459	0.18
324.827	0.18
325.195	0.18
325.564	0.18
325.932	0.19
326.3	0.19
326.668	0.19
327.036	0.19
327.404	0.19
327.772	0.2
328.14	0.21
328.508	0.21
328.875	0.21
329.243	0.22
329.611	0.21
329.979	0.23
330.346	0.23
330.714	0.22
331.082	0.23
331.449	0.23
331.817	0.24
332.185	0.24
332.552	0.24
332.92	0.25
333.287	0.26
333.655	0.25
334.022	0.27
334.389	0.27
334.757	0.28
335.124	0.28
335.491	0.28
335.859	0.29
336.226	0.3
336.593	0.3
336.96	0.31
337.327	0.32
337.695	0.32
338.062	0.32
338.429	0.33
338.796	0.34
339.163	0.34
339.53	0.35
339.897	0.35
340.263	0.36
340.63	0.36
340.997	0.37
341.364	0.37
341.731	0.38
342.097	0.39
342.464	0.4
342.831	0.4
343.197	0.41
343.564	0.42
343.931	0.43
344.297	0.43
344.664	0.43
345.03	0.44
345.396	0.45
345.763	0.45
346.129	0.46
346.496	0.46
346.862	0.47
347.228	0.48
347.594	0.48
347.961	0.49
348.327	0.5
348.693	0.5
349.059	0.51
349.425	0.52
349.791	0.52
350.157	0.53
350.523	0.53
350.889	0.55
351.255	0.55
351.621	0.56
351.987	0.56
352.353	0.57
352.719	0.58
353.084	0.59
353.45	0.59
353.816	0.6
354.181	0.6
354.547	0.61
354.913	0.61
355.278	0.62
355.644	0.63
356.009	0.64
356.375	0.65
356.74	0.66
357.106	0.67
357.471	0.68
357.836	0.69
358.202	0.7
358.567	0.7
358.932	0.7
359.297	0.72
359.663	0.73
360.028	0.74
360.393	0.74
360.758	0.76
361.123	0.78
361.488	0.78
361.853	0.79
362.218	0.8
362.583	0.82
362.948	0.82
363.312	0.84
363.677	0.84
364.042	0.85
364.407	0.86
364.772	0.87
365.136	0.88
365.501	0.89
365.865	0.9
366.23	0.9
366.595	0.91
366.959	0.92
367.324	0.92
367.688	0.93
368.052	0.95
368.417	0.95
368.781	0.95
369.145	0.96
369.51	0.97
369.874	0.99
370.238	1
370.602	0.99
370.967	1
371.331	1.01
371.695	1.01
372.059	1.01
372.423	1.02
372.787	1.02
373.151	1.02
373.515	1.01
373.878	1.01
374.242	1.01
374.606	1
374.97	0.99
375.334	0.98
375.697	0.98
376.061	0.97
376.425	0.96
376.788	0.95
377.152	0.95
377.515	0.95
377.879	0.92
378.242	0.92
378.606	0.91
378.969	0.9
379.333	0.88
379.696	0.88
380.059	0.87
380.422	0.86
380.786	0.85
381.149	0.84
381.512	0.83
381.875	0.83
382.238	0.81
382.601	0.81
382.964	0.8
383.327	0.79
383.69	0.78
384.053	0.78
384.416	0.77
384.779	0.77
385.142	0.77
385.504	0.76
385.867	0.75
386.23	0.75
386.593	0.75
386.955	0.76
387.318	0.76
387.68	0.76
388.043	0.75
388.405	0.75
388.768	0.75
389.13	0.76
389.493	0.75
389.855	0.75
390.217	0.74
390.58	0.74
390.942	0.73
391.304	0.73
391.666	0.72
392.028	0.71
392.391	0.71
392.753	0.68
393.115	0.68
393.477	0.68
393.839	0.67
394.201	0.67
394.563	0.67
394.924	0.66
395.286	0.67
395.648	0.67
396.01	0.67
396.371	0.68
396.733	0.69
397.095	0.7
397.456	0.72
397.818	0.73
398.18	0.75
398.541	0.76
398.903	0.79
399.264	0.8
399.625	0.83
399.987	0.84
400.348	0.87
400.709	0.87
401.071	0.88
401.432	0.88
401.793	0.89
402.154	0.88
402.515	0.87
402.876	0.85
403.238	0.84
403.599	0.82
403.96	0.79
404.32	0.76
404.681	0.74
405.042	0.71
405.403	0.68
405.764	0.65
406.125	0.61
406.485	0.58
406.846	0.55
407.207	0.52
407.567	0.49
407.928	0.47
408.288	0.44
408.649	0.42
409.009	0.39
409.37	0.36
409.73	0.35
410.091	0.33
410.451	0.31
410.811	0.3
411.171	0.27
411.532	0.26
411.892	0.25
412.252	0.25
412.612	0.23
412.972	0.22
413.332	0.21
413.692	0.2
414.052	0.19
414.412	0.18
414.772	0.18
415.132	0.17
415.492	0.17
415.851	0.15
416.211	0.15
416.571	0.15
416.931	0.15
417.29	0.14
417.65	0.14
418.009	0.13
418.369	0.13
418.728	0.13
419.088	0.12
419.447	0.12
419.807	0.11
420.166	0.11
420.525	0.12
420.884	0.11
421.244	0.11
421.603	0.1
421.962	0.1
422.321	0.1
422.68	0.11
423.039	0.1
423.398	0.1
423.757	0.09
424.116	0.09
424.475	0.1
424.834	0.09
425.193	0.09
425.551	0.09
425.91	0.08
426.269	0.09
426.628	0.08
426.986	0.09
427.345	0.08
427.703	0.08
428.062	0.08
428.42	0.08
428.779	0.08
429.137	0.08
429.496	0.08
429.854	0.08
430.212	0.08
430.57	0.08
430.929	0.08
431.287	0.07
431.645	0.08
432.003	0.08
432.361	0.08
432.719	0.08
433.077	0.08
433.435	0.08
433.793	0.08
434.151	0.07
434.509	0.07
434.866	0.07
435.224	0.07
435.582	0.07
435.94	0.07
436.297	0.07
436.655	0.08
437.012	0.08
437.37	0.08
437.727	0.07
438.085	0.07
438.442	0.07
438.8	0.06
439.157	0.06
439.514	0.07
439.872	0.08
440.229	0.07
440.586	0.07
440.943	0.07
441.3	0.07
441.657	0.08
442.014	0.07
442.371	0.07
442.728	0.07
443.085	0.08
443.442	0.07
443.799	0.07
444.156	0.07
444.513	0.07
444.869	0.07
445.226	0.07
445.583	0.07
445.939	0.07
446.296	0.07
446.652	0.07
447.009	0.07
447.365	0.08
447.722	0.08
448.078	0.07
448.434	0.07
448.791	0.07
449.147	0.07
449.503	0.08
449.859	0.08
450.215	0.08
450.571	0.07
450.928	0.08
451.284	0.06
451.64	0.07
451.995	0.07
452.351	0.06
452.707	0.07
453.063	0.07
453.419	0.07
453.775	0.06
454.13	0.07
454.486	0.07
454.842	0.07
455.197	0.07
455.553	0.07
455.908	0.06
456.264	0.07
456.619	0.06
456.975	0.06
457.33	0.06
457.685	0.06
458.04	0.06
458.396	0.06
458.751	0.05
459.106	0.05
459.461	0.05
459.816	0.05
460.171	0.05
460.526	0.05
460.881	0.05
461.236	0.05
461.591	0.04
461.946	0.05
462.301	0.04
462.655	0.04
463.01	0.05
463.365	0.04
463.719	0.04
464.074	0.04
464.428	0.04
464.783	0.04
465.137	0.03
465.492	0.03
465.846	0.03
466.201	0.03
466.555	0.04
466.909	0.03
467.263	0.04
467.618	0.04
467.972	0.04
468.326	0.04
468.68	0.04
469.034	0.04
469.388	0.04
469.742	0.04
470.096	0.04
470.45	0.04
470.804	0.04
471.157	0.04
471.511	0.05
471.865	0.05
472.218	0.06
472.572	0.05
472.926	0.05
473.279	0.06
473.633	0.07
473.986	0.07
474.34	0.07
474.693	0.08
475.046	0.08
475.4	0.08
475.753	0.09
476.106	0.09
476.459	0.1
476.812	0.11
477.165	0.11
477.519	0.12
477.872	0.11
478.224	0.12
478.577	0.12
478.93	0.13
479.283	0.13
479.636	0.13
479.989	0.14
480.341	0.14
480.694	0.14
481.047	0.14
481.399	0.15
481.752	0.16
482.104	0.16
482.457	0.16
482.809	0.16
483.162	0.17
483.514	0.17
483.866	0.17
484.219	0.17
484.571	0.17
484.923	0.18
485.275	0.18
485.627	0.18
485.979	0.18
486.331	0.19
486.683	0.19
487.035	0.19
487.387	0.19
487.739	0.19
488.091	0.2
488.443	0.2
488.794	0.21
489.146	0.21
489.498	0.2
489.849	0.21
490.201	0.21
490.552	0.21
490.904	0.21
491.255	0.22
491.607	0.22
491.958	0.22
492.309	0.22
492.661	0.23
493.012	0.23
493.363	0.23
493.714	0.23
494.065	0.23
494.416	0.23
494.767	0.24
495.118	0.23
495.469	0.24
495.82	0.25
496.171	0.25
496.522	0.25
496.872	0.25
497.223	0.25
497.574	0.26
497.924	0.26
498.275	0.25
498.626	0.26
498.976	0.26
499.327	0.27
499.677	0.27
500.027	0.27
500.378	0.27
500.728	0.28
501.078	0.27
501.428	0.27
501.779	0.28
502.129	0.28
502.479	0.29
502.829	0.29
503.179	0.28
503.529	0.29
503.879	0.29
504.229	0.3
504.578	0.3
504.928	0.3
505.278	0.3
505.628	0.3
505.977	0.31
506.327	0.3
506.676	0.31
507.026	0.32
507.375	0.31
507.725	0.31
508.074	0.32
508.424	0.32
508.773	0.32
509.122	0.32
509.471	0.32
509.82	0.32
510.17	0.32
510.519	0.32
510.868	0.33
511.217	0.33
511.566	0.33
511.915	0.34
512.263	0.34
512.612	0.34
512.961	0.34
513.31	0.34
513.659	0.34
514.007	0.34
514.356	0.35
514.704	0.35
515.053	0.35
515.401	0.35
515.75	0.36
516.098	0.35
516.447	0.36
516.795	0.35
517.143	0.36
517.491	0.36
517.839	0.36
518.188	0.37
518.536	0.37
518.884	0.37
519.232	0.37
519.58	0.38
519.928	0.37
520.275	0.37
520.623	0.38
520.971	0.38
521.319	0.38
521.666	0.38
522.014	0.38
522.362	0.39
522.709	0.38
523.057	0.39
523.404	0.39
523.752	0.39
524.099	0.39
524.446	0.4
524.794	0.39
525.141	0.4
525.488	0.4
525.835	0.4
526.182	0.4
526.529	0.4
526.876	0.4
527.223	0.4
527.57	0.41
527.917	0.41
528.264	0.41
528.611	0.41
528.958	0.41
529.304	0.41
529.651	0.41
529.998	0.42
530.344	0.42
530.691	0.42
531.037	0.42
531.384	0.41
531.73	0.42
532.076	0.42
532.423	0.42
532.769	0.42
533.115	0.42
533.461	0.42
533.807	0.42
534.154	0.43
534.5	0.43
534.846	0.43
535.192	0.43
535.537	0.43
535.883	0.43
536.229	0.43
536.575	0.43
536.921	0.43
537.266	0.43
537.612	0.44
537.957	0.44
538.303	0.43
538.649	0.44
538.994	0.44
539.339	0.44
539.685	0.44
540.03	0.44
540.375	0.44
540.721	0.44
541.066	0.44
541.411	0.45
541.756	0.44
542.101	0.44
542.446	0.45
542.791	0.45
543.136	0.45
543.481	0.45
543.825	0.45
544.17	0.45
544.515	0.45
544.86	0.46
545.204	0.45
545.549	0.45
545.893	0.45
546.238	0.46
546.582	0.46
546.927	0.46
547.271	0.46
547.615	0.46
547.96	0.45
548.304	0.46
548.648	0.46
548.992	0.46
549.336	0.46
549.68	0.46
550.024	0.46
550.368	0.46
550.712	0.46
551.056	0.47
551.4	0.46
551.743	0.46
552.087	0.47
552.431	0.46
552.774	0.47
553.118	0.46
553.462	0.46
553.805	0.46
554.148	0.46
554.492	0.46
554.835	0.46
555.178	0.46
555.522	0.46
555.865	0.46
556.208	0.46
556.551	0.46
556.894	0.46
557.237	0.46
557.58	0.46
557.923	0.46
558.266	0.46
558.609	0.46
558.952	0.46
559.294	0.46
559.637	0.46
559.98	0.46
560.322	0.46
560.665	0.46
561.007	0.46
561.35	0.46
561.692	0.46
562.034	0.46
562.377	0.46
562.719	0.46
563.061	0.46
563.403	0.45
563.745	0.46
564.088	0.46
564.43	0.46
564.772	0.46
565.113	0.45
565.455	0.45
565.797	0.45
566.139	0.46
566.481	0.45
566.822	0.45
567.164	0.45
567.506	0.45
567.847	0.45
568.189	0.45
568.53	0.45
568.872	0.45
569.213	0.45
569.554	0.45
569.895	0.45
570.237	0.45
570.578	0.45
570.919	0.44
571.26	0.44
571.601	0.44
571.942	0.44
572.283	0.44
572.624	0.44
572.965	0.44
573.306	0.43
573.646	0.43
573.987	0.43
574.328	0.43
574.668	0.43
575.009	0.43
575.349	0.42
575.69	0.42
576.03	0.41
576.37	0.4
576.711	0.4
577.051	0.4
577.391	0.4
577.731	0.42
578.072	0.41
578.412	0.4
578.752	0.41
579.092	0.4
579.431	0.36
579.771	0.34
580.111	0.33
580.451	0.33
580.791	0.37
581.13	0.38
581.47	0.39
581.81	0.39
582.149	0.39
582.489	0.39
582.828	0.36
583.167	0.32
583.507	0.29
583.846	0.28
584.185	0.3
584.525	0.33
584.864	0.36
585.203	0.39
585.542	0.4
585.881	0.41
586.22	0.4
586.559	0.38
586.898	0.35
587.236	0.33
587.575	0.33
587.914	0.34
588.252	0.37
588.591	0.38
588.93	0.38
589.268	0.37
589.607	0.37
589.945	0.37
590.283	0.37
590.622	0.38
590.96	0.4
591.298	0.4
591.636	0.4
591.974	0.4
592.313	0.41
592.651	0.41
592.989	0.41
593.326	0.41
593.664	0.41
594.002	0.41
594.34	0.4
594.678	0.38
595.015	0.36
595.353	0.34
595.691	0.36
596.028	0.38
596.366	0.39
596.703	0.4
597.04	0.41
597.378	0.4
597.715	0.4
598.052	0.41
598.389	0.41
598.726	0.41
599.064	0.41
599.401	0.41
599.738	0.4
600.074	0.4
600.411	0.4
600.748	0.38
601.085	0.37
601.422	0.36
601.758	0.36
602.095	0.36
602.432	0.37
602.768	0.37
603.105	0.39
603.441	0.4
603.777	0.4
604.114	0.41
604.45	0.4
604.786	0.4
605.122	0.4
605.459	0.4
605.795	0.39
606.131	0.39
606.467	0.39
606.803	0.4
607.139	0.4
607.474	0.39
607.81	0.38
608.146	0.38
608.482	0.38
608.817	0.38
609.153	0.38
609.488	0.37
609.824	0.37
610.159	0.38
610.495	0.38
610.83	0.39
611.165	0.38
611.5	0.39
611.836	0.39
612.171	0.38
612.506	0.38
612.841	0.38
613.176	0.38
613.511	0.38
613.845	0.38
614.18	0.38
614.515	0.38
614.85	0.38
615.184	0.38
615.519	0.38
615.854	0.37
616.188	0.37
616.523	0.37
616.857	0.36
617.191	0.36
617.526	0.36
617.86	0.37
618.194	0.36
618.528	0.36
618.862	0.36
619.196	0.36
619.53	0.36
619.864	0.36
620.198	0.36
620.532	0.36
620.866	0.36
621.2	0.36
621.533	0.36
621.867	0.36
622.201	0.36
622.534	0.35
622.868	0.35
623.201	0.35
623.534	0.35
623.868	0.34
624.201	0.34
624.534	0.34
624.868	0.34
625.201	0.34
625.534	0.34
625.867	0.33
626.2	0.33
626.533	0.33
626.865	0.34
627.198	0.33
627.531	0.33
627.864	0.33
628.196	0.33
628.529	0.32
628.862	0.32
629.194	0.32
629.527	0.32
629.859	0.32
630.191	0.31
630.524	0.31
630.856	0.31
631.188	0.31
631.52	0.31
631.852	0.31
632.184	0.3
632.516	0.3
632.848	0.3
633.18	0.3
633.512	0.3
633.844	0.3
634.175	0.3
634.507	0.3
634.839	0.29
635.17	0.29
635.502	0.29
635.833	0.29
636.165	0.29
636.496	0.28
636.827	0.28
637.159	0.28
637.49	0.28
637.821	0.27
638.152	0.27
638.483	0.27
638.814	0.27
639.145	0.26
639.476	0.26
639.807	0.26
640.137	0.26
640.468	0.26
640.799	0.25
641.129	0.25
641.46	0.25
641.791	0.25
642.121	0.25
642.451	0.25
642.782	0.25
643.112	0.25
643.442	0.25
643.773	0.25
644.103	0.24
644.433	0.24
644.763	0.24
645.093	0.24
645.423	0.23
645.753	0.23
646.082	0.23
646.412	0.23
646.742	0.23
647.072	0.23
647.401	0.23
647.731	0.23
648.06	0.23
648.39	0.23
648.719	0.23
649.048	0.22
649.378	0.22
649.707	0.22
650.036	0.22
650.365	0.22
650.694	0.21
651.023	0.21
651.352	0.21
651.681	0.21
652.01	0.21
652.339	0.21
652.668	0.21
652.996	0.21
653.325	0.21
653.654	0.21
653.982	0.21
654.311	0.21
654.639	0.21
654.967	0.21
655.296	0.2
655.624	0.2
655.952	0.21
656.28	0.2
656.609	0.21
656.937	0.21
657.265	0.2
657.593	0.05
657.92	0
658.248	0
658.576	-0
658.904	0.02
659.231	0.09
659.559	0.16
659.887	0.19
660.214	0.19
660.542	0.19
660.869	0.19
661.196	0.2
661.524	0.19
661.851	0.2
662.178	0.19
662.505	0.19
662.832	0.19
663.159	0.19
663.486	0.19
663.813	0.19
664.14	0.19
664.467	0.19
664.794	0.19
665.12	0.19
665.447	0.19
665.774	0.19
666.1	0.19
666.427	0.18
666.753	0.18
667.079	0.18
667.406	0.18
667.732	0.18
668.058	0.18
668.384	0.18
668.71	0.18
669.036	0.17
669.362	0.17
669.688	0.17
670.014	0.17
670.34	0.17
670.666	0.17
670.991	0.17
671.317	0.17
671.643	0.16
671.968	0.16
672.294	0.16
672.619	0.16
672.945	0.16
673.27	0.16
673.595	0.15
673.92	0.14
674.246	0.14
674.571	0.14
674.896	0.14
675.221	0.15
675.546	0.14
675.87	0.15
676.195	0.14
676.52	0.15
676.845	0.14
677.169	0.14
677.494	0.14
677.819	0.14
678.143	0.13
678.468	0.13
678.792	0.13
679.116	0.13
679.44	0.13
679.765	0.13
680.089	0.12
680.413	0.11
680.737	0.11
681.061	0.11
681.385	0.11
681.709	0.1
682.033	0.1
682.356	0.1
682.68	0.1
683.004	0.1
683.327	0.09
683.651	0.09
683.974	0.09
684.298	0.1
684.621	0.1
684.944	0.1
685.268	0.09
685.591	0.09
685.914	0.08
686.237	0.08
686.56	0.07
686.883	0.06
687.206	0.06
687.529	0.05
687.852	0.05
688.175	0.05
688.497	0.06
688.82	0.06
689.142	0.05
689.465	0.05
689.787	0.06
690.11	0.06
690.432	0.05
690.755	0.05
691.077	0.05
691.399	0.05
691.721	0.05
692.043	0.05
692.365	0.05
692.687	0.04
693.009	0.04
693.331	0.03
693.653	0.03
693.974	0.04
694.296	0.03
694.618	0.03
694.939	0.03
695.261	0.03
695.582	0.03
695.904	0.03
696.225	0.03
696.546	0.03
696.868	0.03
697.189	0.03
697.51	0.02
697.831	0.02
698.152	0.03
698.473	0.02
698.794	0.01
699.114	0.01
699.435	0
699.756	0.01
700.077	0.01
700.397	0.01
700.718	0.02
701.038	0.02
701.359	0.02
701.679	0.02
701.999	0.02
702.32	0.02
702.64	0.02
702.96	0.02
703.28	0.02
703.6	0.02
703.92	0.01
704.24	0.01
704.56	0.01
704.879	0.01
705.199	0.01
705.519	0.01
705.838	0.01
706.158	0.01
706.478	0.01
706.797	0.02
707.116	0.02
707.436	0.02
707.755	0.01
708.074	0.01
708.393	0.01
708.712	0
709.031	0
709.35	0
709.669	0
709.988	0
710.307	0
710.626	0
710.944	0
711.263	0
711.582	0.01
711.9	0.01
712.219	0
712.537	0
712.855	0.01
713.174	0
713.492	0
713.81	0.01
714.128	0.01
714.446	0.01
714.764	0
715.082	0
715.4	0
715.718	0
716.035	0
716.353	0
716.671	0
716.988	0.01
717.306	0
717.623	0.01
717.941	0.01
718.258	0.01
718.575	0.01
718.893	0.01
719.21	0.01
719.527	0.01
719.844	0.01
720.161	0.01
720.478	0.01
720.795	0.01
721.112	0.01
721.428	0.01
721.745	0.01
722.062	0.01
722.378	0.01
722.695	0.01
723.011	0.01
723.328	0.02
723.644	0.02
723.96	0.02
724.276	0.02
724.593	0.02
724.909	0.02
725.225	0.01
725.541	0.02
725.857	0.02
726.173	0.02
726.488	0.03
726.804	0.02
727.12	0.02
727.435	0.02
727.751	0.02
728.067	0.02
728.382	0.02
728.697	0.02
729.013	0.03
729.328	0.02
729.643	0.02
729.958	0.02
730.273	0.02
730.588	0.02
730.903	0.02
731.218	0.03
731.533	0.02
731.848	0.02
732.163	0.02
732.477	0.01
732.792	0.01
733.107	0.01
733.421	0.01
733.736	0.01
734.05	0.02
734.364	0.02
734.678	0.02
734.993	0.01
735.307	0.02
735.621	0.01
735.935	0.02
736.249	0.01
736.563	0.01
736.877	0.02
737.19	0.02
737.504	0.02
737.818	0.02
738.131	0.02
738.445	0.02
738.758	0.03
739.072	0.03
739.385	0.03
739.698	0.03
740.012	0.03
740.325	0.03
740.638	0.03
740.951	0.02
741.264	0.02
741.577	0.02
741.89	0.03
742.203	0.03
742.515	0.04
742.828	0.04
743.141	0.03
743.453	0.04
743.766	0.04
744.078	0.03
744.391	0.03
744.703	0.03
745.015	0.03
745.327	0.03
745.639	0.03
745.952	0.03
746.264	0.03
746.575	0.03
746.887	0.03
747.199	0.03
747.511	0.03
747.823	0.03
748.134	0.03
748.446	0.03
748.757	0.03
749.069	0.03
749.38	0.03
749.692	0.03
750.003	0.03
750.314	0.02
750.625	0.02
750.936	0.02
751.248	0.02
751.559	0.02
751.869	0.01
752.18	0.01
752.491	0.01
752.802	0.01
753.112	0.01
753.423	0.01
753.734	0.01
754.044	0.01
754.355	0.01
754.665	0.01
754.975	0.01
755.285	0.01
755.596	0.01
755.906	0.01
756.216	0.01
756.526	0.01
756.836	0.01
757.146	0.01
757.455	0.01
757.765	0.01
758.075	0
758.385	0
758.694	0
759.004	0
759.313	0
759.622	0
759.932	0
760.241	0
760.55	0.01
760.859	0.01
761.168	0.01
761.477	0.01
761.786	0.01
762.095	0.01
762.404	0
762.713	0.01
763.021	0.01
763.33	0.01
763.639	0.01
763.947	0.01
764.256	0.01
764.564	0.01
764.872	0.01
765.181	0.01
765.489	0.01
765.797	0.01
766.105	0.01
766.413	0.01
766.721	0.01
767.029	0.01
767.337	0.01
767.644	0.02
767.952	0.02
768.26	0.02
768.567	0.02
768.875	0.02
769.182	0.02
769.49	0.02
769.797	0.02
770.104	0.02
770.411	0.02
770.718	0.02
771.026	0.02
771.333	0.02
771.639	0.02
771.946	0.02
772.253	0.02
772.56	0.02
772.867	0.02
773.173	0.02
773.48	0.03
773.786	0.02
774.093	0.03
774.399	0.03
774.705	0.03
775.012	0.03
775.318	0.03
775.624	0.03
775.93	0.03
776.236	0.02
776.542	0.03
776.848	0.02
777.154	0.03
777.459	0.02
777.765	0.02
778.071	0.02
778.376	0.02
778.682	0.02
778.987	0.02
779.292	0.02
779.598	0.03
779.903	0.02
780.208	0.02
780.513	0.02
780.818	0.02
781.123	0.03
781.428	0.02
781.733	0.02
782.038	0.02
782.343	0.02
782.647	0.02
782.952	0.03
783.256	0.03
783.561	0.03
783.865	0.03
784.17	0.03
784.474	0.03
784.778	0.03
785.082	0.03
785.386	0.03
785.69	0.03
785.994	0.03
786.298	0.02
786.602	0.02
786.906	0.02
787.209	0.03
787.513	0.03
787.817	0.03
788.12	0.02
788.424	0.02
788.727	0.02
789.03	0.02
789.333	0.02
789.637	0.02
789.94	0.02
790.243	0.02
790.546	0.03
790.849	0.03
791.152	0.03
791.454	0.03
791.757	0.03
792.06	0.03
792.362	0.03
792.665	0.03
792.967	0.03
793.27	0.03
793.572	0.03
793.874	0.02
794.177	0.02
794.479	0.02
794.781	0.03
795.083	0.03
795.385	0.03
795.687	0.03
795.989	0.03
796.29	0.03
796.592	0.03
796.894	0.03
797.195	0.03
797.497	0.04
797.798	0.04
798.1	0.03
798.401	0.03
798.702	0.03
799.003	0.03
799.304	0.03
799.605	0.03
799.906	0.03
800.207	0.03
800.508	0.03
800.809	0.04
801.11	0.04
801.41	0.04
801.711	0.03
802.011	0.03
802.312	0.03
802.612	0.03
802.913	0.03
803.213	0.03
803.513	0.03
803.813	0.03
804.113	0.03
804.413	0.03
804.713	0.03
805.013	0.03
805.313	0.03
805.613	0.03
805.912	0.04
806.212	0.04
806.511	0.04
806.811	0.04
807.11	0.03
807.41	0.04
807.709	0.03
808.008	0.03
808.307	0.04
808.606	0.04
808.905	0.03
809.204	0.04
809.503	0.03
809.802	0.03
810.101	0.03
810.399	0.03
810.698	0.03
810.997	0.03
811.295	0.03
811.593	0.03
811.892	0.03
812.19	0.03
812.488	0.03
812.786	0.03
813.084	0.03
813.383	0.03
813.68	0.03
813.978	0.04
814.276	0.04
814.574	0.04
814.872	0.04
815.169	0.04
815.467	0.04
815.764	0.04
816.062	0.04
816.359	0.04
816.656	0.04
816.954	0.04
817.251	0.04
817.548	0.04
817.845	0.05
818.142	0.04
818.439	0.04
818.735	0.04
819.032	0.04
819.329	0.04
819.626	0.04
819.922	0.04
820.219	0.04
820.515	0.05
820.811	0.05
821.108	0.04
821.404	0.04
821.7	0.05
821.996	0.05
822.292	0.04
822.588	0.05
822.884	0.05
823.18	0.05
823.475	0.04
823.771	0.05
824.067	0.05
824.362	0.05
824.658	0.05
824.953	0.05
825.249	0.04
825.544	0.04
825.839	0.04
826.134	0.04
826.429	0.05
826.724	0.04
827.019	0.04
827.314	0.04
827.609	0.04
827.904	0.04
828.198	0.05
828.493	0.05
828.787	0.05
829.082	0.05
829.376	0.05
829.671	0.05
829.965	0.05
830.259	0.05
830.553	0.05
830.847	0.06
831.141	0.06
831.435	0.05
831.729	0.05
832.023	0.04
832.317	0.05
832.61	0.05
832.904	0.05
833.197	0.05
833.491	0.05
833.784	0.05
834.077	0.04
834.371	0.05
834.664	0.06
834.957	0.05
835.25	0.06
835.543	0.05
835.836	0.06
836.129	0.05
836.421	0.05
836.714	0.05
837.007	0.06
837.299	0.06
837.592	0.05
837.884	0.06
838.177	0.05
838.469	0.05
838.761	0.06
839.053	0.05
839.345	0.05
839.637	0.05
839.929	0.06
840.221	0.05
840.513	0.05
840.805	0.06
841.096	0.06
841.388	0.06
841.68	0.06
841.971	0.06
842.262	0.06
842.554	0.05
842.845	0.06
843.136	0.05
843.427	0.05
843.718	0.05
844.009	0.05
844.3	0.06
844.591	0.06
844.882	0.06
845.173	0.05
845.463	0.06
845.754	0.06
846.044	0.06
846.335	0.07
846.625	0.06
846.915	0.06
847.206	0.06
847.496	0.06
847.786	0.06
848.076	0.06
848.366	0.05
848.656	0.06
848.945	0.05
849.235	0.06
849.525	0.06
849.814	0.06
850.104	0.05
850.393	0.06
850.683	0.07
850.972	0.07
851.261	0.06
851.551	0.06
851.84	0.06
852.129	0.06
852.418	0.07
852.707	0.06
852.995	0.06
853.284	0.07
853.573	0.07
853.862	0.07
854.15	0.07
854.439	0.07
854.727	0.07
855.015	0.07
855.304	0.07
855.592	0.08
855.88	0.07
856.168	0.07
856.456	0.08
856.744	0.07
857.032	0.09
857.32	0.08
857.607	0.08
857.895	0.07
858.183	0.08
858.47	0.06
858.757	0.06
859.045	0.07
859.332	0.06
859.619	0.08
859.907	0.08
860.194	0.09
860.481	0.07
860.768	0.08
861.054	0.08
861.341	0.07
861.628	0.08
861.915	0.07
862.201	0.07
862.488	0.07
862.774	0.08
863.061	0.08
863.347	0.07
863.633	0.05
863.919	0.08
864.205	0.07
864.491	0.07
864.777	0.07
865.063	0.06
865.349	0.06
865.635	0.07
865.92	0.05
866.206	0.06
866.492	0.07
866.777	0.09
867.062	0.05
867.348	0.08
867.633	0.06
867.918	0.08
868.203	0.11
868.488	0.09
868.773	0.08
869.058	0.1
869.343	0.07
869.628	0.06
869.912	0.1
870.197	0.05
870.482	0.09
870.766	0.06
871.05	0.05
871.335	0.08
871.619	0.07
871.903	0.02
872.187	0.06
872.471	0.07
872.755	0.1
873.039	0.02
873.323	0.06
873.607	0.06
873.89	0.05
874.174	0.06
874.458	0.07
874.741	0.07
875.024	0.04
875.308	0.06
875.591	-0
875.874	0.05
876.157	0.09
876.44	0.05
876.723	0.07
877.006	0.09
877.289	0.01
877.572	0.05
877.854	0.06
878.137	0.03
878.42	0.1
878.702	0.09
878.984	0.06
879.267	0.05
879.549	0.02
879.831	0.09
880.113	0.13
880.395	-0.05
880.677	0.06
880.959	0.08
