Data from Rubpy_BV_600_EDTA_Buffered_Absorbance_12-24-22-490.txt Node
Date: Wed Jul 01 12:24:22 BST 2026
User: fpm-admin
Spectrometer: OFX00224
Trigger mode: 0
Integration Time (sec): 7.000000E-2
Scans to average: 3
Nonlinearity correction enabled: false
Boxcar width: 0
Storing dark spectrum: false
XAxis mode: Wavelengths
Number of Pixels in Spectrum: 2136
>>>>>Begin Spectral Data<<<<<
154.91	-0
155.289	0.08
155.669	-0.57
156.048	-0
156.428	-0
156.807	-0
157.186	0.11
157.566	-0.18
157.945	0.13
158.325	0.24
158.704	0.08
159.083	-0
159.462	-0
159.842	0.4
160.221	0.69
160.6	-0.15
160.979	0.4
161.359	-0.46
161.738	-0.34
162.117	-0
162.496	-0
162.875	-0
163.254	-0
163.633	-0.43
164.012	1.1
164.391	-0
164.77	0.1
165.149	0.57
165.528	-0
165.907	-0
166.286	-0
166.665	0.35
167.044	-0
167.423	-0.27
167.802	-0
168.181	1.15
168.559	0.62
168.938	-1.34
169.317	-0
169.696	-0.85
170.074	-0.14
170.453	0.22
170.832	0.34
171.21	-0
171.589	0.19
171.968	0.53
172.346	0.35
172.725	-0
173.103	0.05
173.482	0.65
173.861	-0
174.239	-0.74
174.617	-0
174.996	0.48
175.374	0.58
175.753	-0
176.131	-0
176.51	-0.07
176.888	0.25
177.266	0.42
177.645	-0.02
178.023	0.32
178.401	-0.28
178.779	0.05
179.158	0.12
179.536	0.17
179.914	0.03
180.292	-0
180.67	-0.09
181.048	0.5
181.427	-0
181.805	-0.14
182.183	-0
182.561	-0
182.939	0.42
183.317	0.27
183.695	0.64
184.073	1.07
184.451	-0.38
184.829	0.33
185.206	0.46
185.584	0.55
185.962	-0
186.34	-0.64
186.718	-0.1
187.096	-0
187.473	-0.13
187.851	-0.22
188.229	-0
188.607	-0.03
188.984	0.11
189.362	0.02
189.74	0.02
190.117	0
190.495	-0.03
190.872	-0.01
191.25	-0.02
191.627	0.08
192.005	0.13
192.382	-0
192.76	0.08
193.137	0.11
193.515	-0
193.892	0.08
194.269	-0.02
194.647	0.06
195.024	0.04
195.401	0.11
195.779	-0.04
196.156	-0.04
196.533	0.04
196.91	0.07
197.288	0.01
197.665	0.09
198.042	0.11
198.419	0.09
198.796	-0
199.173	0.02
199.55	-0.06
199.927	0.07
200.304	0.09
200.681	0.09
201.058	-0.05
201.435	-0.02
201.812	0.14
202.189	0.09
202.566	0.03
202.943	0.09
203.32	0.12
203.697	-0.05
204.073	0.09
204.45	-0.01
204.827	0.04
205.204	0.02
205.58	0.06
205.957	-0.08
206.334	0.16
206.71	0.09
207.087	-0
207.464	0.1
207.84	0.1
208.217	0.09
208.593	0.09
208.97	-0
209.346	0.08
209.723	0.05
210.099	-0.05
210.476	0.13
210.852	0.09
211.228	0.19
211.605	0.07
211.981	0.14
212.357	0.08
212.733	-0.02
213.11	0.08
213.486	-0.04
213.862	0.09
214.238	0.01
214.614	0.03
214.991	0.06
215.367	0.05
215.743	0.08
216.119	0.01
216.495	0.13
216.871	0.05
217.247	0.03
217.623	0.04
217.999	0.05
218.375	0.05
218.751	0.18
219.127	-0.05
219.502	0.06
219.878	0.05
220.254	0.01
220.63	0.03
221.006	0.03
221.381	0.06
221.757	0.04
222.133	0.15
222.508	0.02
222.884	0.06
223.26	0.06
223.635	0.02
224.011	-0.01
224.386	0.07
224.762	0.08
225.137	0.08
225.513	0.05
225.888	0.04
226.264	0.03
226.639	0.02
227.014	0.04
227.39	0.1
227.765	0.09
228.14	0.1
228.516	0.12
228.891	0.13
229.266	0.1
229.641	0.07
230.017	0.07
230.392	0.12
230.767	0.02
231.142	0.07
231.517	0.09
231.892	0.04
232.267	0.15
232.642	0
233.017	0.03
233.392	0.09
233.767	0.14
234.142	0.04
234.517	0.03
234.892	0.01
235.267	0.01
235.641	0.05
236.016	0.15
236.391	0.07
236.766	0.1
237.14	0.07
237.515	0.02
237.89	0.01
238.264	0
238.639	0.04
239.014	0.11
239.388	0.06
239.763	0.05
240.137	0.03
240.512	0.19
240.886	-0.03
241.261	0.07
241.635	0.11
242.009	0.09
242.384	0.1
242.758	0.05
243.132	0.07
243.507	0.1
243.881	0.05
244.255	0.05
244.629	0.01
245.004	0.05
245.378	0.03
245.752	-0
246.126	0.12
246.5	-0.01
246.874	0.02
247.248	0.1
247.622	0.03
247.996	0.02
248.37	0.08
248.744	0.15
249.118	0.11
249.492	0.12
249.866	0.08
250.24	0.13
250.613	0.17
250.987	0.08
251.361	0.02
251.735	0.07
252.108	0.09
252.482	0.12
252.856	-0.02
253.229	0
253.603	-0.03
253.977	0.03
254.35	0.08
254.724	0.13
255.097	0.11
255.471	0.08
255.844	0.08
256.218	0.01
256.591	0.13
256.964	0.06
257.338	0.09
257.711	0.12
258.084	0.07
258.458	0.09
258.831	0.04
259.204	0.01
259.577	0.08
259.95	0.08
260.323	0.09
260.697	0.04
261.07	0.02
261.443	0.12
261.816	0.08
262.189	0.04
262.562	0.1
262.935	0.06
263.308	0.1
263.68	0.07
264.053	0.03
264.426	0.11
264.799	0.07
265.172	0.09
265.545	0.05
265.917	0.07
266.29	0.08
266.663	0.13
267.035	0.16
267.408	0.08
267.781	0.07
268.153	0.08
268.526	0.04
268.898	0.02
269.271	0.16
269.643	0.05
270.016	0.05
270.388	0.08
270.76	0.09
271.133	0.08
271.505	0.1
271.877	0.07
272.25	0.09
272.622	0.11
272.994	0.15
273.366	0.11
273.739	0.11
274.111	0.06
274.483	0.12
274.855	0.09
275.227	0.09
275.599	0.07
275.971	0.05
276.343	0.13
276.715	0.13
277.087	0.06
277.459	0.08
277.831	0.13
278.203	0.09
278.574	0.03
278.946	0.05
279.318	0.11
279.69	0.16
280.061	0.1
280.433	0.06
280.805	0.12
281.176	0.15
281.548	0.09
281.92	0.08
282.291	0.08
282.663	0.16
283.034	0.08
283.406	0.06
283.777	0.12
284.148	0.15
284.52	0.05
284.891	0.07
285.262	0.07
285.634	0.1
286.005	0.07
286.376	0.11
286.747	0.07
287.119	0.09
287.49	0.09
287.861	0.04
288.232	0.04
288.603	0.08
288.974	0.08
289.345	0.08
289.716	0.07
290.087	0.07
290.458	0
290.829	0.05
291.2	0.12
291.571	0.03
291.941	0.07
292.312	0.08
292.683	0.07
293.054	0.11
293.424	0.06
293.795	0.09
294.166	0.06
294.536	0.08
294.907	0.1
295.277	0.08
295.648	0.08
296.018	0.07
296.389	0.1
296.759	0.07
297.13	0.08
297.5	0.1
297.871	0.06
298.241	0.11
298.611	0.04
298.981	0.05
299.352	0.1
299.722	0.06
300.092	0.09
300.462	0.01
300.832	0.06
301.202	0.11
301.573	0.03
301.943	0.05
302.313	0.05
302.683	0.06
303.053	0.05
303.422	0.04
303.792	0.07
304.162	0.05
304.532	0.01
304.902	0.03
305.272	0.05
305.641	0.05
306.011	0.03
306.381	0.04
306.75	0.03
307.12	0.03
307.49	0.03
307.859	0.04
308.229	0.05
308.598	0.04
308.968	0.04
309.337	0.04
309.707	0.04
310.076	0.06
310.445	0.05
310.815	0.06
311.184	0.05
311.553	0.05
311.923	0.06
312.292	0.07
312.661	0.06
313.03	0.06
313.399	0.06
313.768	0.06
314.137	0.07
314.506	0.06
314.875	0.07
315.244	0.07
315.613	0.07
315.982	0.06
316.351	0.07
316.72	0.06
317.089	0.07
317.458	0.07
317.826	0.07
318.195	0.07
318.564	0.08
318.933	0.08
319.301	0.08
319.67	0.08
320.038	0.08
320.407	0.08
320.775	0.08
321.144	0.09
321.512	0.08
321.881	0.08
322.249	0.08
322.618	0.09
322.986	0.08
323.354	0.09
323.723	0.09
324.091	0.09
324.459	0.09
324.827	0.09
325.195	0.09
325.564	0.09
325.932	0.1
326.3	0.1
326.668	0.1
327.036	0.1
327.404	0.09
327.772	0.1
328.14	0.1
328.508	0.1
328.875	0.11
329.243	0.11
329.611	0.11
329.979	0.11
330.346	0.11
330.714	0.11
331.082	0.11
331.449	0.12
331.817	0.12
332.185	0.12
332.552	0.13
332.92	0.12
333.287	0.12
333.655	0.13
334.022	0.13
334.389	0.13
334.757	0.13
335.124	0.14
335.491	0.14
335.859	0.13
336.226	0.14
336.593	0.14
336.96	0.15
337.327	0.15
337.695	0.15
338.062	0.15
338.429	0.16
338.796	0.16
339.163	0.17
339.53	0.17
339.897	0.17
340.263	0.17
340.63	0.17
340.997	0.18
341.364	0.18
341.731	0.18
342.097	0.19
342.464	0.19
342.831	0.19
343.197	0.2
343.564	0.2
343.931	0.2
344.297	0.2
344.664	0.21
345.03	0.21
345.396	0.22
345.763	0.22
346.129	0.22
346.496	0.22
346.862	0.23
347.228	0.23
347.594	0.23
347.961	0.24
348.327	0.25
348.693	0.24
349.059	0.25
349.425	0.25
349.791	0.25
350.157	0.26
350.523	0.26
350.889	0.26
351.255	0.27
351.621	0.27
351.987	0.27
352.353	0.28
352.719	0.28
353.084	0.28
353.45	0.28
353.816	0.29
354.181	0.29
354.547	0.3
354.913	0.3
355.278	0.31
355.644	0.31
356.009	0.31
356.375	0.32
356.74	0.32
357.106	0.33
357.471	0.33
357.836	0.33
358.202	0.34
358.567	0.34
358.932	0.35
359.297	0.35
359.663	0.36
360.028	0.36
360.393	0.37
360.758	0.38
361.123	0.38
361.488	0.39
361.853	0.39
362.218	0.4
362.583	0.4
362.948	0.4
363.312	0.41
363.677	0.42
364.042	0.42
364.407	0.43
364.772	0.44
365.136	0.43
365.501	0.44
365.865	0.44
366.23	0.45
366.595	0.45
366.959	0.46
367.324	0.47
367.688	0.47
368.052	0.47
368.417	0.48
368.781	0.48
369.145	0.48
369.51	0.48
369.874	0.49
370.238	0.49
370.602	0.5
370.967	0.5
371.331	0.51
371.695	0.52
372.059	0.51
372.423	0.52
372.787	0.52
373.151	0.52
373.515	0.51
373.878	0.52
374.242	0.51
374.606	0.51
374.97	0.51
375.334	0.5
375.697	0.5
376.061	0.5
376.425	0.49
376.788	0.49
377.152	0.48
377.515	0.48
377.879	0.47
378.242	0.47
378.606	0.46
378.969	0.46
379.333	0.45
379.696	0.45
380.059	0.45
380.422	0.45
380.786	0.44
381.149	0.44
381.512	0.43
381.875	0.43
382.238	0.43
382.601	0.42
382.964	0.42
383.327	0.42
383.69	0.41
384.053	0.42
384.416	0.41
384.779	0.42
385.142	0.41
385.504	0.41
385.867	0.42
386.23	0.41
386.593	0.42
386.955	0.42
387.318	0.42
387.68	0.42
388.043	0.43
388.405	0.43
388.768	0.43
389.13	0.43
389.493	0.43
389.855	0.43
390.217	0.43
390.58	0.43
390.942	0.42
391.304	0.43
391.666	0.42
392.028	0.42
392.391	0.41
392.753	0.41
393.115	0.4
393.477	0.4
393.839	0.39
394.201	0.4
394.563	0.39
394.924	0.39
395.286	0.39
395.648	0.4
396.01	0.4
396.371	0.41
396.733	0.42
397.095	0.43
397.456	0.44
397.818	0.45
398.18	0.46
398.541	0.47
398.903	0.49
399.264	0.49
399.625	0.51
399.987	0.52
400.348	0.53
400.709	0.53
401.071	0.55
401.432	0.55
401.793	0.55
402.154	0.55
402.515	0.54
402.876	0.53
403.238	0.52
403.599	0.51
403.96	0.49
404.32	0.48
404.681	0.46
405.042	0.45
405.403	0.42
405.764	0.4
406.125	0.38
406.485	0.36
406.846	0.34
407.207	0.32
407.567	0.3
407.928	0.29
408.288	0.27
408.649	0.25
409.009	0.24
409.37	0.22
409.73	0.21
410.091	0.2
410.451	0.19
410.811	0.18
411.171	0.16
411.532	0.16
411.892	0.15
412.252	0.15
412.612	0.13
412.972	0.13
413.332	0.12
413.692	0.12
414.052	0.11
414.412	0.11
414.772	0.1
415.132	0.1
415.492	0.1
415.851	0.09
416.211	0.09
416.571	0.09
416.931	0.09
417.29	0.08
417.65	0.08
418.009	0.08
418.369	0.07
418.728	0.07
419.088	0.07
419.447	0.07
419.807	0.07
420.166	0.07
420.525	0.07
420.884	0.06
421.244	0.06
421.603	0.06
421.962	0.06
422.321	0.06
422.68	0.06
423.039	0.06
423.398	0.06
423.757	0.04
424.116	0.06
424.475	0.06
424.834	0.05
425.193	0.05
425.551	0.04
425.91	0.04
426.269	0.05
426.628	0.04
426.986	0.05
427.345	0.05
427.703	0.04
428.062	0.04
428.42	0.05
428.779	0.05
429.137	0.04
429.496	0.04
429.854	0.04
430.212	0.04
430.57	0.05
430.929	0.04
431.287	0.04
431.645	0.05
432.003	0.04
432.361	0.04
432.719	0.04
433.077	0.04
433.435	0.04
433.793	0.04
434.151	0.04
434.509	0.03
434.866	0.04
435.224	0.04
435.582	0.04
435.94	0.03
436.297	0.04
436.655	0.04
437.012	0.04
437.37	0.04
437.727	0.04
438.085	0.04
438.442	0.04
438.8	0.03
439.157	0.04
439.514	0.04
439.872	0.04
440.229	0.04
440.586	0.02
440.943	0.03
441.3	0.03
441.657	0.03
442.014	0.03
442.371	0.03
442.728	0.04
443.085	0.04
443.442	0.04
443.799	0.04
444.156	0.03
444.513	0.03
444.869	0.04
445.226	0.03
445.583	0.04
445.939	0.03
446.296	0.03
446.652	0.03
447.009	0.04
447.365	0.04
447.722	0.03
448.078	0.03
448.434	0.03
448.791	0.04
449.147	0.03
449.503	0.03
449.859	0.03
450.215	0.03
450.571	0.03
450.928	0.03
451.284	0.03
451.64	0.03
451.995	0.03
452.351	0.03
452.707	0.03
453.063	0.03
453.419	0.03
453.775	0.02
454.13	0.03
454.486	0.02
454.842	0.02
455.197	0.02
455.553	0.02
455.908	0.02
456.264	0.02
456.619	0.02
456.975	0.02
457.33	0.02
457.685	0.01
458.04	0.02
458.396	0.01
458.751	0
459.106	0.01
459.461	0
459.816	-0
460.171	0
460.526	-0
460.881	0
461.236	0
461.591	-0.01
461.946	-0
462.301	-0
462.655	-0.01
463.01	-0
463.365	-0.01
463.719	-0.02
464.074	-0.01
464.428	-0.02
464.783	-0.01
465.137	-0.02
465.492	-0.03
465.846	-0.02
466.201	-0.02
466.555	-0.02
466.909	-0.02
467.263	-0.01
467.618	-0.02
467.972	-0.02
468.326	-0.02
468.68	-0.02
469.034	-0.02
469.388	-0.02
469.742	-0.03
470.096	-0.02
470.45	-0.02
470.804	-0.02
471.157	-0.02
471.511	-0.02
471.865	-0.02
472.218	-0.01
472.572	-0.01
472.926	-0
473.279	-0.01
473.633	-0.01
473.986	-0
474.34	0
474.693	0.01
475.046	0.01
475.4	0.01
475.753	0.02
476.106	0.02
476.459	0.03
476.812	0.03
477.165	0.03
477.519	0.03
477.872	0.03
478.224	0.03
478.577	0.04
478.93	0.05
479.283	0.04
479.636	0.05
479.989	0.05
480.341	0.05
480.694	0.05
481.047	0.06
481.399	0.06
481.752	0.07
482.104	0.06
482.457	0.06
482.809	0.07
483.162	0.07
483.514	0.07
483.866	0.07
484.219	0.07
484.571	0.08
484.923	0.08
485.275	0.08
485.627	0.08
485.979	0.08
486.331	0.08
486.683	0.08
487.035	0.09
487.387	0.08
487.739	0.09
488.091	0.09
488.443	0.09
488.794	0.09
489.146	0.09
489.498	0.09
489.849	0.09
490.201	0.09
490.552	0.09
490.904	0.1
491.255	0.1
491.607	0.1
491.958	0.1
492.309	0.1
492.661	0.11
493.012	0.1
493.363	0.1
493.714	0.1
494.065	0.1
494.416	0.11
494.767	0.11
495.118	0.11
495.469	0.11
495.82	0.11
496.171	0.11
496.522	0.11
496.872	0.11
497.223	0.11
497.574	0.12
497.924	0.12
498.275	0.12
498.626	0.12
498.976	0.12
499.327	0.13
499.677	0.13
500.027	0.13
500.378	0.13
500.728	0.13
501.078	0.13
501.428	0.13
501.779	0.13
502.129	0.13
502.479	0.13
502.829	0.13
503.179	0.13
503.529	0.14
503.879	0.14
504.229	0.14
504.578	0.15
504.928	0.14
505.278	0.14
505.628	0.14
505.977	0.14
506.327	0.14
506.676	0.15
507.026	0.15
507.375	0.15
507.725	0.15
508.074	0.15
508.424	0.15
508.773	0.15
509.122	0.16
509.471	0.15
509.82	0.16
510.17	0.16
510.519	0.15
510.868	0.15
511.217	0.16
511.566	0.16
511.915	0.16
512.263	0.16
512.612	0.17
512.961	0.16
513.31	0.16
513.659	0.17
514.007	0.17
514.356	0.17
514.704	0.17
515.053	0.17
515.401	0.17
515.75	0.17
516.098	0.17
516.447	0.17
516.795	0.18
517.143	0.17
517.491	0.18
517.839	0.17
518.188	0.18
518.536	0.18
518.884	0.18
519.232	0.18
519.58	0.18
519.928	0.18
520.275	0.18
520.623	0.18
520.971	0.19
521.319	0.19
521.666	0.19
522.014	0.19
522.362	0.19
522.709	0.18
523.057	0.19
523.404	0.19
523.752	0.19
524.099	0.19
524.446	0.19
524.794	0.19
525.141	0.2
525.488	0.2
525.835	0.19
526.182	0.19
526.529	0.2
526.876	0.2
527.223	0.2
527.57	0.2
527.917	0.2
528.264	0.2
528.611	0.2
528.958	0.2
529.304	0.2
529.651	0.2
529.998	0.2
530.344	0.21
530.691	0.2
531.037	0.2
531.384	0.21
531.73	0.2
532.076	0.21
532.423	0.21
532.769	0.21
533.115	0.21
533.461	0.21
533.807	0.21
534.154	0.21
534.5	0.21
534.846	0.21
535.192	0.21
535.537	0.21
535.883	0.21
536.229	0.21
536.575	0.21
536.921	0.21
537.266	0.21
537.612	0.22
537.957	0.22
538.303	0.22
538.649	0.22
538.994	0.22
539.339	0.22
539.685	0.22
540.03	0.22
540.375	0.22
540.721	0.22
541.066	0.22
541.411	0.22
541.756	0.22
542.101	0.22
542.446	0.22
542.791	0.22
543.136	0.22
543.481	0.22
543.825	0.22
544.17	0.23
544.515	0.23
544.86	0.23
545.204	0.23
545.549	0.23
545.893	0.23
546.238	0.23
546.582	0.23
546.927	0.23
547.271	0.23
547.615	0.23
547.96	0.23
548.304	0.23
548.648	0.23
548.992	0.23
549.336	0.24
549.68	0.23
550.024	0.24
550.368	0.23
550.712	0.23
551.056	0.23
551.4	0.23
551.743	0.23
552.087	0.24
552.431	0.24
552.774	0.24
553.118	0.23
553.462	0.23
553.805	0.23
554.148	0.24
554.492	0.24
554.835	0.24
555.178	0.24
555.522	0.24
555.865	0.23
556.208	0.23
556.551	0.23
556.894	0.23
557.237	0.23
557.58	0.24
557.923	0.24
558.266	0.24
558.609	0.24
558.952	0.23
559.294	0.24
559.637	0.24
559.98	0.24
560.322	0.23
560.665	0.24
561.007	0.24
561.35	0.24
561.692	0.23
562.034	0.24
562.377	0.24
562.719	0.24
563.061	0.24
563.403	0.24
563.745	0.23
564.088	0.24
564.43	0.24
564.772	0.24
565.113	0.23
565.455	0.23
565.797	0.23
566.139	0.24
566.481	0.23
566.822	0.24
567.164	0.23
567.506	0.24
567.847	0.23
568.189	0.24
568.53	0.23
568.872	0.24
569.213	0.23
569.554	0.24
569.895	0.23
570.237	0.23
570.578	0.23
570.919	0.23
571.26	0.23
571.601	0.23
571.942	0.23
572.283	0.23
572.624	0.23
572.965	0.22
573.306	0.22
573.646	0.22
573.987	0.22
574.328	0.22
574.668	0.22
575.009	0.22
575.349	0.22
575.69	0.21
576.03	0.21
576.37	0.2
576.711	0.19
577.051	0.19
577.391	0.2
577.731	0.21
578.072	0.21
578.412	0.2
578.752	0.2
579.092	0.19
579.431	0.16
579.771	0.14
580.111	0.13
580.451	0.14
580.791	0.17
581.13	0.19
581.47	0.2
581.81	0.19
582.149	0.19
582.489	0.2
582.828	0.17
583.167	0.13
583.507	0.1
583.846	0.09
584.185	0.11
584.525	0.13
584.864	0.16
585.203	0.19
585.542	0.21
585.881	0.21
586.22	0.21
586.559	0.18
586.898	0.16
587.236	0.14
587.575	0.14
587.914	0.15
588.252	0.17
588.591	0.19
588.93	0.19
589.268	0.18
589.607	0.18
589.945	0.18
590.283	0.18
590.622	0.19
590.96	0.21
591.298	0.21
591.636	0.21
591.974	0.21
592.313	0.21
592.651	0.22
592.989	0.22
593.326	0.22
593.664	0.22
594.002	0.22
594.34	0.21
594.678	0.19
595.015	0.17
595.353	0.16
595.691	0.17
596.028	0.19
596.366	0.2
596.703	0.21
597.04	0.21
597.378	0.21
597.715	0.22
598.052	0.22
598.389	0.22
598.726	0.22
599.064	0.22
599.401	0.22
599.738	0.22
600.074	0.22
600.411	0.21
600.748	0.19
601.085	0.18
601.422	0.17
601.758	0.18
602.095	0.18
602.432	0.18
602.768	0.19
603.105	0.2
603.441	0.21
603.777	0.22
604.114	0.22
604.45	0.22
604.786	0.22
605.122	0.22
605.459	0.22
605.795	0.21
606.131	0.21
606.467	0.21
606.803	0.22
607.139	0.21
607.474	0.21
607.81	0.2
608.146	0.2
608.482	0.2
608.817	0.2
609.153	0.2
609.488	0.2
609.824	0.2
610.159	0.21
610.495	0.21
610.83	0.21
611.165	0.21
611.5	0.21
611.836	0.21
612.171	0.21
612.506	0.21
612.841	0.21
613.176	0.21
613.511	0.21
613.845	0.21
614.18	0.21
614.515	0.21
614.85	0.21
615.184	0.21
615.519	0.2
615.854	0.21
616.188	0.2
616.523	0.2
616.857	0.2
617.191	0.2
617.526	0.2
617.86	0.2
618.194	0.2
618.528	0.2
618.862	0.2
619.196	0.2
619.53	0.2
619.864	0.2
620.198	0.2
620.532	0.2
620.866	0.2
621.2	0.2
621.533	0.2
621.867	0.2
622.201	0.2
622.534	0.2
622.868	0.2
623.201	0.19
623.534	0.19
623.868	0.19
624.201	0.19
624.534	0.19
624.868	0.19
625.201	0.19
625.534	0.19
625.867	0.19
626.2	0.19
626.533	0.19
626.865	0.18
627.198	0.19
627.531	0.19
627.864	0.18
628.196	0.18
628.529	0.18
628.862	0.18
629.194	0.18
629.527	0.18
629.859	0.18
630.191	0.17
630.524	0.18
630.856	0.17
631.188	0.17
631.52	0.17
631.852	0.17
632.184	0.17
632.516	0.17
632.848	0.17
633.18	0.17
633.512	0.17
633.844	0.17
634.175	0.17
634.507	0.17
634.839	0.17
635.17	0.16
635.502	0.16
635.833	0.16
636.165	0.16
636.496	0.16
636.827	0.16
637.159	0.16
637.49	0.15
637.821	0.16
638.152	0.15
638.483	0.15
638.814	0.15
639.145	0.14
639.476	0.14
639.807	0.15
640.137	0.14
640.468	0.14
640.799	0.14
641.129	0.14
641.46	0.14
641.791	0.14
642.121	0.14
642.451	0.14
642.782	0.14
643.112	0.14
643.442	0.14
643.773	0.14
644.103	0.13
644.433	0.13
644.763	0.13
645.093	0.13
645.423	0.13
645.753	0.13
646.082	0.13
646.412	0.12
646.742	0.13
647.072	0.13
647.401	0.13
647.731	0.13
648.06	0.12
648.39	0.12
648.719	0.13
649.048	0.13
649.378	0.12
649.707	0.12
650.036	0.12
650.365	0.12
650.694	0.12
651.023	0.12
651.352	0.12
651.681	0.12
652.01	0.12
652.339	0.12
652.668	0.12
652.996	0.12
653.325	0.11
653.654	0.12
653.982	0.12
654.311	0.12
654.639	0.12
654.967	0.12
655.296	0.12
655.624	0.11
655.952	0.12
656.28	0.11
656.609	0.11
656.937	0.12
657.265	0.11
657.593	0
657.92	0
658.248	0
658.576	-0
658.904	0
659.231	0.02
659.559	0.07
659.887	0.1
660.214	0.11
660.542	0.11
660.869	0.11
661.196	0.11
661.524	0.11
661.851	0.11
662.178	0.11
662.505	0.11
662.832	0.11
663.159	0.11
663.486	0.11
663.813	0.11
664.14	0.11
664.467	0.11
664.794	0.11
665.12	0.11
665.447	0.11
665.774	0.11
666.1	0.11
666.427	0.1
666.753	0.1
667.079	0.1
667.406	0.1
667.732	0.1
668.058	0.1
668.384	0.1
668.71	0.1
669.036	0.1
669.362	0.1
669.688	0.1
670.014	0.1
670.34	0.1
670.666	0.1
670.991	0.1
671.317	0.1
671.643	0.09
671.968	0.09
672.294	0.09
672.619	0.09
672.945	0.09
673.27	0.09
673.595	0.09
673.92	0.08
674.246	0.07
674.571	0.08
674.896	0.08
675.221	0.08
675.546	0.08
675.87	0.08
676.195	0.08
676.52	0.08
676.845	0.08
677.169	0.08
677.494	0.08
677.819	0.08
678.143	0.07
678.468	0.07
678.792	0.07
679.116	0.07
679.44	0.07
679.765	0.07
680.089	0.06
680.413	0.06
680.737	0.06
681.061	0.05
681.385	0.06
681.709	0.05
682.033	0.05
682.356	0.05
682.68	0.05
683.004	0.05
683.327	0.04
683.651	0.04
683.974	0.04
684.298	0.05
684.621	0.05
684.944	0.05
685.268	0.05
685.591	0.05
685.914	0.04
686.237	0.03
686.56	0.03
686.883	0.02
687.206	0.02
687.529	0.01
687.852	0.01
688.175	0.01
688.497	0.02
688.82	0.02
689.142	0.02
689.465	0.02
689.787	0.02
690.11	0.02
690.432	0.02
690.755	0.02
691.077	0.02
691.399	0.01
691.721	0.02
692.043	0.02
692.365	0.01
692.687	0.01
693.009	0.01
693.331	0
693.653	0.01
693.974	0.01
694.296	0.01
694.618	0.01
694.939	0.01
695.261	0
695.582	0
695.904	0.01
696.225	0.01
696.546	0.01
696.868	0.01
697.189	0.01
697.51	0
697.831	0
698.152	0.01
698.473	0
698.794	0
699.114	0
699.435	0
699.756	0
700.077	0
700.397	0
700.718	0
701.038	0
701.359	0
701.679	0
701.999	0.01
702.32	0
702.64	0
702.96	0
703.28	0.01
703.6	0.01
703.92	0
704.24	0
704.56	0
704.879	0
705.199	0
705.519	0
705.838	0
706.158	0
706.478	0
706.797	0
707.116	0
707.436	0
707.755	0
708.074	0
708.393	0
708.712	0
709.031	0
709.35	0
709.669	0
709.988	0
710.307	-0
710.626	0
710.944	0
711.263	0
711.582	0
711.9	0
712.219	0
712.537	0
712.855	0
713.174	0
713.492	0
713.81	0
714.128	0
714.446	0
714.764	0
715.082	-0
715.4	0
715.718	0
716.035	0
716.353	0
716.671	0
716.988	0
717.306	0
717.623	0
717.941	0
718.258	0
718.575	0
718.893	0
719.21	0
719.527	0
719.844	0
720.161	0
720.478	0
720.795	0
721.112	0
721.428	0
721.745	0
722.062	0
722.378	0
722.695	0
723.011	0
723.328	0
723.644	0
723.96	0
724.276	0
724.593	0
724.909	0.01
725.225	0
725.541	0.01
725.857	0.01
726.173	0
726.488	0.01
726.804	0
727.12	0
727.435	0
727.751	0.01
728.067	0
728.382	0
728.697	0.01
729.013	0.01
729.328	0.01
729.643	0.01
729.958	0
730.273	0.01
730.588	0.01
730.903	0.01
731.218	0.01
731.533	0
731.848	0
732.163	0
732.477	0
732.792	0
733.107	0
733.421	0
733.736	0
734.05	0
734.364	0
734.678	0.01
734.993	0
735.307	0
735.621	0
735.935	0
736.249	0
736.563	0
736.877	0.01
737.19	0.01
737.504	0.01
737.818	0
738.131	0
738.445	0.01
738.758	0.01
739.072	0.01
739.385	0.01
739.698	0.01
740.012	0.01
740.325	0.01
740.638	0.01
740.951	0.01
741.264	0
741.577	0.01
741.89	0.01
742.203	0.01
742.515	0.02
742.828	0.02
743.141	0.02
743.453	0.02
743.766	0.02
744.078	0.02
744.391	0.01
744.703	0.02
745.015	0.02
745.327	0.01
745.639	0.01
745.952	0.01
746.264	0.01
746.575	0.01
746.887	0.01
747.199	0.02
747.511	0.01
747.823	0.02
748.134	0.01
748.446	0.02
748.757	0.01
749.069	0.01
749.38	0.01
749.692	0.01
750.003	0.01
750.314	0.01
750.625	0.01
750.936	0.01
751.248	0.01
751.559	0.01
751.869	0
752.18	0
752.491	0
752.802	0
753.112	0.01
753.423	0
753.734	0
754.044	0
754.355	0
754.665	0
754.975	0
755.285	0
755.596	0
755.906	0
756.216	0
756.526	0
756.836	0
757.146	0
757.455	0
757.765	0
758.075	0
758.385	0
758.694	0
759.004	-0
759.313	0
759.622	0
759.932	0
760.241	0
760.55	0
760.859	0
761.168	0
761.477	0
761.786	0
762.095	0
762.404	0
762.713	0
763.021	0
763.33	0
763.639	0
763.947	0
764.256	0
764.564	0
764.872	0
765.181	0
765.489	0
765.797	0
766.105	0
766.413	0
766.721	0
767.029	0
767.337	0
767.644	0
767.952	0.01
768.26	0.01
768.567	0.01
768.875	0.01
769.182	0.01
769.49	0.01
769.797	0.01
770.104	0.01
770.411	0.01
770.718	0.01
771.026	0.01
771.333	0.01
771.639	0.01
771.946	0.01
772.253	0.01
772.56	0.01
772.867	0.01
773.173	0.01
773.48	0.01
773.786	0.01
774.093	0.01
774.399	0.01
774.705	0.01
775.012	0.01
775.318	0.02
775.624	0.01
775.93	0.02
776.236	0.01
776.542	0.01
776.848	0.01
777.154	0.01
777.459	0.01
777.765	0.01
778.071	0.01
778.376	0.01
778.682	0.01
778.987	0.01
779.292	0.01
779.598	0.01
779.903	0.01
780.208	0.01
780.513	0.01
780.818	0.01
781.123	0.01
781.428	0.01
781.733	0.01
782.038	0.01
782.343	0.01
782.647	0.01
782.952	0.01
783.256	0.01
783.561	0.01
783.865	0.01
784.17	0.01
784.474	0.02
784.778	0.01
785.082	0.01
785.386	0.01
785.69	0.01
785.994	0.01
786.298	0.01
786.602	0.01
786.906	0.01
787.209	0.01
787.513	0.01
787.817	0.01
788.12	0.01
788.424	0.01
788.727	0.01
789.03	0.01
789.333	0.01
789.637	0.01
789.94	0.01
790.243	0.01
790.546	0.01
790.849	0.02
791.152	0.01
791.454	0.02
791.757	0.02
792.06	0.01
792.362	0.02
792.665	0.02
792.967	0.01
793.27	0.01
793.572	0.01
793.874	0.01
794.177	0.01
794.479	0.01
794.781	0.01
795.083	0.01
795.385	0.01
795.687	0.01
795.989	0.01
796.29	0.01
796.592	0.01
796.894	0.01
797.195	0.02
797.497	0.02
797.798	0.02
798.1	0.01
798.401	0.01
798.702	0.01
799.003	0.01
799.304	0.01
799.605	0.02
799.906	0.01
800.207	0.01
800.508	0.02
800.809	0.02
801.11	0.02
801.41	0.02
801.711	0.02
802.011	0.02
802.312	0.01
802.612	0.02
802.913	0.01
803.213	0.01
803.513	0.01
803.813	0.01
804.113	0.01
804.413	0.01
804.713	0.01
805.013	0.01
805.313	0.01
805.613	0.01
805.912	0.01
806.212	0.02
806.511	0.02
806.811	0.02
807.11	0.01
807.41	0.02
807.709	0.02
808.008	0.01
808.307	0.02
808.606	0.02
808.905	0.01
809.204	0.02
809.503	0.02
809.802	0.01
810.101	0.01
810.399	0.01
810.698	0.01
810.997	0.01
811.295	0.01
811.593	0.01
811.892	0.01
812.19	0.01
812.488	0.01
812.786	0.01
813.084	0.01
813.383	0.01
813.68	0.01
813.978	0.01
814.276	0.01
814.574	0.02
814.872	0.01
815.169	0.02
815.467	0.02
815.764	0.02
816.062	0.02
816.359	0.02
816.656	0.02
816.954	0.02
817.251	0.02
817.548	0.02
817.845	0.02
818.142	0.02
818.439	0.02
818.735	0.02
819.032	0.02
819.329	0.02
819.626	0.02
819.922	0.02
820.219	0.02
820.515	0.02
820.811	0.02
821.108	0.02
821.404	0.02
821.7	0.02
821.996	0.02
822.292	0.02
822.588	0.02
822.884	0.02
823.18	0.02
823.475	0.02
823.771	0.02
824.067	0.02
824.362	0.02
824.658	0.02
824.953	0.02
825.249	0.02
825.544	0.01
825.839	0.01
826.134	0.02
826.429	0.02
826.724	0.03
827.019	0.02
827.314	0.02
827.609	0.02
827.904	0.02
828.198	0.02
828.493	0.02
828.787	0.02
829.082	0.02
829.376	0.02
829.671	0.02
829.965	0.02
830.259	0.02
830.553	0.02
830.847	0.02
831.141	0.03
831.435	0.02
831.729	0.02
832.023	0.02
832.317	0.02
832.61	0.02
832.904	0.02
833.197	0.02
833.491	0.02
833.784	0.02
834.077	0.02
834.371	0.02
834.664	0.03
834.957	0.03
835.25	0.03
835.543	0.03
835.836	0.02
836.129	0.02
836.421	0.02
836.714	0.02
837.007	0.03
837.299	0.03
837.592	0.02
837.884	0.02
838.177	0.02
838.469	0.02
838.761	0.02
839.053	0.02
839.345	0.02
839.637	0.02
839.929	0.02
840.221	0.02
840.513	0.03
840.805	0.03
841.096	0.02
841.388	0.03
841.68	0.03
841.971	0.03
842.262	0.02
842.554	0.02
842.845	0.02
843.136	0.02
843.427	0.02
843.718	0.01
844.009	0.02
844.3	0.02
844.591	0.03
844.882	0.03
845.173	0.02
845.463	0.02
845.754	0.03
846.044	0.03
846.335	0.03
846.625	0.01
846.915	0.03
847.206	0.02
847.496	0.02
847.786	0.02
848.076	0.03
848.366	0.02
848.656	0.01
848.945	0.03
849.235	0.02
849.525	0.02
849.814	0.02
850.104	0.02
850.393	0.01
850.683	0.03
850.972	0.02
851.261	0.02
851.551	0.03
851.84	0.03
852.129	0.03
852.418	0.02
852.707	0.02
852.995	0.03
853.284	0.03
853.573	0.02
853.862	0.03
854.15	0.03
854.439	0.02
854.727	0.03
855.015	0.02
855.304	0.04
855.592	0.04
855.88	0.03
856.168	0.03
856.456	0.05
856.744	0.03
857.032	0.04
857.32	0.04
857.607	0.03
857.895	0.04
858.183	0.04
858.47	0.03
858.757	0.01
859.045	0.01
859.332	0.03
859.619	0.03
859.907	0.04
860.194	0.05
860.481	0.04
860.768	0.04
861.054	0.05
861.341	0.04
861.628	0.03
861.915	0.04
862.201	0.02
862.488	0.03
862.774	0.04
863.061	0.03
863.347	0.04
863.633	0.03
863.919	0.05
864.205	0.03
864.491	0.02
864.777	0.01
865.063	0.02
865.349	0.02
865.635	0.01
865.92	0.01
866.206	0.02
866.492	0.02
866.777	0.03
867.062	0.01
867.348	0.03
867.633	0.03
867.918	0.03
868.203	0.03
868.488	0.03
868.773	0.02
869.058	0.05
869.343	0.01
869.628	0.03
869.912	0.03
870.197	0.03
870.482	0.02
870.766	0.03
871.05	0.01
871.335	0.02
871.619	0.02
871.903	0.01
872.187	-0
872.471	0.02
872.755	0.08
873.039	0.02
873.323	0.02
873.607	0
873.89	-0.01
874.174	0.03
874.458	0
874.741	0.04
875.024	0
875.308	0.01
875.591	-0.04
875.874	0.02
876.157	-0
876.44	0.02
876.723	0.01
877.006	0.03
877.289	-0
877.572	0.05
877.854	0.05
878.137	0.03
878.42	0.02
878.702	-0.01
878.984	-0.03
879.267	-0.01
879.549	-0.02
879.831	0.01
880.113	0.04
880.395	-0.07
880.677	0
880.959	-0.02
