Data from Rubpy_BV_600_EDTA_Buffered_Absorbance_12-49-05-604.txt Node
Date: Wed Jul 01 12:49:05 BST 2026
User: fpm-admin
Spectrometer: OFX00224
Trigger mode: 0
Integration Time (sec): 7.000000E-2
Scans to average: 3
Nonlinearity correction enabled: false
Boxcar width: 0
Storing dark spectrum: false
XAxis mode: Wavelengths
Number of Pixels in Spectrum: 2136
>>>>>Begin Spectral Data<<<<<
154.91	-0.23
155.289	-0
155.669	-0
156.048	-0
156.428	0.64
156.807	-0
157.186	-0.03
157.566	-0.7
157.945	0.24
158.325	0.15
158.704	-0
159.083	-0
159.462	-0
159.842	0.35
160.221	-0.04
160.6	-0
160.979	0.43
161.359	-0.28
161.738	0.9
162.117	-0
162.496	-0
162.875	-0
163.254	0.51
163.633	-0
164.012	0.4
164.391	-0.2
164.77	0.05
165.149	-0.12
165.528	-0
165.907	-0
166.286	-0
166.665	0.56
167.044	-0
167.423	-0.23
167.802	-0
168.181	-0.04
168.559	-0.2
168.938	-1.35
169.317	0.78
169.696	-0.7
170.074	0.78
170.453	-0.18
170.832	0.48
171.21	-0.95
171.589	-0
171.968	-0
172.346	0.71
172.725	-0
173.103	-0
173.482	-0
173.861	-0.6
174.239	-0
174.617	-0
174.996	-0
175.374	0.5
175.753	-0
176.131	-0
176.51	-0
176.888	0.66
177.266	-0
177.645	-0.09
178.023	1.59
178.401	-0.23
178.779	0.03
179.158	0.23
179.536	-0
179.914	-0.05
180.292	-0
180.67	0.06
181.048	0.77
181.427	-0.15
181.805	-0
182.183	0.3
182.561	-0
182.939	-0.16
183.317	-0
183.695	-0
184.073	1.07
184.451	-0
184.829	0.78
185.206	-0
185.584	0.47
185.962	-0
186.34	-0.28
186.718	-0.54
187.096	-0
187.473	0.24
187.851	-0.37
188.229	-0
188.607	0.03
188.984	0.04
189.362	0.06
189.74	0.07
190.117	0.08
190.495	0.02
190.872	0.01
191.25	0.1
191.627	0.01
192.005	0.18
192.382	0.08
192.76	0.1
193.137	0.07
193.515	0.01
193.892	0.17
194.269	0.02
194.647	0.09
195.024	0.02
195.401	0.05
195.779	0.06
196.156	0.06
196.533	0.13
196.91	0.15
197.288	-0.07
197.665	0.16
198.042	0.06
198.419	0.05
198.796	0.02
199.173	0.06
199.55	-0.03
199.927	0.15
200.304	0.09
200.681	0
201.058	-0.01
201.435	0.08
201.812	0.13
202.189	0.11
202.566	0.1
202.943	0.23
203.32	0.14
203.697	0.07
204.073	0.11
204.45	0.06
204.827	0.11
205.204	0.01
205.58	0.07
205.957	0.1
206.334	0.14
206.71	0.19
207.087	0.08
207.464	0.16
207.84	0.1
208.217	0.16
208.593	0.13
208.97	0.21
209.346	0.12
209.723	0.04
210.099	0.07
210.476	0.12
210.852	0.06
211.228	0.14
211.605	0.06
211.981	0.14
212.357	-0.01
212.733	0.12
213.11	0.27
213.486	-0.01
213.862	0.18
214.238	0.02
214.614	0.1
214.991	0.17
215.367	0.16
215.743	0.1
216.119	0.06
216.495	0.15
216.871	0.17
217.247	0.07
217.623	0.05
217.999	0.1
218.375	0.07
218.751	0.22
219.127	0.08
219.502	0.08
219.878	0.08
220.254	0.1
220.63	0.03
221.006	0.09
221.381	0.16
221.757	0.13
222.133	0.11
222.508	0.18
222.884	0.17
223.26	0.17
223.635	0.08
224.011	0.13
224.386	0.09
224.762	0.13
225.137	0.13
225.513	0.05
225.888	0.04
226.264	0.06
226.639	0.12
227.014	0.1
227.39	0.08
227.765	0.17
228.14	0.15
228.516	0.15
228.891	0.12
229.266	0.14
229.641	0.16
230.017	0.16
230.392	0.25
230.767	0.11
231.142	0.19
231.517	0.05
231.892	0.2
232.267	0.18
232.642	0.08
233.017	0.12
233.392	0.06
233.767	0.22
234.142	0.13
234.517	0.07
234.892	0.15
235.267	0.16
235.641	0.2
236.016	0.17
236.391	0.2
236.766	0.18
237.14	0.21
237.515	0.13
237.89	0.1
238.264	0.05
238.639	0.08
239.014	0.18
239.388	0.13
239.763	0.14
240.137	0.13
240.512	0.13
240.886	0.06
241.261	0.16
241.635	0.19
242.009	0.19
242.384	0.13
242.758	0.16
243.132	0.21
243.507	0.12
243.881	0.07
244.255	0.15
244.629	0.11
245.004	0.16
245.378	0.1
245.752	0.12
246.126	0.17
246.5	0.07
246.874	0.07
247.248	0.17
247.622	0.08
247.996	0.07
248.37	0.11
248.744	0.14
249.118	0.09
249.492	0.1
249.866	0.06
250.24	0.15
250.613	0.21
250.987	0.13
251.361	0.11
251.735	0.08
252.108	0.17
252.482	0.17
252.856	0.06
253.229	0.08
253.603	0.13
253.977	0.13
254.35	0.12
254.724	0.15
255.097	0.19
255.471	0.15
255.844	0.17
256.218	0.14
256.591	0.12
256.964	0.13
257.338	0.1
257.711	0.24
258.084	0.16
258.458	0.19
258.831	0.15
259.204	0.13
259.577	0.15
259.95	0.17
260.323	0.2
260.697	0.1
261.07	0.11
261.443	0.16
261.816	0.12
262.189	0.1
262.562	0.14
262.935	0.13
263.308	0.12
263.68	0.2
264.053	0.14
264.426	0.11
264.799	0.15
265.172	0.11
265.545	0.15
265.917	0.18
266.29	0.11
266.663	0.17
267.035	0.2
267.408	0.18
267.781	0.17
268.153	0.19
268.526	0.16
268.898	0.15
269.271	0.17
269.643	0.11
270.016	0.18
270.388	0.19
270.76	0.07
271.133	0.14
271.505	0.16
271.877	0.14
272.25	0.15
272.622	0.24
272.994	0.14
273.366	0.14
273.739	0.15
274.111	0.17
274.483	0.2
274.855	0.16
275.227	0.16
275.599	0.12
275.971	0.11
276.343	0.2
276.715	0.28
277.087	0.16
277.459	0.16
277.831	0.16
278.203	0.19
278.574	0.21
278.946	0.2
279.318	0.15
279.69	0.18
280.061	0.2
280.433	0.19
280.805	0.19
281.176	0.18
281.548	0.15
281.92	0.09
282.291	0.19
282.663	0.16
283.034	0.19
283.406	0.22
283.777	0.24
284.148	0.17
284.52	0.12
284.891	0.17
285.262	0.18
285.634	0.16
286.005	0.2
286.376	0.25
286.747	0.16
287.119	0.12
287.49	0.14
287.861	0.17
288.232	0.08
288.603	0.19
288.974	0.19
289.345	0.17
289.716	0.2
290.087	0.22
290.458	0.18
290.829	0.14
291.2	0.12
291.571	0.16
291.941	0.17
292.312	0.23
292.683	0.16
293.054	0.21
293.424	0.16
293.795	0.18
294.166	0.12
294.536	0.16
294.907	0.21
295.277	0.18
295.648	0.18
296.018	0.18
296.389	0.17
296.759	0.14
297.13	0.14
297.5	0.2
297.871	0.17
298.241	0.16
298.611	0.19
298.981	0.18
299.352	0.18
299.722	0.15
300.092	0.14
300.462	0.07
300.832	0.16
301.202	0.17
301.573	0.1
301.943	0.1
302.313	0.13
302.683	0.13
303.053	0.14
303.422	0.07
303.792	0.09
304.162	0.09
304.532	0.07
304.902	0.1
305.272	0.09
305.641	0.12
306.011	0.07
306.381	0.06
306.75	0.07
307.12	0.09
307.49	0.09
307.859	0.1
308.229	0.09
308.598	0.09
308.968	0.1
309.337	0.11
309.707	0.08
310.076	0.12
310.445	0.1
310.815	0.11
311.184	0.1
311.553	0.11
311.923	0.12
312.292	0.13
312.661	0.12
313.03	0.12
313.399	0.12
313.768	0.13
314.137	0.14
314.506	0.13
314.875	0.14
315.244	0.16
315.613	0.15
315.982	0.15
316.351	0.16
316.72	0.15
317.089	0.16
317.458	0.16
317.826	0.16
318.195	0.17
318.564	0.17
318.933	0.17
319.301	0.18
319.67	0.18
320.038	0.19
320.407	0.18
320.775	0.18
321.144	0.19
321.512	0.18
321.881	0.19
322.249	0.2
322.618	0.2
322.986	0.2
323.354	0.2
323.723	0.21
324.091	0.21
324.459	0.21
324.827	0.22
325.195	0.22
325.564	0.22
325.932	0.23
326.3	0.23
326.668	0.23
327.036	0.22
327.404	0.23
327.772	0.24
328.14	0.25
328.508	0.25
328.875	0.25
329.243	0.25
329.611	0.25
329.979	0.26
330.346	0.27
330.714	0.27
331.082	0.27
331.449	0.28
331.817	0.28
332.185	0.28
332.552	0.29
332.92	0.29
333.287	0.3
333.655	0.31
334.022	0.31
334.389	0.32
334.757	0.33
335.124	0.33
335.491	0.34
335.859	0.34
336.226	0.35
336.593	0.35
336.96	0.37
337.327	0.37
337.695	0.38
338.062	0.38
338.429	0.39
338.796	0.4
339.163	0.4
339.53	0.41
339.897	0.42
340.263	0.42
340.63	0.43
340.997	0.44
341.364	0.44
341.731	0.45
342.097	0.46
342.464	0.47
342.831	0.47
343.197	0.48
343.564	0.49
343.931	0.5
344.297	0.51
344.664	0.51
345.03	0.52
345.396	0.53
345.763	0.53
346.129	0.54
346.496	0.55
346.862	0.57
347.228	0.57
347.594	0.58
347.961	0.58
348.327	0.6
348.693	0.6
349.059	0.61
349.425	0.61
349.791	0.62
350.157	0.63
350.523	0.64
350.889	0.64
351.255	0.65
351.621	0.66
351.987	0.67
352.353	0.67
352.719	0.68
353.084	0.69
353.45	0.69
353.816	0.71
354.181	0.71
354.547	0.73
354.913	0.73
355.278	0.74
355.644	0.75
356.009	0.76
356.375	0.77
356.74	0.77
357.106	0.79
357.471	0.8
357.836	0.81
358.202	0.83
358.567	0.83
358.932	0.84
359.297	0.85
359.663	0.87
360.028	0.89
360.393	0.89
360.758	0.89
361.123	0.92
361.488	0.92
361.853	0.94
362.218	0.95
362.583	0.96
362.948	0.97
363.312	0.98
363.677	0.99
364.042	1
364.407	1.01
364.772	1.03
365.136	1.03
365.501	1.04
365.865	1.05
366.23	1.06
366.595	1.06
366.959	1.08
367.324	1.1
367.688	1.1
368.052	1.11
368.417	1.12
368.781	1.11
369.145	1.13
369.51	1.16
369.874	1.16
370.238	1.15
370.602	1.16
370.967	1.18
371.331	1.18
371.695	1.17
372.059	1.18
372.423	1.18
372.787	1.17
373.151	1.19
373.515	1.18
373.878	1.18
374.242	1.17
374.606	1.18
374.97	1.15
375.334	1.14
375.697	1.15
376.061	1.13
376.425	1.13
376.788	1.11
377.152	1.11
377.515	1.1
377.879	1.08
378.242	1.07
378.606	1.06
378.969	1.05
379.333	1.04
379.696	1.03
380.059	1.02
380.422	1
380.786	1
381.149	0.99
381.512	0.97
381.875	0.97
382.238	0.96
382.601	0.94
382.964	0.95
383.327	0.94
383.69	0.92
384.053	0.91
384.416	0.91
384.779	0.9
385.142	0.9
385.504	0.88
385.867	0.89
386.23	0.88
386.593	0.88
386.955	0.88
387.318	0.89
387.68	0.88
388.043	0.88
388.405	0.89
388.768	0.88
389.13	0.88
389.493	0.88
389.855	0.87
390.217	0.86
390.58	0.86
390.942	0.86
391.304	0.84
391.666	0.84
392.028	0.83
392.391	0.82
392.753	0.81
393.115	0.8
393.477	0.79
393.839	0.79
394.201	0.77
394.563	0.78
394.924	0.77
395.286	0.77
395.648	0.78
396.01	0.77
396.371	0.79
396.733	0.8
397.095	0.81
397.456	0.83
397.818	0.85
398.18	0.87
398.541	0.88
398.903	0.91
399.264	0.93
399.625	0.96
399.987	0.97
400.348	1.01
400.709	1
401.071	1.01
401.432	1.02
401.793	1.01
402.154	1.01
402.515	1
402.876	0.99
403.238	0.97
403.599	0.95
403.96	0.92
404.32	0.88
404.681	0.86
405.042	0.81
405.403	0.79
405.764	0.74
406.125	0.72
406.485	0.68
406.846	0.64
407.207	0.61
407.567	0.57
407.928	0.55
408.288	0.51
408.649	0.48
409.009	0.46
409.37	0.43
409.73	0.4
410.091	0.38
410.451	0.36
410.811	0.34
411.171	0.33
411.532	0.31
411.892	0.29
412.252	0.28
412.612	0.27
412.972	0.25
413.332	0.24
413.692	0.24
414.052	0.22
414.412	0.21
414.772	0.2
415.132	0.2
415.492	0.19
415.851	0.18
416.211	0.18
416.571	0.17
416.931	0.17
417.29	0.16
417.65	0.16
418.009	0.15
418.369	0.15
418.728	0.15
419.088	0.14
419.447	0.14
419.807	0.13
420.166	0.12
420.525	0.13
420.884	0.13
421.244	0.12
421.603	0.12
421.962	0.12
422.321	0.12
422.68	0.12
423.039	0.12
423.398	0.11
423.757	0.1
424.116	0.12
424.475	0.11
424.834	0.1
425.193	0.1
425.551	0.09
425.91	0.09
426.269	0.11
426.628	0.1
426.986	0.11
427.345	0.1
427.703	0.1
428.062	0.1
428.42	0.1
428.779	0.09
429.137	0.09
429.496	0.09
429.854	0.09
430.212	0.09
430.57	0.09
430.929	0.09
431.287	0.08
431.645	0.09
432.003	0.09
432.361	0.09
432.719	0.08
433.077	0.09
433.435	0.08
433.793	0.09
434.151	0.08
434.509	0.09
434.866	0.09
435.224	0.08
435.582	0.09
435.94	0.09
436.297	0.08
436.655	0.09
437.012	0.09
437.37	0.09
437.727	0.08
438.085	0.08
438.442	0.09
438.8	0.08
439.157	0.07
439.514	0.08
439.872	0.08
440.229	0.08
440.586	0.07
440.943	0.09
441.3	0.08
441.657	0.08
442.014	0.08
442.371	0.08
442.728	0.08
443.085	0.09
443.442	0.08
443.799	0.08
444.156	0.08
444.513	0.08
444.869	0.09
445.226	0.08
445.583	0.09
445.939	0.08
446.296	0.08
446.652	0.08
447.009	0.08
447.365	0.09
447.722	0.08
448.078	0.08
448.434	0.08
448.791	0.09
449.147	0.09
449.503	0.08
449.859	0.09
450.215	0.09
450.571	0.08
450.928	0.08
451.284	0.08
451.64	0.08
451.995	0.08
452.351	0.08
452.707	0.08
453.063	0.07
453.419	0.08
453.775	0.08
454.13	0.09
454.486	0.09
454.842	0.08
455.197	0.08
455.553	0.08
455.908	0.08
456.264	0.09
456.619	0.08
456.975	0.08
457.33	0.08
457.685	0.08
458.04	0.08
458.396	0.08
458.751	0.07
459.106	0.07
459.461	0.08
459.816	0.07
460.171	0.07
460.526	0.07
460.881	0.08
461.236	0.07
461.591	0.06
461.946	0.07
462.301	0.07
462.655	0.06
463.01	0.07
463.365	0.06
463.719	0.05
464.074	0.06
464.428	0.05
464.783	0.06
465.137	0.06
465.492	0.05
465.846	0.06
466.201	0.06
466.555	0.06
466.909	0.06
467.263	0.07
467.618	0.06
467.972	0.07
468.326	0.07
468.68	0.06
469.034	0.06
469.388	0.06
469.742	0.06
470.096	0.07
470.45	0.07
470.804	0.07
471.157	0.08
471.511	0.07
471.865	0.08
472.218	0.07
472.572	0.07
472.926	0.08
473.279	0.09
473.633	0.1
473.986	0.1
474.34	0.1
474.693	0.11
475.046	0.1
475.4	0.11
475.753	0.12
476.106	0.12
476.459	0.13
476.812	0.14
477.165	0.14
477.519	0.15
477.872	0.15
478.224	0.15
478.577	0.16
478.93	0.16
479.283	0.16
479.636	0.17
479.989	0.17
480.341	0.17
480.694	0.18
481.047	0.18
481.399	0.19
481.752	0.2
482.104	0.19
482.457	0.19
482.809	0.2
483.162	0.2
483.514	0.2
483.866	0.21
484.219	0.21
484.571	0.21
484.923	0.21
485.275	0.22
485.627	0.22
485.979	0.22
486.331	0.23
486.683	0.23
487.035	0.23
487.387	0.23
487.739	0.23
488.091	0.24
488.443	0.25
488.794	0.24
489.146	0.25
489.498	0.25
489.849	0.25
490.201	0.25
490.552	0.25
490.904	0.26
491.255	0.26
491.607	0.26
491.958	0.26
492.309	0.27
492.661	0.28
493.012	0.27
493.363	0.27
493.714	0.28
494.065	0.27
494.416	0.28
494.767	0.29
495.118	0.28
495.469	0.29
495.82	0.29
496.171	0.29
496.522	0.3
496.872	0.3
497.223	0.3
497.574	0.31
497.924	0.31
498.275	0.31
498.626	0.31
498.976	0.32
499.327	0.32
499.677	0.32
500.027	0.32
500.378	0.32
500.728	0.33
501.078	0.33
501.428	0.33
501.779	0.33
502.129	0.33
502.479	0.34
502.829	0.34
503.179	0.34
503.529	0.35
503.879	0.35
504.229	0.35
504.578	0.35
504.928	0.35
505.278	0.36
505.628	0.36
505.977	0.36
506.327	0.36
506.676	0.36
507.026	0.37
507.375	0.37
507.725	0.37
508.074	0.37
508.424	0.38
508.773	0.38
509.122	0.39
509.471	0.38
509.82	0.39
510.17	0.39
510.519	0.38
510.868	0.39
511.217	0.39
511.566	0.39
511.915	0.4
512.263	0.4
512.612	0.4
512.961	0.41
513.31	0.41
513.659	0.41
514.007	0.41
514.356	0.42
514.704	0.41
515.053	0.42
515.401	0.41
515.75	0.42
516.098	0.42
516.447	0.42
516.795	0.43
517.143	0.43
517.491	0.43
517.839	0.43
518.188	0.44
518.536	0.44
518.884	0.44
519.232	0.44
519.58	0.44
519.928	0.45
520.275	0.45
520.623	0.44
520.971	0.45
521.319	0.45
521.666	0.45
522.014	0.45
522.362	0.46
522.709	0.46
523.057	0.46
523.404	0.46
523.752	0.47
524.099	0.46
524.446	0.47
524.794	0.47
525.141	0.48
525.488	0.47
525.835	0.47
526.182	0.47
526.529	0.47
526.876	0.48
527.223	0.48
527.57	0.48
527.917	0.48
528.264	0.48
528.611	0.49
528.958	0.49
529.304	0.49
529.651	0.49
529.998	0.49
530.344	0.49
530.691	0.49
531.037	0.5
531.384	0.49
531.73	0.49
532.076	0.5
532.423	0.5
532.769	0.5
533.115	0.5
533.461	0.5
533.807	0.5
534.154	0.5
534.5	0.5
534.846	0.51
535.192	0.51
535.537	0.51
535.883	0.51
536.229	0.51
536.575	0.5
536.921	0.52
537.266	0.51
537.612	0.52
537.957	0.52
538.303	0.51
538.649	0.52
538.994	0.51
539.339	0.52
539.685	0.52
540.03	0.52
540.375	0.52
540.721	0.52
541.066	0.52
541.411	0.53
541.756	0.53
542.101	0.53
542.446	0.53
542.791	0.53
543.136	0.53
543.481	0.53
543.825	0.53
544.17	0.53
544.515	0.53
544.86	0.54
545.204	0.54
545.549	0.53
545.893	0.54
546.238	0.54
546.582	0.54
546.927	0.54
547.271	0.54
547.615	0.54
547.96	0.54
548.304	0.54
548.648	0.54
548.992	0.55
549.336	0.54
549.68	0.55
550.024	0.55
550.368	0.55
550.712	0.54
551.056	0.55
551.4	0.55
551.743	0.55
552.087	0.55
552.431	0.55
552.774	0.55
553.118	0.55
553.462	0.54
553.805	0.54
554.148	0.55
554.492	0.55
554.835	0.55
555.178	0.55
555.522	0.54
555.865	0.54
556.208	0.54
556.551	0.54
556.894	0.55
557.237	0.54
557.58	0.55
557.923	0.55
558.266	0.55
558.609	0.55
558.952	0.54
559.294	0.54
559.637	0.54
559.98	0.55
560.322	0.55
560.665	0.54
561.007	0.54
561.35	0.54
561.692	0.54
562.034	0.54
562.377	0.54
562.719	0.54
563.061	0.54
563.403	0.54
563.745	0.54
564.088	0.54
564.43	0.54
564.772	0.54
565.113	0.54
565.455	0.54
565.797	0.54
566.139	0.54
566.481	0.53
566.822	0.53
567.164	0.53
567.506	0.53
567.847	0.53
568.189	0.54
568.53	0.53
568.872	0.53
569.213	0.53
569.554	0.53
569.895	0.53
570.237	0.53
570.578	0.53
570.919	0.53
571.26	0.52
571.601	0.52
571.942	0.52
572.283	0.52
572.624	0.52
572.965	0.52
573.306	0.51
573.646	0.51
573.987	0.51
574.328	0.51
574.668	0.51
575.009	0.51
575.349	0.5
575.69	0.49
576.03	0.49
576.37	0.48
576.711	0.47
577.051	0.48
577.391	0.48
577.731	0.49
578.072	0.49
578.412	0.48
578.752	0.48
579.092	0.47
579.431	0.44
579.771	0.42
580.111	0.4
580.451	0.41
580.791	0.44
581.13	0.46
581.47	0.47
581.81	0.47
582.149	0.46
582.489	0.47
582.828	0.44
583.167	0.4
583.507	0.36
583.846	0.35
584.185	0.37
584.525	0.4
584.864	0.43
585.203	0.46
585.542	0.48
585.881	0.48
586.22	0.48
586.559	0.45
586.898	0.42
587.236	0.41
587.575	0.41
587.914	0.42
588.252	0.44
588.591	0.45
588.93	0.45
589.268	0.44
589.607	0.44
589.945	0.44
590.283	0.45
590.622	0.46
590.96	0.47
591.298	0.48
591.636	0.48
591.974	0.48
592.313	0.48
592.651	0.48
592.989	0.48
593.326	0.48
593.664	0.49
594.002	0.48
594.34	0.47
594.678	0.46
595.015	0.43
595.353	0.42
595.691	0.43
596.028	0.45
596.366	0.47
596.703	0.47
597.04	0.48
597.378	0.48
597.715	0.48
598.052	0.49
598.389	0.48
598.726	0.48
599.064	0.48
599.401	0.48
599.738	0.47
600.074	0.48
600.411	0.47
600.748	0.45
601.085	0.44
601.422	0.43
601.758	0.43
602.095	0.44
602.432	0.44
602.768	0.44
603.105	0.46
603.441	0.47
603.777	0.47
604.114	0.48
604.45	0.48
604.786	0.48
605.122	0.48
605.459	0.47
605.795	0.46
606.131	0.46
606.467	0.46
606.803	0.47
607.139	0.47
607.474	0.46
607.81	0.45
608.146	0.46
608.482	0.45
608.817	0.45
609.153	0.45
609.488	0.44
609.824	0.45
610.159	0.45
610.495	0.45
610.83	0.46
611.165	0.45
611.5	0.46
611.836	0.45
612.171	0.45
612.506	0.45
612.841	0.45
613.176	0.45
613.511	0.45
613.845	0.45
614.18	0.45
614.515	0.45
614.85	0.44
615.184	0.44
615.519	0.44
615.854	0.44
616.188	0.43
616.523	0.43
616.857	0.43
617.191	0.43
617.526	0.43
617.86	0.43
618.194	0.43
618.528	0.43
618.862	0.43
619.196	0.42
619.53	0.43
619.864	0.42
620.198	0.42
620.532	0.42
620.866	0.42
621.2	0.42
621.533	0.42
621.867	0.42
622.201	0.41
622.534	0.41
622.868	0.42
623.201	0.41
623.534	0.41
623.868	0.41
624.201	0.4
624.534	0.4
624.868	0.4
625.201	0.4
625.534	0.4
625.867	0.4
626.2	0.39
626.533	0.39
626.865	0.39
627.198	0.39
627.531	0.39
627.864	0.38
628.196	0.38
628.529	0.38
628.862	0.38
629.194	0.37
629.527	0.37
629.859	0.37
630.191	0.37
630.524	0.37
630.856	0.37
631.188	0.36
631.52	0.36
631.852	0.36
632.184	0.36
632.516	0.36
632.848	0.36
633.18	0.35
633.512	0.35
633.844	0.35
634.175	0.35
634.507	0.35
634.839	0.34
635.17	0.34
635.502	0.34
635.833	0.33
636.165	0.33
636.496	0.33
636.827	0.33
637.159	0.33
637.49	0.32
637.821	0.32
638.152	0.32
638.483	0.31
638.814	0.31
639.145	0.31
639.476	0.31
639.807	0.31
640.137	0.3
640.468	0.3
640.799	0.3
641.129	0.3
641.46	0.3
641.791	0.3
642.121	0.29
642.451	0.29
642.782	0.29
643.112	0.29
643.442	0.29
643.773	0.29
644.103	0.28
644.433	0.28
644.763	0.28
645.093	0.28
645.423	0.28
645.753	0.27
646.082	0.27
646.412	0.27
646.742	0.27
647.072	0.27
647.401	0.27
647.731	0.26
648.06	0.27
648.39	0.26
648.719	0.26
649.048	0.26
649.378	0.26
649.707	0.26
650.036	0.26
650.365	0.26
650.694	0.25
651.023	0.25
651.352	0.25
651.681	0.25
652.01	0.25
652.339	0.25
652.668	0.25
652.996	0.25
653.325	0.25
653.654	0.25
653.982	0.25
654.311	0.24
654.639	0.24
654.967	0.25
655.296	0.24
655.624	0.24
655.952	0.24
656.28	0.24
656.609	0.24
656.937	0.24
657.265	0.23
657.593	0.08
657.92	0
658.248	0
658.576	0
658.904	0.05
659.231	0.13
659.559	0.19
659.887	0.23
660.214	0.23
660.542	0.23
660.869	0.23
661.196	0.23
661.524	0.23
661.851	0.23
662.178	0.23
662.505	0.23
662.832	0.22
663.159	0.22
663.486	0.22
663.813	0.22
664.14	0.22
664.467	0.22
664.794	0.22
665.12	0.22
665.447	0.22
665.774	0.22
666.1	0.22
666.427	0.22
666.753	0.21
667.079	0.21
667.406	0.21
667.732	0.21
668.058	0.21
668.384	0.21
668.71	0.21
669.036	0.21
669.362	0.21
669.688	0.2
670.014	0.2
670.34	0.2
670.666	0.2
670.991	0.2
671.317	0.2
671.643	0.19
671.968	0.19
672.294	0.19
672.619	0.19
672.945	0.18
673.27	0.18
673.595	0.18
673.92	0.17
674.246	0.17
674.571	0.17
674.896	0.17
675.221	0.17
675.546	0.17
675.87	0.17
676.195	0.17
676.52	0.17
676.845	0.17
677.169	0.17
677.494	0.17
677.819	0.17
678.143	0.16
678.468	0.16
678.792	0.15
679.116	0.15
679.44	0.15
679.765	0.15
680.089	0.14
680.413	0.14
680.737	0.14
681.061	0.13
681.385	0.13
681.709	0.12
682.033	0.12
682.356	0.12
682.68	0.12
683.004	0.12
683.327	0.12
683.651	0.11
683.974	0.11
684.298	0.12
684.621	0.12
684.944	0.12
685.268	0.11
685.591	0.11
685.914	0.1
686.237	0.09
686.56	0.09
686.883	0.08
687.206	0.07
687.529	0.07
687.852	0.06
688.175	0.06
688.497	0.07
688.82	0.07
689.142	0.07
689.465	0.07
689.787	0.07
690.11	0.07
690.432	0.07
690.755	0.07
691.077	0.07
691.399	0.06
691.721	0.06
692.043	0.06
692.365	0.06
692.687	0.06
693.009	0.05
693.331	0.04
693.653	0.04
693.974	0.05
694.296	0.04
694.618	0.05
694.939	0.05
695.261	0.04
695.582	0.04
695.904	0.04
696.225	0.05
696.546	0.05
696.868	0.05
697.189	0.04
697.51	0.04
697.831	0.03
698.152	0.04
698.473	0.03
698.794	0.02
699.114	0.02
699.435	0.01
699.756	0.01
700.077	0.02
700.397	0.02
700.718	0.03
701.038	0.03
701.359	0.03
701.679	0.03
701.999	0.04
702.32	0.03
702.64	0.03
702.96	0.03
703.28	0.03
703.6	0.03
703.92	0.02
704.24	0.02
704.56	0.02
704.879	0.01
705.199	0.02
705.519	0.02
705.838	0.02
706.158	0.02
706.478	0.02
706.797	0.02
707.116	0.02
707.436	0.02
707.755	0.02
708.074	0.02
708.393	0.01
708.712	0.01
709.031	0
709.35	0
709.669	0
709.988	0
710.307	0.01
710.626	0.01
710.944	0.01
711.263	0.01
711.582	0.01
711.9	0.01
712.219	0.01
712.537	0.01
712.855	0.01
713.174	0.01
713.492	0.01
713.81	0.01
714.128	0.01
714.446	0.01
714.764	0.01
715.082	0.01
715.4	0.01
715.718	0.01
716.035	0.01
716.353	0.01
716.671	0.01
716.988	0.01
717.306	0.01
717.623	0.01
717.941	0.01
718.258	0.02
718.575	0.02
718.893	0.02
719.21	0.02
719.527	0.02
719.844	0.01
720.161	0.02
720.478	0.01
720.795	0.01
721.112	0.02
721.428	0.02
721.745	0.02
722.062	0.02
722.378	0.02
722.695	0.02
723.011	0.02
723.328	0.02
723.644	0.02
723.96	0.02
724.276	0.02
724.593	0.02
724.909	0.03
725.225	0.02
725.541	0.03
725.857	0.03
726.173	0.03
726.488	0.04
726.804	0.03
727.12	0.03
727.435	0.03
727.751	0.03
728.067	0.02
728.382	0.03
728.697	0.03
729.013	0.03
729.328	0.03
729.643	0.03
729.958	0.03
730.273	0.03
730.588	0.03
730.903	0.03
731.218	0.03
731.533	0.03
731.848	0.03
732.163	0.03
732.477	0.02
732.792	0.02
733.107	0.01
733.421	0.02
733.736	0.02
734.05	0.03
734.364	0.02
734.678	0.03
734.993	0.02
735.307	0.03
735.621	0.02
735.935	0.02
736.249	0.02
736.563	0.02
736.877	0.03
737.19	0.03
737.504	0.03
737.818	0.02
738.131	0.02
738.445	0.03
738.758	0.03
739.072	0.03
739.385	0.04
739.698	0.04
740.012	0.04
740.325	0.04
740.638	0.04
740.951	0.03
741.264	0.03
741.577	0.03
741.89	0.04
742.203	0.04
742.515	0.05
742.828	0.05
743.141	0.04
743.453	0.05
743.766	0.04
744.078	0.04
744.391	0.03
744.703	0.04
745.015	0.04
745.327	0.04
745.639	0.04
745.952	0.04
746.264	0.03
746.575	0.04
746.887	0.04
747.199	0.04
747.511	0.03
747.823	0.04
748.134	0.04
748.446	0.04
748.757	0.04
749.069	0.03
749.38	0.03
749.692	0.03
750.003	0.03
750.314	0.03
750.625	0.03
750.936	0.02
751.248	0.02
751.559	0.02
751.869	0.02
752.18	0.02
752.491	0.02
752.802	0.02
753.112	0.02
753.423	0.02
753.734	0.02
754.044	0.02
754.355	0.02
754.665	0.02
754.975	0.01
755.285	0.01
755.596	0.01
755.906	0.01
756.216	0.01
756.526	0.01
756.836	0.01
757.146	0.01
757.455	0.01
757.765	0.01
758.075	0.01
758.385	0
758.694	0
759.004	0
759.313	0
759.622	0
759.932	0
760.241	0.01
760.55	0.01
760.859	0.01
761.168	0.01
761.477	0.01
761.786	0.01
762.095	0.01
762.404	0
762.713	0.01
763.021	0.01
763.33	0.01
763.639	0.01
763.947	0.02
764.256	0.01
764.564	0.02
764.872	0.01
765.181	0.01
765.489	0.01
765.797	0.01
766.105	0.01
766.413	0.01
766.721	0.01
767.029	0.01
767.337	0.01
767.644	0.02
767.952	0.02
768.26	0.02
768.567	0.02
768.875	0.02
769.182	0.02
769.49	0.03
769.797	0.02
770.104	0.03
770.411	0.03
770.718	0.03
771.026	0.03
771.333	0.03
771.639	0.03
771.946	0.03
772.253	0.03
772.56	0.03
772.867	0.03
773.173	0.03
773.48	0.03
773.786	0.03
774.093	0.03
774.399	0.03
774.705	0.03
775.012	0.03
775.318	0.03
775.624	0.03
775.93	0.03
776.236	0.03
776.542	0.03
776.848	0.03
777.154	0.03
777.459	0.03
777.765	0.03
778.071	0.02
778.376	0.03
778.682	0.03
778.987	0.03
779.292	0.03
779.598	0.03
779.903	0.03
780.208	0.03
780.513	0.03
780.818	0.03
781.123	0.03
781.428	0.03
781.733	0.03
782.038	0.03
782.343	0.03
782.647	0.03
782.952	0.03
783.256	0.03
783.561	0.03
783.865	0.04
784.17	0.03
784.474	0.04
784.778	0.03
785.082	0.03
785.386	0.03
785.69	0.03
785.994	0.03
786.298	0.03
786.602	0.03
786.906	0.03
787.209	0.03
787.513	0.03
787.817	0.03
788.12	0.03
788.424	0.03
788.727	0.03
789.03	0.03
789.333	0.02
789.637	0.03
789.94	0.03
790.243	0.03
790.546	0.03
790.849	0.03
791.152	0.03
791.454	0.03
791.757	0.04
792.06	0.03
792.362	0.04
792.665	0.03
792.967	0.03
793.27	0.03
793.572	0.03
793.874	0.03
794.177	0.03
794.479	0.03
794.781	0.03
795.083	0.03
795.385	0.03
795.687	0.04
795.989	0.04
796.29	0.04
796.592	0.04
796.894	0.04
797.195	0.04
797.497	0.04
797.798	0.04
798.1	0.04
798.401	0.04
798.702	0.04
799.003	0.04
799.304	0.04
799.605	0.04
799.906	0.04
800.207	0.04
800.508	0.04
800.809	0.04
801.11	0.04
801.41	0.04
801.711	0.04
802.011	0.04
802.312	0.04
802.612	0.04
802.913	0.04
803.213	0.04
803.513	0.04
803.813	0.03
804.113	0.04
804.413	0.04
804.713	0.04
805.013	0.03
805.313	0.04
805.613	0.04
805.912	0.04
806.212	0.04
806.511	0.04
806.811	0.04
807.11	0.04
807.41	0.04
807.709	0.04
808.008	0.04
808.307	0.04
808.606	0.04
808.905	0.04
809.204	0.04
809.503	0.04
809.802	0.04
810.101	0.04
810.399	0.04
810.698	0.04
810.997	0.04
811.295	0.04
811.593	0.04
811.892	0.04
812.19	0.04
812.488	0.04
812.786	0.04
813.084	0.04
813.383	0.04
813.68	0.04
813.978	0.04
814.276	0.04
814.574	0.04
814.872	0.04
815.169	0.05
815.467	0.05
815.764	0.04
816.062	0.05
816.359	0.05
816.656	0.05
816.954	0.05
817.251	0.05
817.548	0.05
817.845	0.05
818.142	0.05
818.439	0.05
818.735	0.05
819.032	0.05
819.329	0.05
819.626	0.05
819.922	0.05
820.219	0.05
820.515	0.05
820.811	0.05
821.108	0.05
821.404	0.05
821.7	0.05
821.996	0.06
822.292	0.05
822.588	0.05
822.884	0.06
823.18	0.06
823.475	0.05
823.771	0.06
824.067	0.06
824.362	0.06
824.658	0.06
824.953	0.06
825.249	0.05
825.544	0.05
825.839	0.05
826.134	0.05
826.429	0.05
826.724	0.05
827.019	0.05
827.314	0.05
827.609	0.05
827.904	0.05
828.198	0.06
828.493	0.05
828.787	0.05
829.082	0.05
829.376	0.06
829.671	0.06
829.965	0.06
830.259	0.06
830.553	0.06
830.847	0.06
831.141	0.07
831.435	0.06
831.729	0.06
832.023	0.06
832.317	0.06
832.61	0.05
832.904	0.06
833.197	0.06
833.491	0.06
833.784	0.06
834.077	0.06
834.371	0.06
834.664	0.06
834.957	0.06
835.25	0.07
835.543	0.07
835.836	0.06
836.129	0.06
836.421	0.06
836.714	0.07
837.007	0.07
837.299	0.07
837.592	0.06
837.884	0.06
838.177	0.06
838.469	0.06
838.761	0.06
839.053	0.06
839.345	0.06
839.637	0.06
839.929	0.06
840.221	0.06
840.513	0.07
840.805	0.07
841.096	0.07
841.388	0.07
841.68	0.07
841.971	0.07
842.262	0.06
842.554	0.06
842.845	0.06
843.136	0.06
843.427	0.06
843.718	0.06
844.009	0.06
844.3	0.07
844.591	0.08
844.882	0.07
845.173	0.06
845.463	0.07
845.754	0.07
846.044	0.07
846.335	0.08
846.625	0.07
846.915	0.08
847.206	0.07
847.496	0.07
847.786	0.07
848.076	0.08
848.366	0.06
848.656	0.07
848.945	0.07
849.235	0.07
849.525	0.07
849.814	0.07
850.104	0.07
850.393	0.08
850.683	0.08
850.972	0.07
851.261	0.07
851.551	0.07
851.84	0.08
852.129	0.07
852.418	0.07
852.707	0.07
852.995	0.08
853.284	0.08
853.573	0.08
853.862	0.08
854.15	0.08
854.439	0.08
854.727	0.08
855.015	0.09
855.304	0.08
855.592	0.09
855.88	0.08
856.168	0.08
856.456	0.08
856.744	0.08
857.032	0.09
857.32	0.09
857.607	0.09
857.895	0.08
858.183	0.08
858.47	0.07
858.757	0.07
859.045	0.08
859.332	0.07
859.619	0.08
859.907	0.09
860.194	0.1
860.481	0.09
860.768	0.1
861.054	0.09
861.341	0.09
861.628	0.08
861.915	0.09
862.201	0.09
862.488	0.08
862.774	0.09
863.061	0.1
863.347	0.08
863.633	0.07
863.919	0.11
864.205	0.08
864.491	0.07
864.777	0.08
865.063	0.07
865.349	0.07
865.635	0.08
865.92	0.06
866.206	0.06
866.492	0.1
866.777	0.08
867.062	0.07
867.348	0.09
867.633	0.08
867.918	0.08
868.203	0.08
868.488	0.06
868.773	0.08
869.058	0.09
869.343	0.07
869.628	0.09
869.912	0.08
870.197	0.06
870.482	0.1
870.766	0.08
871.05	0.05
871.335	0.06
871.619	0.05
871.903	0.05
872.187	0.07
872.471	0.05
872.755	0.07
873.039	0.02
873.323	0.05
873.607	0.08
873.89	0.07
874.174	0.08
874.458	0.04
874.741	0.07
875.024	0.06
875.308	0.05
875.591	0.03
875.874	0.04
876.157	0.08
876.44	0.08
876.723	0.06
877.006	0.09
877.289	0.04
877.572	-0
877.854	0.1
878.137	0.03
878.42	0.07
878.702	0.07
878.984	0.03
879.267	0.01
879.549	0.01
879.831	0.05
880.113	0.01
880.395	-0.02
880.677	-0.02
880.959	0.03
