Data from Rubpy_BV_600_EDTA_Buffered_Absorbance_12-25-49-518.txt Node
Date: Wed Jul 01 12:25:49 BST 2026
User: fpm-admin
Spectrometer: OFX00224
Trigger mode: 0
Integration Time (sec): 7.000000E-2
Scans to average: 3
Nonlinearity correction enabled: false
Boxcar width: 0
Storing dark spectrum: false
XAxis mode: Wavelengths
Number of Pixels in Spectrum: 2136
>>>>>Begin Spectral Data<<<<<
154.91	0.16
155.289	-0.31
155.669	-0.04
156.048	-0.95
156.428	0.57
156.807	-0
157.186	0.09
157.566	-1.1
157.945	-0.29
158.325	-0
158.704	-0
159.083	-0.57
159.462	0.1
159.842	1.6
160.221	0.27
160.6	-0.46
160.979	0.04
161.359	-0.07
161.738	0.25
162.117	-0
162.496	-0.12
162.875	-0
163.254	0.25
163.633	-0.43
164.012	-0.03
164.391	-0
164.77	0.34
165.149	-0.17
165.528	-0
165.907	0.7
166.286	0.2
166.665	0.11
167.044	-0
167.423	-0.04
167.802	-0
168.181	0.3
168.559	0.38
168.938	-1.15
169.317	-0
169.696	-0
170.074	-0.26
170.453	-0.11
170.832	-0.09
171.21	-0.52
171.589	-0
171.968	1.13
172.346	-0.03
172.725	-0
173.103	-0
173.482	-0
173.861	-0
174.239	-0
174.617	0.3
174.996	-0
175.374	0.28
175.753	-0
176.131	-0
176.51	0.17
176.888	0.41
177.266	0.6
177.645	0.07
178.023	0.29
178.401	-0.28
178.779	0.06
179.158	-0.03
179.536	-0
179.914	-0.24
180.292	-0
180.67	-0.29
181.048	1.01
181.427	-0.11
181.805	0.37
182.183	-0
182.561	-0
182.939	-0
183.317	1.65
183.695	-0
184.073	0.77
184.451	-0.78
184.829	-0.18
185.206	-0.16
185.584	-0
185.962	0.3
186.34	-0.55
186.718	-0
187.096	0.3
187.473	0.51
187.851	-0.09
188.229	-0.52
188.607	0.14
188.984	0.04
189.362	0.15
189.74	0.04
190.117	0.05
190.495	0.06
190.872	0.06
191.25	0.04
191.627	0.09
192.005	0.06
192.382	0.06
192.76	0.08
193.137	0.01
193.515	0.05
193.892	0.17
194.269	-0.03
194.647	0.21
195.024	0.03
195.401	0.09
195.779	0.07
196.156	0.19
196.533	0.18
196.91	0.15
197.288	-0.06
197.665	0.08
198.042	0.08
198.419	-0.05
198.796	0.04
199.173	0.09
199.55	0.03
199.927	0.05
200.304	0.03
200.681	0.05
201.058	0.08
201.435	0.02
201.812	0.16
202.189	0.18
202.566	0.06
202.943	0.12
203.32	0.13
203.697	0.05
204.073	0.1
204.45	0.02
204.827	0.03
205.204	-0
205.58	0.1
205.957	0.02
206.334	0.11
206.71	0.14
207.087	-0.02
207.464	0.15
207.84	0.12
208.217	0.15
208.593	0.07
208.97	0.08
209.346	0.09
209.723	0.04
210.099	0.09
210.476	0.08
210.852	0.07
211.228	0.22
211.605	0.07
211.981	0.08
212.357	0.04
212.733	-0.02
213.11	0.25
213.486	-0
213.862	0.08
214.238	0.07
214.614	0.07
214.991	0.13
215.367	0.03
215.743	0.06
216.119	0.07
216.495	0.15
216.871	0.04
217.247	0.03
217.623	0.05
217.999	0.07
218.375	0.07
218.751	0.15
219.127	0.04
219.502	0.13
219.878	0.04
220.254	0.06
220.63	0.03
221.006	0.06
221.381	0.09
221.757	0.04
222.133	0.08
222.508	0.05
222.884	0.11
223.26	0.11
223.635	0.13
224.011	0.01
224.386	0.14
224.762	0.13
225.137	0.13
225.513	-0
225.888	0.03
226.264	-0.01
226.639	0.06
227.014	0.08
227.39	0.06
227.765	0.07
228.14	0.02
228.516	0.11
228.891	0.13
229.266	0.08
229.641	0.12
230.017	0.09
230.392	0.14
230.767	0.08
231.142	0.08
231.517	0.07
231.892	0.08
232.267	0.15
232.642	0.06
233.017	0.06
233.392	0.07
233.767	0.14
234.142	0.08
234.517	0.03
234.892	0.07
235.267	0.11
235.641	0.09
236.016	0.1
236.391	0.09
236.766	0.13
237.14	0.04
237.515	0.12
237.89	0.08
238.264	0.08
238.639	0.06
239.014	0.12
239.388	0.12
239.763	0.15
240.137	0.08
240.512	0.07
240.886	0.05
241.261	0.17
241.635	0.13
242.009	0.13
242.384	0.13
242.758	0.05
243.132	0.14
243.507	0.12
243.881	0.04
244.255	0.16
244.629	0.11
245.004	0.12
245.378	0.07
245.752	0.09
246.126	0.12
246.5	0.06
246.874	0.04
247.248	0.13
247.622	0.1
247.996	0.01
248.37	0.14
248.744	0.15
249.118	0.12
249.492	0.15
249.866	0.12
250.24	0.13
250.613	0.17
250.987	0.08
251.361	0.07
251.735	0.06
252.108	0.11
252.482	0.12
252.856	0.06
253.229	0.02
253.603	0.1
253.977	0.09
254.35	0.1
254.724	0.15
255.097	0.08
255.471	0.13
255.844	0.13
256.218	0.05
256.591	0.1
256.964	0.1
257.338	0.05
257.711	0.15
258.084	0.11
258.458	0.06
258.831	0.08
259.204	0.12
259.577	0.14
259.95	0.16
260.323	0.13
260.697	0.12
261.07	0.08
261.443	0.06
261.816	0.11
262.189	0.12
262.562	0.1
262.935	0.06
263.308	0.11
263.68	0.13
264.053	0.08
264.426	0.1
264.799	0.21
265.172	0.11
265.545	0.07
265.917	0.1
266.29	0.03
266.663	0.12
267.035	0.14
267.408	0.08
267.781	0.13
268.153	0.1
268.526	0.08
268.898	0.09
269.271	0.15
269.643	0.1
270.016	0.02
270.388	0.13
270.76	0.08
271.133	0.12
271.505	0.19
271.877	0.07
272.25	0.11
272.622	0.17
272.994	0.1
273.366	0.13
273.739	0.09
274.111	0.11
274.483	0.13
274.855	0.1
275.227	0.14
275.599	0.15
275.971	0.07
276.343	0.07
276.715	0.14
277.087	0.15
277.459	0.03
277.831	0.12
278.203	0.12
278.574	0.1
278.946	0.09
279.318	0.15
279.69	0.16
280.061	0.13
280.433	0.06
280.805	0.1
281.176	0.13
281.548	0.14
281.92	0.13
282.291	0.07
282.663	0.15
283.034	0.17
283.406	0.07
283.777	0.15
284.148	0.17
284.52	0.09
284.891	0.11
285.262	0.08
285.634	0.14
286.005	0.15
286.376	0.14
286.747	0.15
287.119	0.13
287.49	0.14
287.861	0.03
288.232	0.1
288.603	0.04
288.974	0.15
289.345	0.14
289.716	0.13
290.087	0.12
290.458	0.06
290.829	0.07
291.2	0.12
291.571	0.1
291.941	0.13
292.312	0.14
292.683	0.1
293.054	0.14
293.424	0.06
293.795	0.08
294.166	0.12
294.536	0.1
294.907	0.17
295.277	0.13
295.648	0.14
296.018	0.11
296.389	0.12
296.759	0.14
297.13	0.13
297.5	0.13
297.871	0.11
298.241	0.14
298.611	0.06
298.981	0.07
299.352	0.1
299.722	0.07
300.092	0.09
300.462	0.02
300.832	0.09
301.202	0.14
301.573	0.08
301.943	0.05
302.313	0.06
302.683	0.08
303.053	0.11
303.422	0.06
303.792	0.09
304.162	0.06
304.532	0.05
304.902	0.03
305.272	0.08
305.641	0.08
306.011	0.06
306.381	0.03
306.75	0.06
307.12	0.04
307.49	0.05
307.859	0.05
308.229	0.06
308.598	0.05
308.968	0.06
309.337	0.07
309.707	0.06
310.076	0.06
310.445	0.06
310.815	0.07
311.184	0.06
311.553	0.07
311.923	0.08
312.292	0.08
312.661	0.07
313.03	0.09
313.399	0.08
313.768	0.08
314.137	0.08
314.506	0.09
314.875	0.09
315.244	0.08
315.613	0.09
315.982	0.08
316.351	0.1
316.72	0.09
317.089	0.09
317.458	0.09
317.826	0.09
318.195	0.09
318.564	0.09
318.933	0.1
319.301	0.11
319.67	0.1
320.038	0.11
320.407	0.1
320.775	0.11
321.144	0.11
321.512	0.11
321.881	0.11
322.249	0.11
322.618	0.12
322.986	0.12
323.354	0.12
323.723	0.12
324.091	0.12
324.459	0.12
324.827	0.12
325.195	0.12
325.564	0.12
325.932	0.13
326.3	0.13
326.668	0.13
327.036	0.13
327.404	0.13
327.772	0.13
328.14	0.13
328.508	0.14
328.875	0.14
329.243	0.15
329.611	0.15
329.979	0.14
330.346	0.15
330.714	0.15
331.082	0.15
331.449	0.15
331.817	0.15
332.185	0.16
332.552	0.16
332.92	0.16
333.287	0.17
333.655	0.17
334.022	0.18
334.389	0.18
334.757	0.18
335.124	0.18
335.491	0.19
335.859	0.19
336.226	0.19
336.593	0.19
336.96	0.2
337.327	0.21
337.695	0.21
338.062	0.21
338.429	0.22
338.796	0.22
339.163	0.22
339.53	0.23
339.897	0.23
340.263	0.23
340.63	0.24
340.997	0.24
341.364	0.24
341.731	0.25
342.097	0.26
342.464	0.26
342.831	0.26
343.197	0.27
343.564	0.27
343.931	0.27
344.297	0.28
344.664	0.29
345.03	0.29
345.396	0.3
345.763	0.3
346.129	0.3
346.496	0.3
346.862	0.31
347.228	0.31
347.594	0.32
347.961	0.33
348.327	0.33
348.693	0.33
349.059	0.34
349.425	0.34
349.791	0.35
350.157	0.35
350.523	0.35
350.889	0.36
351.255	0.36
351.621	0.36
351.987	0.37
352.353	0.38
352.719	0.38
353.084	0.38
353.45	0.39
353.816	0.39
354.181	0.39
354.547	0.4
354.913	0.4
355.278	0.41
355.644	0.42
356.009	0.42
356.375	0.43
356.74	0.44
357.106	0.44
357.471	0.45
357.836	0.46
358.202	0.46
358.567	0.46
358.932	0.47
359.297	0.47
359.663	0.48
360.028	0.5
360.393	0.5
360.758	0.51
361.123	0.52
361.488	0.52
361.853	0.53
362.218	0.54
362.583	0.54
362.948	0.55
363.312	0.56
363.677	0.56
364.042	0.57
364.407	0.58
364.772	0.58
365.136	0.58
365.501	0.59
365.865	0.6
366.23	0.6
366.595	0.61
366.959	0.61
367.324	0.63
367.688	0.62
368.052	0.64
368.417	0.64
368.781	0.64
369.145	0.66
369.51	0.66
369.874	0.66
370.238	0.67
370.602	0.67
370.967	0.68
371.331	0.68
371.695	0.68
372.059	0.68
372.423	0.69
372.787	0.69
373.151	0.69
373.515	0.68
373.878	0.68
374.242	0.68
374.606	0.68
374.97	0.68
375.334	0.67
375.697	0.67
376.061	0.65
376.425	0.65
376.788	0.65
377.152	0.64
377.515	0.64
377.879	0.63
378.242	0.63
378.606	0.62
378.969	0.62
379.333	0.6
379.696	0.6
380.059	0.6
380.422	0.59
380.786	0.58
381.149	0.58
381.512	0.56
381.875	0.56
382.238	0.57
382.601	0.56
382.964	0.55
383.327	0.55
383.69	0.54
384.053	0.54
384.416	0.54
384.779	0.53
385.142	0.54
385.504	0.53
385.867	0.53
386.23	0.53
386.593	0.54
386.955	0.53
387.318	0.54
387.68	0.54
388.043	0.54
388.405	0.55
388.768	0.55
389.13	0.55
389.493	0.55
389.855	0.54
390.217	0.54
390.58	0.53
390.942	0.53
391.304	0.53
391.666	0.53
392.028	0.53
392.391	0.52
392.753	0.51
393.115	0.5
393.477	0.5
393.839	0.5
394.201	0.5
394.563	0.49
394.924	0.5
395.286	0.49
395.648	0.5
396.01	0.5
396.371	0.51
396.733	0.51
397.095	0.53
397.456	0.54
397.818	0.56
398.18	0.57
398.541	0.58
398.903	0.6
399.264	0.61
399.625	0.63
399.987	0.64
400.348	0.65
400.709	0.66
401.071	0.67
401.432	0.67
401.793	0.69
402.154	0.67
402.515	0.66
402.876	0.66
403.238	0.64
403.599	0.63
403.96	0.6
404.32	0.59
404.681	0.56
405.042	0.54
405.403	0.52
405.764	0.49
406.125	0.46
406.485	0.44
406.846	0.42
407.207	0.39
407.567	0.37
407.928	0.36
408.288	0.33
408.649	0.31
409.009	0.29
409.37	0.27
409.73	0.26
410.091	0.25
410.451	0.23
410.811	0.22
411.171	0.21
411.532	0.19
411.892	0.19
412.252	0.18
412.612	0.17
412.972	0.16
413.332	0.16
413.692	0.15
414.052	0.14
414.412	0.14
414.772	0.13
415.132	0.13
415.492	0.12
415.851	0.12
416.211	0.11
416.571	0.11
416.931	0.1
417.29	0.1
417.65	0.1
418.009	0.09
418.369	0.1
418.728	0.09
419.088	0.09
419.447	0.09
419.807	0.08
420.166	0.08
420.525	0.08
420.884	0.08
421.244	0.08
421.603	0.08
421.962	0.08
422.321	0.07
422.68	0.08
423.039	0.07
423.398	0.08
423.757	0.06
424.116	0.07
424.475	0.07
424.834	0.06
425.193	0.06
425.551	0.06
425.91	0.05
426.269	0.06
426.628	0.06
426.986	0.07
427.345	0.06
427.703	0.06
428.062	0.06
428.42	0.06
428.779	0.06
429.137	0.06
429.496	0.06
429.854	0.06
430.212	0.06
430.57	0.06
430.929	0.05
431.287	0.05
431.645	0.06
432.003	0.05
432.361	0.06
432.719	0.05
433.077	0.06
433.435	0.05
433.793	0.06
434.151	0.05
434.509	0.05
434.866	0.05
435.224	0.05
435.582	0.05
435.94	0.05
436.297	0.05
436.655	0.05
437.012	0.06
437.37	0.05
437.727	0.05
438.085	0.05
438.442	0.05
438.8	0.05
439.157	0.04
439.514	0.04
439.872	0.05
440.229	0.04
440.586	0.05
440.943	0.05
441.3	0.05
441.657	0.05
442.014	0.05
442.371	0.05
442.728	0.04
443.085	0.05
443.442	0.05
443.799	0.05
444.156	0.05
444.513	0.05
444.869	0.04
445.226	0.04
445.583	0.05
445.939	0.05
446.296	0.04
446.652	0.04
447.009	0.05
447.365	0.06
447.722	0.05
448.078	0.05
448.434	0.04
448.791	0.05
449.147	0.05
449.503	0.05
449.859	0.06
450.215	0.05
450.571	0.05
450.928	0.05
451.284	0.04
451.64	0.04
451.995	0.04
452.351	0.04
452.707	0.05
453.063	0.04
453.419	0.04
453.775	0.04
454.13	0.04
454.486	0.04
454.842	0.04
455.197	0.04
455.553	0.04
455.908	0.04
456.264	0.04
456.619	0.04
456.975	0.03
457.33	0.03
457.685	0.03
458.04	0.03
458.396	0.03
458.751	0.02
459.106	0.01
459.461	0.02
459.816	0.02
460.171	0.02
460.526	0.02
460.881	0.02
461.236	0.02
461.591	0.01
461.946	0.01
462.301	0.02
462.655	0.01
463.01	0.01
463.365	0.01
463.719	0
464.074	0.01
464.428	-0
464.783	0
465.137	0
465.492	-0.01
465.846	-0
466.201	-0
466.555	0
466.909	-0
467.263	0
467.618	0.01
467.972	0.01
468.326	0
468.68	0
469.034	0
469.388	-0
469.742	-0
470.096	-0
470.45	0
470.804	0.01
471.157	0
471.511	0.01
471.865	0
472.218	0.01
472.572	0.01
472.926	0.01
473.279	0.02
473.633	0.02
473.986	0.03
474.34	0.03
474.693	0.03
475.046	0.03
475.4	0.04
475.753	0.04
476.106	0.05
476.459	0.05
476.812	0.06
477.165	0.06
477.519	0.06
477.872	0.06
478.224	0.06
478.577	0.07
478.93	0.07
479.283	0.07
479.636	0.08
479.989	0.08
480.341	0.08
480.694	0.08
481.047	0.09
481.399	0.09
481.752	0.09
482.104	0.1
482.457	0.09
482.809	0.1
483.162	0.1
483.514	0.1
483.866	0.11
484.219	0.1
484.571	0.11
484.923	0.11
485.275	0.11
485.627	0.11
485.979	0.11
486.331	0.12
486.683	0.12
487.035	0.12
487.387	0.12
487.739	0.12
488.091	0.13
488.443	0.13
488.794	0.13
489.146	0.13
489.498	0.13
489.849	0.13
490.201	0.13
490.552	0.13
490.904	0.14
491.255	0.14
491.607	0.14
491.958	0.14
492.309	0.14
492.661	0.15
493.012	0.15
493.363	0.14
493.714	0.14
494.065	0.15
494.416	0.15
494.767	0.15
495.118	0.15
495.469	0.15
495.82	0.16
496.171	0.15
496.522	0.16
496.872	0.16
497.223	0.16
497.574	0.17
497.924	0.17
498.275	0.16
498.626	0.17
498.976	0.17
499.327	0.17
499.677	0.17
500.027	0.17
500.378	0.17
500.728	0.18
501.078	0.18
501.428	0.18
501.779	0.18
502.129	0.18
502.479	0.19
502.829	0.18
503.179	0.19
503.529	0.19
503.879	0.19
504.229	0.19
504.578	0.19
504.928	0.19
505.278	0.19
505.628	0.2
505.977	0.19
506.327	0.2
506.676	0.2
507.026	0.2
507.375	0.2
507.725	0.21
508.074	0.21
508.424	0.21
508.773	0.21
509.122	0.21
509.471	0.21
509.82	0.22
510.17	0.21
510.519	0.21
510.868	0.21
511.217	0.22
511.566	0.22
511.915	0.22
512.263	0.22
512.612	0.22
512.961	0.22
513.31	0.22
513.659	0.23
514.007	0.23
514.356	0.23
514.704	0.23
515.053	0.23
515.401	0.23
515.75	0.24
516.098	0.23
516.447	0.24
516.795	0.24
517.143	0.24
517.491	0.24
517.839	0.24
518.188	0.24
518.536	0.24
518.884	0.24
519.232	0.25
519.58	0.25
519.928	0.25
520.275	0.24
520.623	0.25
520.971	0.25
521.319	0.25
521.666	0.25
522.014	0.25
522.362	0.26
522.709	0.25
523.057	0.26
523.404	0.26
523.752	0.26
524.099	0.26
524.446	0.26
524.794	0.26
525.141	0.26
525.488	0.27
525.835	0.26
526.182	0.26
526.529	0.27
526.876	0.27
527.223	0.27
527.57	0.27
527.917	0.27
528.264	0.27
528.611	0.27
528.958	0.27
529.304	0.28
529.651	0.28
529.998	0.28
530.344	0.28
530.691	0.28
531.037	0.28
531.384	0.28
531.73	0.28
532.076	0.28
532.423	0.28
532.769	0.28
533.115	0.28
533.461	0.28
533.807	0.28
534.154	0.28
534.5	0.28
534.846	0.28
535.192	0.29
535.537	0.29
535.883	0.29
536.229	0.29
536.575	0.28
536.921	0.29
537.266	0.29
537.612	0.29
537.957	0.29
538.303	0.29
538.649	0.3
538.994	0.29
539.339	0.29
539.685	0.3
540.03	0.3
540.375	0.3
540.721	0.3
541.066	0.3
541.411	0.3
541.756	0.3
542.101	0.3
542.446	0.3
542.791	0.3
543.136	0.3
543.481	0.3
543.825	0.3
544.17	0.3
544.515	0.3
544.86	0.31
545.204	0.31
545.549	0.3
545.893	0.3
546.238	0.31
546.582	0.31
546.927	0.31
547.271	0.31
547.615	0.31
547.96	0.31
548.304	0.31
548.648	0.31
548.992	0.31
549.336	0.31
549.68	0.31
550.024	0.31
550.368	0.31
550.712	0.31
551.056	0.31
551.4	0.31
551.743	0.31
552.087	0.31
552.431	0.31
552.774	0.31
553.118	0.31
553.462	0.31
553.805	0.31
554.148	0.31
554.492	0.31
554.835	0.31
555.178	0.31
555.522	0.31
555.865	0.31
556.208	0.31
556.551	0.31
556.894	0.31
557.237	0.32
557.58	0.31
557.923	0.32
558.266	0.31
558.609	0.31
558.952	0.31
559.294	0.32
559.637	0.31
559.98	0.32
560.322	0.31
560.665	0.31
561.007	0.31
561.35	0.31
561.692	0.31
562.034	0.31
562.377	0.32
562.719	0.31
563.061	0.31
563.403	0.31
563.745	0.31
564.088	0.31
564.43	0.31
564.772	0.31
565.113	0.31
565.455	0.31
565.797	0.31
566.139	0.32
566.481	0.31
566.822	0.31
567.164	0.31
567.506	0.31
567.847	0.31
568.189	0.31
568.53	0.31
568.872	0.31
569.213	0.31
569.554	0.31
569.895	0.31
570.237	0.3
570.578	0.31
570.919	0.31
571.26	0.3
571.601	0.3
571.942	0.3
572.283	0.3
572.624	0.3
572.965	0.3
573.306	0.3
573.646	0.29
573.987	0.29
574.328	0.29
574.668	0.3
575.009	0.29
575.349	0.29
575.69	0.28
576.03	0.28
576.37	0.27
576.711	0.26
577.051	0.27
577.391	0.27
577.731	0.28
578.072	0.28
578.412	0.27
578.752	0.27
579.092	0.26
579.431	0.23
579.771	0.21
580.111	0.2
580.451	0.2
580.791	0.24
581.13	0.25
581.47	0.26
581.81	0.26
582.149	0.26
582.489	0.27
582.828	0.24
583.167	0.2
583.507	0.16
583.846	0.15
584.185	0.18
584.525	0.2
584.864	0.23
585.203	0.26
585.542	0.27
585.881	0.28
586.22	0.28
586.559	0.25
586.898	0.22
587.236	0.21
587.575	0.21
587.914	0.22
588.252	0.24
588.591	0.25
588.93	0.25
589.268	0.24
589.607	0.24
589.945	0.25
590.283	0.25
590.622	0.26
590.96	0.27
591.298	0.28
591.636	0.28
591.974	0.28
592.313	0.28
592.651	0.28
592.989	0.28
593.326	0.28
593.664	0.28
594.002	0.28
594.34	0.28
594.678	0.26
595.015	0.24
595.353	0.22
595.691	0.24
596.028	0.26
596.366	0.27
596.703	0.28
597.04	0.28
597.378	0.28
597.715	0.28
598.052	0.29
598.389	0.29
598.726	0.29
599.064	0.29
599.401	0.28
599.738	0.28
600.074	0.28
600.411	0.27
600.748	0.26
601.085	0.24
601.422	0.23
601.758	0.24
602.095	0.25
602.432	0.25
602.768	0.25
603.105	0.27
603.441	0.27
603.777	0.28
604.114	0.29
604.45	0.29
604.786	0.29
605.122	0.28
605.459	0.28
605.795	0.27
606.131	0.28
606.467	0.28
606.803	0.28
607.139	0.28
607.474	0.27
607.81	0.27
608.146	0.27
608.482	0.27
608.817	0.26
609.153	0.26
609.488	0.26
609.824	0.26
610.159	0.27
610.495	0.27
610.83	0.27
611.165	0.27
611.5	0.27
611.836	0.27
612.171	0.27
612.506	0.27
612.841	0.27
613.176	0.27
613.511	0.27
613.845	0.27
614.18	0.27
614.515	0.27
614.85	0.27
615.184	0.27
615.519	0.27
615.854	0.27
616.188	0.26
616.523	0.26
616.857	0.26
617.191	0.26
617.526	0.26
617.86	0.26
618.194	0.26
618.528	0.26
618.862	0.26
619.196	0.26
619.53	0.26
619.864	0.26
620.198	0.25
620.532	0.26
620.866	0.26
621.2	0.26
621.533	0.25
621.867	0.26
622.201	0.25
622.534	0.25
622.868	0.26
623.201	0.25
623.534	0.25
623.868	0.25
624.201	0.24
624.534	0.24
624.868	0.24
625.201	0.24
625.534	0.24
625.867	0.24
626.2	0.24
626.533	0.24
626.865	0.24
627.198	0.24
627.531	0.24
627.864	0.23
628.196	0.23
628.529	0.23
628.862	0.23
629.194	0.23
629.527	0.23
629.859	0.22
630.191	0.23
630.524	0.23
630.856	0.23
631.188	0.23
631.52	0.22
631.852	0.22
632.184	0.22
632.516	0.22
632.848	0.22
633.18	0.21
633.512	0.22
633.844	0.22
634.175	0.22
634.507	0.21
634.839	0.21
635.17	0.21
635.502	0.21
635.833	0.2
636.165	0.2
636.496	0.2
636.827	0.2
637.159	0.2
637.49	0.2
637.821	0.19
638.152	0.19
638.483	0.19
638.814	0.19
639.145	0.19
639.476	0.19
639.807	0.19
640.137	0.19
640.468	0.18
640.799	0.18
641.129	0.18
641.46	0.18
641.791	0.18
642.121	0.18
642.451	0.18
642.782	0.18
643.112	0.18
643.442	0.18
643.773	0.18
644.103	0.17
644.433	0.17
644.763	0.17
645.093	0.17
645.423	0.17
645.753	0.17
646.082	0.17
646.412	0.16
646.742	0.16
647.072	0.16
647.401	0.16
647.731	0.16
648.06	0.16
648.39	0.16
648.719	0.16
649.048	0.16
649.378	0.16
649.707	0.16
650.036	0.16
650.365	0.15
650.694	0.15
651.023	0.15
651.352	0.15
651.681	0.15
652.01	0.15
652.339	0.15
652.668	0.15
652.996	0.15
653.325	0.15
653.654	0.15
653.982	0.15
654.311	0.15
654.639	0.15
654.967	0.15
655.296	0.15
655.624	0.15
655.952	0.15
656.28	0.15
656.609	0.15
656.937	0.15
657.265	0.14
657.593	0.01
657.92	0
658.248	0
658.576	-0
658.904	0
659.231	0.04
659.559	0.1
659.887	0.13
660.214	0.14
660.542	0.14
660.869	0.14
661.196	0.14
661.524	0.14
661.851	0.14
662.178	0.14
662.505	0.14
662.832	0.14
663.159	0.14
663.486	0.14
663.813	0.14
664.14	0.13
664.467	0.14
664.794	0.14
665.12	0.14
665.447	0.13
665.774	0.14
666.1	0.13
666.427	0.13
666.753	0.13
667.079	0.13
667.406	0.13
667.732	0.13
668.058	0.13
668.384	0.13
668.71	0.13
669.036	0.13
669.362	0.13
669.688	0.13
670.014	0.12
670.34	0.13
670.666	0.12
670.991	0.12
671.317	0.12
671.643	0.12
671.968	0.12
672.294	0.12
672.619	0.11
672.945	0.11
673.27	0.11
673.595	0.11
673.92	0.1
674.246	0.1
674.571	0.1
674.896	0.1
675.221	0.1
675.546	0.1
675.87	0.11
676.195	0.1
676.52	0.11
676.845	0.1
677.169	0.1
677.494	0.1
677.819	0.1
678.143	0.09
678.468	0.09
678.792	0.09
679.116	0.09
679.44	0.09
679.765	0.09
680.089	0.08
680.413	0.08
680.737	0.08
681.061	0.07
681.385	0.08
681.709	0.07
682.033	0.07
682.356	0.07
682.68	0.07
683.004	0.07
683.327	0.06
683.651	0.06
683.974	0.06
684.298	0.06
684.621	0.07
684.944	0.07
685.268	0.07
685.591	0.06
685.914	0.05
686.237	0.05
686.56	0.04
686.883	0.04
687.206	0.03
687.529	0.03
687.852	0.02
688.175	0.02
688.497	0.03
688.82	0.03
689.142	0.03
689.465	0.03
689.787	0.03
690.11	0.03
690.432	0.03
690.755	0.03
691.077	0.03
691.399	0.02
691.721	0.03
692.043	0.03
692.365	0.02
692.687	0.02
693.009	0.02
693.331	0.01
693.653	0.01
693.974	0.02
694.296	0.01
694.618	0.02
694.939	0.01
695.261	0.01
695.582	0.01
695.904	0.01
696.225	0.01
696.546	0.01
696.868	0.01
697.189	0.01
697.51	0.01
697.831	0.01
698.152	0.01
698.473	0.01
698.794	0
699.114	0
699.435	0
699.756	0
700.077	0
700.397	0
700.718	0.01
701.038	0.01
701.359	0.01
701.679	0.01
701.999	0.01
702.32	0.01
702.64	0.01
702.96	0.01
703.28	0.01
703.6	0.01
703.92	0
704.24	0
704.56	0
704.879	0
705.199	0
705.519	0
705.838	0
706.158	0
706.478	0
706.797	0.01
707.116	0.01
707.436	0.01
707.755	0
708.074	0
708.393	0
708.712	0
709.031	0
709.35	-0
709.669	0
709.988	0
710.307	0
710.626	0
710.944	0
711.263	0
711.582	0
711.9	0
712.219	0
712.537	0
712.855	0
713.174	0
713.492	0
713.81	0
714.128	0
714.446	0
714.764	0
715.082	0
715.4	0
715.718	0
716.035	0
716.353	0
716.671	0
716.988	0
717.306	0
717.623	0
717.941	0
718.258	0
718.575	0
718.893	0
719.21	0
719.527	0
719.844	0
720.161	0
720.478	0
720.795	0
721.112	0
721.428	0
721.745	0
722.062	0
722.378	0.01
722.695	0
723.011	0.01
723.328	0.01
723.644	0.01
723.96	0.01
724.276	0.01
724.593	0.01
724.909	0.01
725.225	0.01
725.541	0.01
725.857	0.01
726.173	0.01
726.488	0.01
726.804	0.01
727.12	0.01
727.435	0.01
727.751	0.01
728.067	0.01
728.382	0.01
728.697	0.01
729.013	0.01
729.328	0.01
729.643	0.01
729.958	0.01
730.273	0.01
730.588	0.01
730.903	0.01
731.218	0.01
731.533	0.01
731.848	0.01
732.163	0.01
732.477	0
732.792	0
733.107	0
733.421	0
733.736	0
734.05	0.01
734.364	0.01
734.678	0.01
734.993	0.01
735.307	0.01
735.621	0
735.935	0.01
736.249	0.01
736.563	0.01
736.877	0.01
737.19	0.01
737.504	0.01
737.818	0.01
738.131	0.01
738.445	0.01
738.758	0.01
739.072	0.01
739.385	0.02
739.698	0.02
740.012	0.02
740.325	0.01
740.638	0.01
740.951	0.01
741.264	0.01
741.577	0.01
741.89	0.02
742.203	0.02
742.515	0.02
742.828	0.03
743.141	0.02
743.453	0.02
743.766	0.02
744.078	0.02
744.391	0.02
744.703	0.02
745.015	0.02
745.327	0.02
745.639	0.02
745.952	0.02
746.264	0.02
746.575	0.02
746.887	0.02
747.199	0.02
747.511	0.02
747.823	0.02
748.134	0.02
748.446	0.02
748.757	0.02
749.069	0.02
749.38	0.02
749.692	0.02
750.003	0.02
750.314	0.01
750.625	0.01
750.936	0.01
751.248	0.01
751.559	0.01
751.869	0.01
752.18	0.01
752.491	0.01
752.802	0.01
753.112	0.01
753.423	0.01
753.734	0.01
754.044	0.01
754.355	0.01
754.665	0.01
754.975	0
755.285	0
755.596	0
755.906	0
756.216	0
756.526	0
756.836	0.01
757.146	0
757.455	0
757.765	0
758.075	0
758.385	0
758.694	0
759.004	0
759.313	0
759.622	0
759.932	0
760.241	0
760.55	0
760.859	0
761.168	0
761.477	0
761.786	0
762.095	0
762.404	0
762.713	0
763.021	0
763.33	0
763.639	0
763.947	0.01
764.256	0
764.564	0.01
764.872	0
765.181	0.01
765.489	0
765.797	0
766.105	0
766.413	0
766.721	0
767.029	0
767.337	0.01
767.644	0.01
767.952	0.01
768.26	0.01
768.567	0.01
768.875	0.01
769.182	0.01
769.49	0.01
769.797	0.01
770.104	0.01
770.411	0.01
770.718	0.01
771.026	0.01
771.333	0.02
771.639	0.02
771.946	0.01
772.253	0.02
772.56	0.02
772.867	0.02
773.173	0.02
773.48	0.02
773.786	0.02
774.093	0.02
774.399	0.02
774.705	0.02
775.012	0.02
775.318	0.02
775.624	0.02
775.93	0.02
776.236	0.02
776.542	0.02
776.848	0.02
777.154	0.02
777.459	0.01
777.765	0.01
778.071	0.01
778.376	0.01
778.682	0.01
778.987	0.01
779.292	0.01
779.598	0.01
779.903	0.02
780.208	0.02
780.513	0.01
780.818	0.01
781.123	0.01
781.428	0.01
781.733	0.02
782.038	0.01
782.343	0.01
782.647	0.01
782.952	0.02
783.256	0.02
783.561	0.02
783.865	0.02
784.17	0.02
784.474	0.02
784.778	0.02
785.082	0.02
785.386	0.02
785.69	0.02
785.994	0.02
786.298	0.01
786.602	0.02
786.906	0.02
787.209	0.02
787.513	0.02
787.817	0.02
788.12	0.02
788.424	0.02
788.727	0.01
789.03	0.01
789.333	0.01
789.637	0.01
789.94	0.01
790.243	0.01
790.546	0.02
790.849	0.02
791.152	0.02
791.454	0.02
791.757	0.02
792.06	0.02
792.362	0.02
792.665	0.02
792.967	0.02
793.27	0.01
793.572	0.02
793.874	0.02
794.177	0.01
794.479	0.01
794.781	0.02
795.083	0.02
795.385	0.02
795.687	0.02
795.989	0.02
796.29	0.02
796.592	0.02
796.894	0.02
797.195	0.02
797.497	0.02
797.798	0.02
798.1	0.02
798.401	0.02
798.702	0.02
799.003	0.02
799.304	0.02
799.605	0.02
799.906	0.02
800.207	0.02
800.508	0.02
800.809	0.02
801.11	0.02
801.41	0.03
801.711	0.02
802.011	0.02
802.312	0.02
802.612	0.02
802.913	0.02
803.213	0.02
803.513	0.02
803.813	0.01
804.113	0.02
804.413	0.02
804.713	0.02
805.013	0.02
805.313	0.02
805.613	0.02
805.912	0.02
806.212	0.02
806.511	0.02
806.811	0.03
807.11	0.02
807.41	0.02
807.709	0.02
808.008	0.02
808.307	0.02
808.606	0.02
808.905	0.02
809.204	0.02
809.503	0.02
809.802	0.02
810.101	0.02
810.399	0.02
810.698	0.02
810.997	0.02
811.295	0.02
811.593	0.02
811.892	0.02
812.19	0.02
812.488	0.02
812.786	0.02
813.084	0.02
813.383	0.02
813.68	0.02
813.978	0.02
814.276	0.02
814.574	0.02
814.872	0.02
815.169	0.02
815.467	0.03
815.764	0.02
816.062	0.03
816.359	0.03
816.656	0.02
816.954	0.03
817.251	0.03
817.548	0.03
817.845	0.03
818.142	0.03
818.439	0.03
818.735	0.03
819.032	0.02
819.329	0.03
819.626	0.03
819.922	0.03
820.219	0.03
820.515	0.03
820.811	0.03
821.108	0.02
821.404	0.03
821.7	0.03
821.996	0.03
822.292	0.03
822.588	0.03
822.884	0.03
823.18	0.03
823.475	0.03
823.771	0.03
824.067	0.03
824.362	0.03
824.658	0.03
824.953	0.03
825.249	0.03
825.544	0.02
825.839	0.02
826.134	0.03
826.429	0.03
826.724	0.03
827.019	0.03
827.314	0.03
827.609	0.03
827.904	0.03
828.198	0.03
828.493	0.03
828.787	0.03
829.082	0.03
829.376	0.03
829.671	0.03
829.965	0.03
830.259	0.03
830.553	0.04
830.847	0.04
831.141	0.04
831.435	0.03
831.729	0.03
832.023	0.03
832.317	0.03
832.61	0.03
832.904	0.03
833.197	0.03
833.491	0.03
833.784	0.03
834.077	0.03
834.371	0.03
834.664	0.04
834.957	0.03
835.25	0.03
835.543	0.03
835.836	0.03
836.129	0.03
836.421	0.03
836.714	0.03
837.007	0.04
837.299	0.04
837.592	0.03
837.884	0.03
838.177	0.04
838.469	0.03
838.761	0.04
839.053	0.03
839.345	0.03
839.637	0.03
839.929	0.03
840.221	0.03
840.513	0.04
840.805	0.04
841.096	0.04
841.388	0.04
841.68	0.03
841.971	0.03
842.262	0.04
842.554	0.03
842.845	0.03
843.136	0.03
843.427	0.02
843.718	0.02
844.009	0.03
844.3	0.03
844.591	0.04
844.882	0.04
845.173	0.03
845.463	0.04
845.754	0.04
846.044	0.04
846.335	0.04
846.625	0.03
846.915	0.04
847.206	0.04
847.496	0.03
847.786	0.03
848.076	0.04
848.366	0.03
848.656	0.03
848.945	0.03
849.235	0.04
849.525	0.04
849.814	0.04
850.104	0.04
850.393	0.04
850.683	0.04
850.972	0.03
851.261	0.03
851.551	0.03
851.84	0.03
852.129	0.03
852.418	0.04
852.707	0.04
852.995	0.04
853.284	0.04
853.573	0.03
853.862	0.04
854.15	0.03
854.439	0.04
854.727	0.04
855.015	0.04
855.304	0.05
855.592	0.05
855.88	0.04
856.168	0.05
856.456	0.06
856.744	0.05
857.032	0.05
857.32	0.06
857.607	0.05
857.895	0.04
858.183	0.05
858.47	0.03
858.757	0.04
859.045	0.04
859.332	0.05
859.619	0.04
859.907	0.05
860.194	0.06
860.481	0.05
860.768	0.05
861.054	0.04
861.341	0.05
861.628	0.05
861.915	0.04
862.201	0.04
862.488	0.04
862.774	0.05
863.061	0.05
863.347	0.03
863.633	0.03
863.919	0.07
864.205	0.04
864.491	0.04
864.777	0.03
865.063	0.04
865.349	0.05
865.635	0.01
865.92	0.01
866.206	0.02
866.492	0.04
866.777	0.06
867.062	0.04
867.348	0.04
867.633	0.03
867.918	0.05
868.203	0.06
868.488	0.03
868.773	0.03
869.058	0.03
869.343	0.02
869.628	0.04
869.912	0.07
870.197	0.03
870.482	0.06
870.766	0.02
871.05	0.04
871.335	0.03
871.619	0.04
871.903	0.02
872.187	0.04
872.471	0.04
872.755	0.06
873.039	0.01
873.323	0.02
873.607	0.03
873.89	0.05
874.174	0.06
874.458	0
874.741	0.08
875.024	0.01
875.308	0.03
875.591	0.01
875.874	0.04
876.157	0.04
876.44	0.04
876.723	0.07
877.006	0.06
877.289	-0
877.572	-0
877.854	0.05
878.137	-0
878.42	0.05
878.702	0.03
878.984	-0.01
879.267	0
879.549	0.03
879.831	0.03
880.113	0.01
880.395	-0.03
880.677	0.02
880.959	0.02
