Data from Rubpy_BV_600_EDTA_Buffered_Absorbance_12-48-35-509.txt Node
Date: Wed Jul 01 12:48:35 BST 2026
User: fpm-admin
Spectrometer: OFX00224
Trigger mode: 0
Integration Time (sec): 7.000000E-2
Scans to average: 3
Nonlinearity correction enabled: false
Boxcar width: 0
Storing dark spectrum: false
XAxis mode: Wavelengths
Number of Pixels in Spectrum: 2136
>>>>>Begin Spectral Data<<<<<
154.91	-0.04
155.289	0.63
155.669	-0
156.048	-0
156.428	0.94
156.807	-0
157.186	0.02
157.566	-0
157.945	0.2
158.325	-0
158.704	-0
159.083	-0.41
159.462	-0
159.842	0.24
160.221	0.39
160.6	-0.51
160.979	0.77
161.359	-0
161.738	-0
162.117	-0
162.496	-0
162.875	-0
163.254	1.2
163.633	-0.22
164.012	-0.28
164.391	-0.08
164.77	0.03
165.149	-0.36
165.528	-0
165.907	-0.23
166.286	-0
166.665	-0.26
167.044	-0
167.423	-0.17
167.802	-0
168.181	-0.06
168.559	-0.07
168.938	-0.54
169.317	-0
169.696	-1.06
170.074	-0.25
170.453	-0
170.832	-0
171.21	-1.08
171.589	0.62
171.968	-0
172.346	-0.1
172.725	-0
173.103	0.3
173.482	-0
173.861	-0
174.239	-0
174.617	-0
174.996	0.04
175.374	-0
175.753	-0
176.131	-0
176.51	-0.18
176.888	0.89
177.266	1.22
177.645	-0.08
178.023	0.48
178.401	-0.41
178.779	0.07
179.158	0.12
179.536	-0
179.914	-0.27
180.292	-0
180.67	0.8
181.048	-0
181.427	0.08
181.805	-0
182.183	-0.38
182.561	-0
182.939	0.61
183.317	-0
183.695	-0
184.073	-0
184.451	-0
184.829	0.48
185.206	0.13
185.584	0.25
185.962	-0
186.34	-0.6
186.718	-0.92
187.096	-1.04
187.473	-0
187.851	-0.34
188.229	0.08
188.607	0.07
188.984	0.12
189.362	0.08
189.74	0.06
190.117	0.08
190.495	0.01
190.872	-0.01
191.25	0.08
191.627	0.15
192.005	0.14
192.382	0.1
192.76	0.09
193.137	0.13
193.515	0.05
193.892	0.24
194.269	0.05
194.647	0.19
195.024	0.03
195.401	0.1
195.779	-0.01
196.156	0.06
196.533	0.13
196.91	0.1
197.288	0.03
197.665	0.17
198.042	0.16
198.419	0.12
198.796	0.11
199.173	0.16
199.55	-0.04
199.927	0.13
200.304	0.05
200.681	0.09
201.058	0.03
201.435	0.03
201.812	0.1
202.189	0.15
202.566	0.14
202.943	0.22
203.32	0
203.697	0.07
204.073	0.12
204.45	0
204.827	0.09
205.204	0.09
205.58	0.1
205.957	0.14
206.334	0.2
206.71	0.29
207.087	0.03
207.464	0.23
207.84	0.14
208.217	0.1
208.593	0.08
208.97	0.11
209.346	0.23
209.723	0.1
210.099	0.09
210.476	0.07
210.852	0.16
211.228	0.12
211.605	0.17
211.981	0.08
212.357	0.04
212.733	0.2
213.11	0.18
213.486	0.03
213.862	0.11
214.238	0.06
214.614	0.14
214.991	0.16
215.367	0.09
215.743	0.19
216.119	0.08
216.495	0.23
216.871	0.06
217.247	0.02
217.623	0.06
217.999	0.15
218.375	0.05
218.751	0.19
219.127	0.09
219.502	0.07
219.878	0.11
220.254	0.11
220.63	0.14
221.006	0.16
221.381	0.13
221.757	0.15
222.133	0.06
222.508	0.14
222.884	0.1
223.26	0.19
223.635	0.08
224.011	0.08
224.386	0.14
224.762	0.13
225.137	0.14
225.513	0.1
225.888	0.07
226.264	0.11
226.639	0.12
227.014	0.14
227.39	0.08
227.765	0.14
228.14	0.1
228.516	0.16
228.891	0.18
229.266	0.08
229.641	0.13
230.017	0.12
230.392	0.19
230.767	0.13
231.142	0.15
231.517	0.13
231.892	0.22
232.267	0.18
232.642	0.07
233.017	0.19
233.392	0.08
233.767	0.16
234.142	0.1
234.517	0.18
234.892	0.1
235.267	0.15
235.641	0.2
236.016	0.13
236.391	0.17
236.766	0.14
237.14	0.13
237.515	0.06
237.89	0.06
238.264	0.14
238.639	0.07
239.014	0.18
239.388	0.15
239.763	0.16
240.137	0.14
240.512	0.12
240.886	0.03
241.261	0.18
241.635	0.26
242.009	0.24
242.384	0.14
242.758	0.09
243.132	0.16
243.507	0.11
243.881	0.15
244.255	0.19
244.629	0.12
245.004	0.12
245.378	0.14
245.752	0.05
246.126	0.25
246.5	0.05
246.874	0.08
247.248	0.18
247.622	0.07
247.996	0.14
248.37	0.17
248.744	0.21
249.118	0.31
249.492	0.23
249.866	0.08
250.24	0.14
250.613	0.24
250.987	0.23
251.361	0.13
251.735	0.13
252.108	0.12
252.482	0.2
252.856	0.03
253.229	0.07
253.603	0.08
253.977	0.16
254.35	0.21
254.724	0.14
255.097	0.17
255.471	0.17
255.844	0.16
256.218	0.05
256.591	0.14
256.964	0.1
257.338	0.21
257.711	0.2
258.084	0.24
258.458	0.12
258.831	0.22
259.204	0.19
259.577	0.14
259.95	0.12
260.323	0.18
260.697	0.17
261.07	0.14
261.443	0.13
261.816	0.12
262.189	0.13
262.562	0.14
262.935	0.11
263.308	0.1
263.68	0.15
264.053	0.1
264.426	0.18
264.799	0.21
265.172	0.17
265.545	0.13
265.917	0.11
266.29	0.15
266.663	0.21
267.035	0.25
267.408	0.25
267.781	0.21
268.153	0.14
268.526	0.13
268.898	0.21
269.271	0.24
269.643	0.07
270.016	0.16
270.388	0.18
270.76	0.17
271.133	0.17
271.505	0.2
271.877	0.19
272.25	0.19
272.622	0.26
272.994	0.2
273.366	0.15
273.739	0.14
274.111	0.15
274.483	0.12
274.855	0.16
275.227	0.11
275.599	0.18
275.971	0.07
276.343	0.2
276.715	0.18
277.087	0.14
277.459	0.11
277.831	0.2
278.203	0.12
278.574	0.12
278.946	0.15
279.318	0.14
279.69	0.2
280.061	0.2
280.433	0.17
280.805	0.16
281.176	0.2
281.548	0.18
281.92	0.21
282.291	0.18
282.663	0.17
283.034	0.17
283.406	0.16
283.777	0.15
284.148	0.16
284.52	0.16
284.891	0.17
285.262	0.19
285.634	0.2
286.005	0.13
286.376	0.21
286.747	0.18
287.119	0.15
287.49	0.17
287.861	0.18
288.232	0.15
288.603	0.14
288.974	0.13
289.345	0.13
289.716	0.2
290.087	0.2
290.458	0.18
290.829	0.12
291.2	0.17
291.571	0.18
291.941	0.21
292.312	0.21
292.683	0.14
293.054	0.17
293.424	0.13
293.795	0.18
294.166	0.13
294.536	0.15
294.907	0.21
295.277	0.17
295.648	0.16
296.018	0.17
296.389	0.17
296.759	0.18
297.13	0.2
297.5	0.2
297.871	0.18
298.241	0.18
298.611	0.09
298.981	0.1
299.352	0.16
299.722	0.13
300.092	0.16
300.462	0.08
300.832	0.11
301.202	0.16
301.573	0.12
301.943	0.12
302.313	0.1
302.683	0.12
303.053	0.11
303.422	0.09
303.792	0.08
304.162	0.09
304.532	0.07
304.902	0.07
305.272	0.09
305.641	0.1
306.011	0.07
306.381	0.08
306.75	0.07
307.12	0.07
307.49	0.08
307.859	0.08
308.229	0.1
308.598	0.09
308.968	0.1
309.337	0.1
309.707	0.09
310.076	0.1
310.445	0.09
310.815	0.11
311.184	0.1
311.553	0.12
311.923	0.12
312.292	0.11
312.661	0.12
313.03	0.13
313.399	0.12
313.768	0.13
314.137	0.13
314.506	0.13
314.875	0.14
315.244	0.15
315.613	0.15
315.982	0.15
316.351	0.15
316.72	0.14
317.089	0.15
317.458	0.15
317.826	0.16
318.195	0.15
318.564	0.17
318.933	0.16
319.301	0.17
319.67	0.17
320.038	0.18
320.407	0.18
320.775	0.18
321.144	0.18
321.512	0.19
321.881	0.19
322.249	0.19
322.618	0.19
322.986	0.2
323.354	0.2
323.723	0.2
324.091	0.2
324.459	0.2
324.827	0.21
325.195	0.21
325.564	0.22
325.932	0.21
326.3	0.22
326.668	0.23
327.036	0.22
327.404	0.22
327.772	0.22
328.14	0.24
328.508	0.23
328.875	0.24
329.243	0.25
329.611	0.26
329.979	0.25
330.346	0.25
330.714	0.26
331.082	0.26
331.449	0.27
331.817	0.27
332.185	0.27
332.552	0.28
332.92	0.29
333.287	0.29
333.655	0.29
334.022	0.3
334.389	0.31
334.757	0.32
335.124	0.32
335.491	0.33
335.859	0.33
336.226	0.34
336.593	0.35
336.96	0.35
337.327	0.36
337.695	0.37
338.062	0.37
338.429	0.38
338.796	0.39
339.163	0.39
339.53	0.4
339.897	0.4
340.263	0.41
340.63	0.41
340.997	0.42
341.364	0.43
341.731	0.44
342.097	0.44
342.464	0.45
342.831	0.46
343.197	0.47
343.564	0.48
343.931	0.48
344.297	0.49
344.664	0.49
345.03	0.51
345.396	0.51
345.763	0.52
346.129	0.53
346.496	0.53
346.862	0.54
347.228	0.55
347.594	0.55
347.961	0.56
348.327	0.58
348.693	0.57
349.059	0.59
349.425	0.59
349.791	0.6
350.157	0.61
350.523	0.61
350.889	0.62
351.255	0.63
351.621	0.63
351.987	0.64
352.353	0.66
352.719	0.66
353.084	0.66
353.45	0.67
353.816	0.68
354.181	0.69
354.547	0.7
354.913	0.71
355.278	0.71
355.644	0.73
356.009	0.73
356.375	0.74
356.74	0.75
357.106	0.77
357.471	0.78
357.836	0.78
358.202	0.79
358.567	0.8
358.932	0.81
359.297	0.82
359.663	0.83
360.028	0.85
360.393	0.86
360.758	0.87
361.123	0.89
361.488	0.9
361.853	0.9
362.218	0.91
362.583	0.93
362.948	0.94
363.312	0.95
363.677	0.95
364.042	0.97
364.407	0.98
364.772	0.98
365.136	1
365.501	1.01
365.865	1.02
366.23	1.03
366.595	1.03
366.959	1.04
367.324	1.05
367.688	1.07
368.052	1.08
368.417	1.08
368.781	1.09
369.145	1.09
369.51	1.11
369.874	1.12
370.238	1.13
370.602	1.12
370.967	1.14
371.331	1.14
371.695	1.14
372.059	1.15
372.423	1.15
372.787	1.14
373.151	1.15
373.515	1.14
373.878	1.14
374.242	1.13
374.606	1.14
374.97	1.12
375.334	1.12
375.697	1.12
376.061	1.1
376.425	1.1
376.788	1.07
377.152	1.07
377.515	1.05
377.879	1.05
378.242	1.04
378.606	1.03
378.969	1.03
379.333	1
379.696	1
380.059	0.98
380.422	0.98
380.786	0.97
381.149	0.95
381.512	0.94
381.875	0.94
382.238	0.92
382.601	0.92
382.964	0.91
383.327	0.91
383.69	0.89
384.053	0.89
384.416	0.89
384.779	0.87
385.142	0.88
385.504	0.86
385.867	0.86
386.23	0.86
386.593	0.85
386.955	0.85
387.318	0.86
387.68	0.86
388.043	0.86
388.405	0.86
388.768	0.86
389.13	0.86
389.493	0.85
389.855	0.85
390.217	0.85
390.58	0.84
390.942	0.83
391.304	0.82
391.666	0.81
392.028	0.8
392.391	0.79
392.753	0.79
393.115	0.78
393.477	0.77
393.839	0.76
394.201	0.75
394.563	0.75
394.924	0.76
395.286	0.76
395.648	0.76
396.01	0.76
396.371	0.77
396.733	0.78
397.095	0.8
397.456	0.81
397.818	0.83
398.18	0.84
398.541	0.87
398.903	0.89
399.264	0.9
399.625	0.93
399.987	0.95
400.348	0.97
400.709	0.98
401.071	0.99
401.432	0.99
401.793	0.99
402.154	1
402.515	0.98
402.876	0.96
403.238	0.94
403.599	0.92
403.96	0.91
404.32	0.86
404.681	0.83
405.042	0.8
405.403	0.77
405.764	0.73
406.125	0.7
406.485	0.66
406.846	0.63
407.207	0.59
407.567	0.56
407.928	0.54
408.288	0.5
408.649	0.47
409.009	0.44
409.37	0.41
409.73	0.39
410.091	0.37
410.451	0.35
410.811	0.34
411.171	0.31
411.532	0.3
411.892	0.28
412.252	0.27
412.612	0.26
412.972	0.25
413.332	0.24
413.692	0.23
414.052	0.21
414.412	0.21
414.772	0.2
415.132	0.19
415.492	0.19
415.851	0.18
416.211	0.18
416.571	0.17
416.931	0.17
417.29	0.16
417.65	0.15
418.009	0.15
418.369	0.15
418.728	0.14
419.088	0.13
419.447	0.14
419.807	0.13
420.166	0.12
420.525	0.13
420.884	0.13
421.244	0.12
421.603	0.12
421.962	0.12
422.321	0.11
422.68	0.11
423.039	0.12
423.398	0.11
423.757	0.1
424.116	0.11
424.475	0.1
424.834	0.1
425.193	0.1
425.551	0.1
425.91	0.1
426.269	0.1
426.628	0.09
426.986	0.1
427.345	0.09
427.703	0.09
428.062	0.09
428.42	0.09
428.779	0.09
429.137	0.09
429.496	0.09
429.854	0.09
430.212	0.09
430.57	0.09
430.929	0.08
431.287	0.08
431.645	0.09
432.003	0.09
432.361	0.09
432.719	0.08
433.077	0.09
433.435	0.08
433.793	0.08
434.151	0.08
434.509	0.08
434.866	0.08
435.224	0.08
435.582	0.08
435.94	0.08
436.297	0.08
436.655	0.09
437.012	0.09
437.37	0.08
437.727	0.08
438.085	0.08
438.442	0.08
438.8	0.08
439.157	0.08
439.514	0.08
439.872	0.08
440.229	0.08
440.586	0.08
440.943	0.09
441.3	0.08
441.657	0.08
442.014	0.08
442.371	0.08
442.728	0.08
443.085	0.08
443.442	0.08
443.799	0.08
444.156	0.07
444.513	0.09
444.869	0.08
445.226	0.07
445.583	0.08
445.939	0.08
446.296	0.07
446.652	0.08
447.009	0.07
447.365	0.09
447.722	0.08
448.078	0.08
448.434	0.07
448.791	0.08
449.147	0.09
449.503	0.08
449.859	0.08
450.215	0.09
450.571	0.08
450.928	0.08
451.284	0.08
451.64	0.08
451.995	0.08
452.351	0.09
452.707	0.09
453.063	0.08
453.419	0.08
453.775	0.08
454.13	0.08
454.486	0.08
454.842	0.08
455.197	0.08
455.553	0.07
455.908	0.07
456.264	0.08
456.619	0.08
456.975	0.07
457.33	0.08
457.685	0.07
458.04	0.08
458.396	0.07
458.751	0.06
459.106	0.07
459.461	0.07
459.816	0.07
460.171	0.07
460.526	0.06
460.881	0.07
461.236	0.07
461.591	0.06
461.946	0.06
462.301	0.06
462.655	0.06
463.01	0.06
463.365	0.06
463.719	0.05
464.074	0.06
464.428	0.05
464.783	0.05
465.137	0.05
465.492	0.04
465.846	0.05
466.201	0.05
466.555	0.05
466.909	0.05
467.263	0.06
467.618	0.06
467.972	0.06
468.326	0.06
468.68	0.06
469.034	0.05
469.388	0.06
469.742	0.06
470.096	0.06
470.45	0.06
470.804	0.06
471.157	0.07
471.511	0.07
471.865	0.07
472.218	0.07
472.572	0.08
472.926	0.08
473.279	0.08
473.633	0.08
473.986	0.09
474.34	0.09
474.693	0.1
475.046	0.1
475.4	0.11
475.753	0.11
476.106	0.12
476.459	0.12
476.812	0.13
477.165	0.13
477.519	0.14
477.872	0.14
478.224	0.14
478.577	0.15
478.93	0.15
479.283	0.16
479.636	0.16
479.989	0.17
480.341	0.17
480.694	0.17
481.047	0.17
481.399	0.17
481.752	0.18
482.104	0.19
482.457	0.18
482.809	0.19
483.162	0.2
483.514	0.2
483.866	0.2
484.219	0.2
484.571	0.2
484.923	0.21
485.275	0.21
485.627	0.21
485.979	0.21
486.331	0.22
486.683	0.22
487.035	0.22
487.387	0.22
487.739	0.23
488.091	0.23
488.443	0.24
488.794	0.24
489.146	0.24
489.498	0.24
489.849	0.24
490.201	0.24
490.552	0.24
490.904	0.25
491.255	0.25
491.607	0.25
491.958	0.26
492.309	0.26
492.661	0.26
493.012	0.26
493.363	0.26
493.714	0.27
494.065	0.27
494.416	0.27
494.767	0.27
495.118	0.27
495.469	0.28
495.82	0.28
496.171	0.28
496.522	0.28
496.872	0.29
497.223	0.28
497.574	0.29
497.924	0.3
498.275	0.3
498.626	0.3
498.976	0.3
499.327	0.31
499.677	0.31
500.027	0.31
500.378	0.31
500.728	0.31
501.078	0.32
501.428	0.31
501.779	0.32
502.129	0.32
502.479	0.33
502.829	0.33
503.179	0.33
503.529	0.34
503.879	0.33
504.229	0.34
504.578	0.34
504.928	0.34
505.278	0.34
505.628	0.35
505.977	0.34
506.327	0.35
506.676	0.35
507.026	0.36
507.375	0.36
507.725	0.36
508.074	0.37
508.424	0.36
508.773	0.36
509.122	0.37
509.471	0.37
509.82	0.37
510.17	0.37
510.519	0.38
510.868	0.38
511.217	0.38
511.566	0.38
511.915	0.38
512.263	0.39
512.612	0.39
512.961	0.38
513.31	0.39
513.659	0.4
514.007	0.4
514.356	0.4
514.704	0.4
515.053	0.4
515.401	0.4
515.75	0.41
516.098	0.4
516.447	0.41
516.795	0.41
517.143	0.42
517.491	0.42
517.839	0.42
518.188	0.42
518.536	0.43
518.884	0.42
519.232	0.42
519.58	0.43
519.928	0.43
520.275	0.43
520.623	0.43
520.971	0.44
521.319	0.44
521.666	0.44
522.014	0.43
522.362	0.45
522.709	0.44
523.057	0.45
523.404	0.45
523.752	0.44
524.099	0.45
524.446	0.45
524.794	0.45
525.141	0.46
525.488	0.45
525.835	0.45
526.182	0.45
526.529	0.46
526.876	0.46
527.223	0.46
527.57	0.46
527.917	0.46
528.264	0.46
528.611	0.47
528.958	0.47
529.304	0.47
529.651	0.47
529.998	0.47
530.344	0.48
530.691	0.48
531.037	0.48
531.384	0.48
531.73	0.48
532.076	0.48
532.423	0.48
532.769	0.48
533.115	0.48
533.461	0.49
533.807	0.49
534.154	0.49
534.5	0.48
534.846	0.49
535.192	0.49
535.537	0.49
535.883	0.49
536.229	0.49
536.575	0.49
536.921	0.49
537.266	0.5
537.612	0.5
537.957	0.5
538.303	0.49
538.649	0.5
538.994	0.5
539.339	0.5
539.685	0.5
540.03	0.51
540.375	0.51
540.721	0.51
541.066	0.51
541.411	0.51
541.756	0.51
542.101	0.51
542.446	0.51
542.791	0.51
543.136	0.51
543.481	0.51
543.825	0.51
544.17	0.52
544.515	0.52
544.86	0.52
545.204	0.52
545.549	0.52
545.893	0.52
546.238	0.52
546.582	0.52
546.927	0.52
547.271	0.52
547.615	0.52
547.96	0.52
548.304	0.52
548.648	0.52
548.992	0.53
549.336	0.53
549.68	0.52
550.024	0.53
550.368	0.52
550.712	0.53
551.056	0.53
551.4	0.53
551.743	0.53
552.087	0.52
552.431	0.53
552.774	0.53
553.118	0.53
553.462	0.53
553.805	0.53
554.148	0.53
554.492	0.53
554.835	0.53
555.178	0.52
555.522	0.53
555.865	0.53
556.208	0.52
556.551	0.52
556.894	0.53
557.237	0.52
557.58	0.52
557.923	0.53
558.266	0.52
558.609	0.53
558.952	0.53
559.294	0.53
559.637	0.53
559.98	0.53
560.322	0.53
560.665	0.53
561.007	0.52
561.35	0.52
561.692	0.53
562.034	0.52
562.377	0.52
562.719	0.52
563.061	0.52
563.403	0.52
563.745	0.52
564.088	0.52
564.43	0.52
564.772	0.52
565.113	0.52
565.455	0.52
565.797	0.52
566.139	0.52
566.481	0.51
566.822	0.52
567.164	0.51
567.506	0.52
567.847	0.52
568.189	0.52
568.53	0.52
568.872	0.51
569.213	0.51
569.554	0.51
569.895	0.51
570.237	0.51
570.578	0.51
570.919	0.51
571.26	0.51
571.601	0.51
571.942	0.5
572.283	0.5
572.624	0.5
572.965	0.5
573.306	0.5
573.646	0.49
573.987	0.49
574.328	0.49
574.668	0.5
575.009	0.49
575.349	0.48
575.69	0.48
576.03	0.48
576.37	0.46
576.711	0.46
577.051	0.46
577.391	0.47
577.731	0.48
578.072	0.47
578.412	0.47
578.752	0.46
579.092	0.45
579.431	0.42
579.771	0.4
580.111	0.38
580.451	0.4
580.791	0.43
581.13	0.45
581.47	0.45
581.81	0.46
582.149	0.45
582.489	0.45
582.828	0.43
583.167	0.38
583.507	0.35
583.846	0.33
584.185	0.36
584.525	0.39
584.864	0.42
585.203	0.45
585.542	0.46
585.881	0.46
586.22	0.46
586.559	0.44
586.898	0.41
587.236	0.39
587.575	0.39
587.914	0.4
588.252	0.42
588.591	0.44
588.93	0.44
589.268	0.43
589.607	0.43
589.945	0.43
590.283	0.43
590.622	0.44
590.96	0.45
591.298	0.46
591.636	0.46
591.974	0.46
592.313	0.46
592.651	0.47
592.989	0.47
593.326	0.47
593.664	0.47
594.002	0.47
594.34	0.46
594.678	0.44
595.015	0.42
595.353	0.4
595.691	0.42
596.028	0.44
596.366	0.45
596.703	0.46
597.04	0.46
597.378	0.46
597.715	0.46
598.052	0.47
598.389	0.47
598.726	0.47
599.064	0.47
599.401	0.47
599.738	0.46
600.074	0.46
600.411	0.45
600.748	0.44
601.085	0.42
601.422	0.42
601.758	0.42
602.095	0.42
602.432	0.43
602.768	0.43
603.105	0.44
603.441	0.46
603.777	0.46
604.114	0.46
604.45	0.46
604.786	0.46
605.122	0.46
605.459	0.46
605.795	0.45
606.131	0.45
606.467	0.45
606.803	0.45
607.139	0.45
607.474	0.45
607.81	0.44
608.146	0.44
608.482	0.44
608.817	0.44
609.153	0.43
609.488	0.43
609.824	0.43
610.159	0.44
610.495	0.44
610.83	0.44
611.165	0.44
611.5	0.44
611.836	0.44
612.171	0.44
612.506	0.44
612.841	0.44
613.176	0.44
613.511	0.44
613.845	0.43
614.18	0.43
614.515	0.43
614.85	0.43
615.184	0.43
615.519	0.43
615.854	0.43
616.188	0.42
616.523	0.42
616.857	0.42
617.191	0.42
617.526	0.41
617.86	0.42
618.194	0.41
618.528	0.41
618.862	0.42
619.196	0.41
619.53	0.41
619.864	0.41
620.198	0.41
620.532	0.41
620.866	0.41
621.2	0.41
621.533	0.41
621.867	0.41
622.201	0.4
622.534	0.4
622.868	0.4
623.201	0.4
623.534	0.4
623.868	0.4
624.201	0.39
624.534	0.39
624.868	0.39
625.201	0.39
625.534	0.39
625.867	0.39
626.2	0.38
626.533	0.38
626.865	0.38
627.198	0.38
627.531	0.38
627.864	0.37
628.196	0.37
628.529	0.37
628.862	0.37
629.194	0.36
629.527	0.36
629.859	0.36
630.191	0.36
630.524	0.36
630.856	0.36
631.188	0.36
631.52	0.35
631.852	0.35
632.184	0.35
632.516	0.34
632.848	0.35
633.18	0.34
633.512	0.34
633.844	0.34
634.175	0.34
634.507	0.34
634.839	0.33
635.17	0.33
635.502	0.33
635.833	0.33
636.165	0.32
636.496	0.32
636.827	0.32
637.159	0.32
637.49	0.32
637.821	0.31
638.152	0.31
638.483	0.3
638.814	0.3
639.145	0.3
639.476	0.3
639.807	0.3
640.137	0.29
640.468	0.29
640.799	0.29
641.129	0.29
641.46	0.29
641.791	0.29
642.121	0.29
642.451	0.28
642.782	0.28
643.112	0.28
643.442	0.28
643.773	0.28
644.103	0.28
644.433	0.27
644.763	0.27
645.093	0.27
645.423	0.27
645.753	0.27
646.082	0.26
646.412	0.26
646.742	0.26
647.072	0.26
647.401	0.26
647.731	0.26
648.06	0.26
648.39	0.25
648.719	0.26
649.048	0.26
649.378	0.25
649.707	0.25
650.036	0.25
650.365	0.25
650.694	0.25
651.023	0.25
651.352	0.24
651.681	0.24
652.01	0.24
652.339	0.24
652.668	0.24
652.996	0.24
653.325	0.24
653.654	0.24
653.982	0.24
654.311	0.24
654.639	0.24
654.967	0.24
655.296	0.24
655.624	0.23
655.952	0.24
656.28	0.23
656.609	0.23
656.937	0.24
657.265	0.22
657.593	0.07
657.92	0
658.248	0
658.576	-0
658.904	0.04
659.231	0.12
659.559	0.19
659.887	0.22
660.214	0.22
660.542	0.23
660.869	0.22
661.196	0.22
661.524	0.22
661.851	0.22
662.178	0.22
662.505	0.22
662.832	0.21
663.159	0.22
663.486	0.22
663.813	0.22
664.14	0.21
664.467	0.22
664.794	0.22
665.12	0.22
665.447	0.21
665.774	0.22
666.1	0.21
666.427	0.21
666.753	0.21
667.079	0.21
667.406	0.21
667.732	0.2
668.058	0.21
668.384	0.2
668.71	0.2
669.036	0.2
669.362	0.2
669.688	0.2
670.014	0.2
670.34	0.2
670.666	0.19
670.991	0.19
671.317	0.19
671.643	0.19
671.968	0.18
672.294	0.18
672.619	0.18
672.945	0.18
673.27	0.18
673.595	0.17
673.92	0.17
674.246	0.16
674.571	0.16
674.896	0.17
675.221	0.17
675.546	0.17
675.87	0.17
676.195	0.17
676.52	0.17
676.845	0.16
677.169	0.16
677.494	0.16
677.819	0.16
678.143	0.15
678.468	0.15
678.792	0.15
679.116	0.15
679.44	0.15
679.765	0.14
680.089	0.14
680.413	0.13
680.737	0.13
681.061	0.13
681.385	0.13
681.709	0.12
682.033	0.11
682.356	0.12
682.68	0.12
683.004	0.12
683.327	0.11
683.651	0.11
683.974	0.11
684.298	0.11
684.621	0.11
684.944	0.11
685.268	0.11
685.591	0.1
685.914	0.1
686.237	0.09
686.56	0.08
686.883	0.08
687.206	0.07
687.529	0.07
687.852	0.06
688.175	0.06
688.497	0.07
688.82	0.07
689.142	0.07
689.465	0.07
689.787	0.07
690.11	0.07
690.432	0.07
690.755	0.07
691.077	0.07
691.399	0.06
691.721	0.06
692.043	0.06
692.365	0.06
692.687	0.05
693.009	0.05
693.331	0.04
693.653	0.04
693.974	0.05
694.296	0.04
694.618	0.04
694.939	0.04
695.261	0.04
695.582	0.04
695.904	0.04
696.225	0.04
696.546	0.04
696.868	0.04
697.189	0.04
697.51	0.03
697.831	0.03
698.152	0.04
698.473	0.03
698.794	0.02
699.114	0.02
699.435	0.01
699.756	0.01
700.077	0.02
700.397	0.02
700.718	0.02
701.038	0.03
701.359	0.03
701.679	0.03
701.999	0.03
702.32	0.03
702.64	0.03
702.96	0.03
703.28	0.03
703.6	0.03
703.92	0.02
704.24	0.02
704.56	0.01
704.879	0.01
705.199	0.02
705.519	0.02
705.838	0.02
706.158	0.02
706.478	0.02
706.797	0.02
707.116	0.02
707.436	0.02
707.755	0.02
708.074	0.02
708.393	0.01
708.712	0.01
709.031	0
709.35	0
709.669	0
709.988	0
710.307	0.01
710.626	0
710.944	0.01
711.263	0.01
711.582	0.01
711.9	0.01
712.219	0.01
712.537	0.01
712.855	0.01
713.174	0.01
713.492	0.01
713.81	0.01
714.128	0.01
714.446	0.01
714.764	0.01
715.082	0.01
715.4	0.01
715.718	0.01
716.035	0.01
716.353	0.01
716.671	0.01
716.988	0.01
717.306	0
717.623	0.01
717.941	0.01
718.258	0.02
718.575	0.02
718.893	0.02
719.21	0.01
719.527	0.02
719.844	0.01
720.161	0.02
720.478	0.01
720.795	0.01
721.112	0.01
721.428	0.02
721.745	0.02
722.062	0.02
722.378	0.02
722.695	0.02
723.011	0.02
723.328	0.02
723.644	0.02
723.96	0.02
724.276	0.02
724.593	0.02
724.909	0.03
725.225	0.02
725.541	0.03
725.857	0.03
726.173	0.03
726.488	0.03
726.804	0.03
727.12	0.03
727.435	0.03
727.751	0.03
728.067	0.02
728.382	0.03
728.697	0.03
729.013	0.03
729.328	0.03
729.643	0.03
729.958	0.03
730.273	0.03
730.588	0.03
730.903	0.03
731.218	0.03
731.533	0.03
731.848	0.03
732.163	0.03
732.477	0.02
732.792	0.02
733.107	0.01
733.421	0.02
733.736	0.02
734.05	0.02
734.364	0.02
734.678	0.03
734.993	0.02
735.307	0.03
735.621	0.02
735.935	0.02
736.249	0.02
736.563	0.02
736.877	0.03
737.19	0.03
737.504	0.03
737.818	0.02
738.131	0.02
738.445	0.03
738.758	0.03
739.072	0.03
739.385	0.03
739.698	0.04
740.012	0.04
740.325	0.04
740.638	0.03
740.951	0.03
741.264	0.02
741.577	0.03
741.89	0.04
742.203	0.04
742.515	0.04
742.828	0.05
743.141	0.04
743.453	0.04
743.766	0.04
744.078	0.04
744.391	0.03
744.703	0.04
745.015	0.04
745.327	0.04
745.639	0.04
745.952	0.04
746.264	0.03
746.575	0.04
746.887	0.03
747.199	0.04
747.511	0.03
747.823	0.04
748.134	0.04
748.446	0.04
748.757	0.03
749.069	0.03
749.38	0.03
749.692	0.03
750.003	0.03
750.314	0.03
750.625	0.03
750.936	0.03
751.248	0.02
751.559	0.02
751.869	0.02
752.18	0.02
752.491	0.02
752.802	0.02
753.112	0.02
753.423	0.01
753.734	0.02
754.044	0.02
754.355	0.02
754.665	0.02
754.975	0.01
755.285	0.01
755.596	0.01
755.906	0.01
756.216	0.01
756.526	0.01
756.836	0.01
757.146	0.01
757.455	0.01
757.765	0.01
758.075	0.01
758.385	0
758.694	0
759.004	0
759.313	0
759.622	0
759.932	0
760.241	0
760.55	0.01
760.859	0.01
761.168	0.01
761.477	0.01
761.786	0.01
762.095	0.01
762.404	0
762.713	0.01
763.021	0.01
763.33	0.01
763.639	0.01
763.947	0.02
764.256	0.01
764.564	0.01
764.872	0.01
765.181	0.01
765.489	0.01
765.797	0.01
766.105	0.01
766.413	0.01
766.721	0.01
767.029	0.01
767.337	0.01
767.644	0.02
767.952	0.02
768.26	0.02
768.567	0.02
768.875	0.02
769.182	0.02
769.49	0.02
769.797	0.02
770.104	0.03
770.411	0.02
770.718	0.03
771.026	0.03
771.333	0.03
771.639	0.03
771.946	0.03
772.253	0.03
772.56	0.03
772.867	0.03
773.173	0.03
773.48	0.03
773.786	0.03
774.093	0.03
774.399	0.03
774.705	0.03
775.012	0.03
775.318	0.03
775.624	0.03
775.93	0.03
776.236	0.03
776.542	0.03
776.848	0.03
777.154	0.03
777.459	0.02
777.765	0.03
778.071	0.02
778.376	0.03
778.682	0.02
778.987	0.02
779.292	0.03
779.598	0.03
779.903	0.03
780.208	0.03
780.513	0.03
780.818	0.03
781.123	0.03
781.428	0.03
781.733	0.03
782.038	0.03
782.343	0.03
782.647	0.03
782.952	0.03
783.256	0.03
783.561	0.03
783.865	0.03
784.17	0.03
784.474	0.03
784.778	0.03
785.082	0.03
785.386	0.03
785.69	0.03
785.994	0.03
786.298	0.03
786.602	0.03
786.906	0.03
787.209	0.03
787.513	0.03
787.817	0.03
788.12	0.03
788.424	0.03
788.727	0.03
789.03	0.03
789.333	0.02
789.637	0.03
789.94	0.03
790.243	0.03
790.546	0.03
790.849	0.03
791.152	0.03
791.454	0.03
791.757	0.03
792.06	0.03
792.362	0.04
792.665	0.03
792.967	0.03
793.27	0.03
793.572	0.03
793.874	0.03
794.177	0.03
794.479	0.03
794.781	0.03
795.083	0.03
795.385	0.03
795.687	0.03
795.989	0.04
796.29	0.04
796.592	0.03
796.894	0.04
797.195	0.04
797.497	0.04
797.798	0.04
798.1	0.04
798.401	0.04
798.702	0.04
799.003	0.04
799.304	0.04
799.605	0.04
799.906	0.04
800.207	0.04
800.508	0.04
800.809	0.04
801.11	0.04
801.41	0.04
801.711	0.04
802.011	0.04
802.312	0.04
802.612	0.04
802.913	0.04
803.213	0.04
803.513	0.04
803.813	0.03
804.113	0.03
804.413	0.03
804.713	0.03
805.013	0.03
805.313	0.04
805.613	0.03
805.912	0.04
806.212	0.04
806.511	0.04
806.811	0.04
807.11	0.04
807.41	0.04
807.709	0.04
808.008	0.04
808.307	0.04
808.606	0.04
808.905	0.04
809.204	0.04
809.503	0.04
809.802	0.04
810.101	0.04
810.399	0.04
810.698	0.04
810.997	0.03
811.295	0.04
811.593	0.04
811.892	0.04
812.19	0.04
812.488	0.04
812.786	0.04
813.084	0.04
813.383	0.04
813.68	0.04
813.978	0.04
814.276	0.04
814.574	0.04
814.872	0.04
815.169	0.04
815.467	0.05
815.764	0.04
816.062	0.05
816.359	0.05
816.656	0.05
816.954	0.05
817.251	0.05
817.548	0.05
817.845	0.05
818.142	0.05
818.439	0.05
818.735	0.05
819.032	0.05
819.329	0.05
819.626	0.05
819.922	0.05
820.219	0.05
820.515	0.05
820.811	0.05
821.108	0.05
821.404	0.05
821.7	0.05
821.996	0.05
822.292	0.05
822.588	0.05
822.884	0.05
823.18	0.06
823.475	0.05
823.771	0.06
824.067	0.05
824.362	0.05
824.658	0.06
824.953	0.05
825.249	0.05
825.544	0.04
825.839	0.05
826.134	0.05
826.429	0.05
826.724	0.05
827.019	0.05
827.314	0.05
827.609	0.05
827.904	0.05
828.198	0.06
828.493	0.05
828.787	0.05
829.082	0.05
829.376	0.05
829.671	0.05
829.965	0.06
830.259	0.05
830.553	0.06
830.847	0.06
831.141	0.06
831.435	0.06
831.729	0.06
832.023	0.05
832.317	0.05
832.61	0.05
832.904	0.06
833.197	0.06
833.491	0.05
833.784	0.06
834.077	0.06
834.371	0.06
834.664	0.06
834.957	0.06
835.25	0.07
835.543	0.07
835.836	0.06
836.129	0.06
836.421	0.06
836.714	0.06
837.007	0.06
837.299	0.07
837.592	0.07
837.884	0.06
838.177	0.06
838.469	0.06
838.761	0.07
839.053	0.06
839.345	0.06
839.637	0.06
839.929	0.06
840.221	0.05
840.513	0.06
840.805	0.06
841.096	0.06
841.388	0.07
841.68	0.07
841.971	0.06
842.262	0.07
842.554	0.06
842.845	0.06
843.136	0.06
843.427	0.05
843.718	0.05
844.009	0.06
844.3	0.07
844.591	0.07
844.882	0.06
845.173	0.07
845.463	0.07
845.754	0.07
846.044	0.07
846.335	0.07
846.625	0.07
846.915	0.07
847.206	0.07
847.496	0.07
847.786	0.07
848.076	0.07
848.366	0.06
848.656	0.06
848.945	0.07
849.235	0.07
849.525	0.07
849.814	0.06
850.104	0.07
850.393	0.07
850.683	0.07
850.972	0.07
851.261	0.06
851.551	0.06
851.84	0.07
852.129	0.07
852.418	0.08
852.707	0.07
852.995	0.07
853.284	0.08
853.573	0.06
853.862	0.09
854.15	0.08
854.439	0.08
854.727	0.09
855.015	0.08
855.304	0.08
855.592	0.09
855.88	0.07
856.168	0.08
856.456	0.09
856.744	0.07
857.032	0.08
857.32	0.1
857.607	0.09
857.895	0.09
858.183	0.08
858.47	0.08
858.757	0.07
859.045	0.07
859.332	0.07
859.619	0.08
859.907	0.1
860.194	0.11
860.481	0.09
860.768	0.1
861.054	0.08
861.341	0.08
861.628	0.1
861.915	0.07
862.201	0.08
862.488	0.09
862.774	0.09
863.061	0.11
863.347	0.08
863.633	0.08
863.919	0.1
864.205	0.08
864.491	0.08
864.777	0.07
865.063	0.06
865.349	0.06
865.635	0.07
865.92	0.06
866.206	0.05
866.492	0.08
866.777	0.07
867.062	0.07
867.348	0.07
867.633	0.07
867.918	0.1
868.203	0.11
868.488	0.05
868.773	0.07
869.058	0.09
869.343	0.08
869.628	0.08
869.912	0.09
870.197	0.07
870.482	0.1
870.766	0.06
871.05	0.06
871.335	0.06
871.619	0.07
871.903	0.09
872.187	0.06
872.471	0.06
872.755	0.08
873.039	0.03
873.323	0.05
873.607	0.06
873.89	0.05
874.174	0.07
874.458	0.08
874.741	0.08
875.024	0.02
875.308	0.06
875.591	0.08
875.874	0.07
876.157	0.06
876.44	0.07
876.723	0.07
877.006	0.07
877.289	0.01
877.572	0.07
877.854	0.1
878.137	0.02
878.42	0.13
878.702	0.06
878.984	0.01
879.267	0.01
879.549	0.06
879.831	0.08
880.113	0.04
880.395	0.03
880.677	-0.03
880.959	-0.02
