Data from Rubpy_BV_600_EDTA_Buffered_Absorbance_12-23-06-617.txt Node
Date: Wed Jul 01 12:23:06 BST 2026
User: fpm-admin
Spectrometer: OFX00224
Trigger mode: 0
Integration Time (sec): 7.000000E-2
Scans to average: 3
Nonlinearity correction enabled: false
Boxcar width: 0
Storing dark spectrum: false
XAxis mode: Wavelengths
Number of Pixels in Spectrum: 2136
>>>>>Begin Spectral Data<<<<<
154.91	-0
155.289	0.75
155.669	-0
156.048	-0
156.428	0.05
156.807	-0.58
157.186	0.27
157.566	-0
157.945	-0.27
158.325	0.46
158.704	-0
159.083	-0
159.462	0.56
159.842	0.6
160.221	0.11
160.6	0.27
160.979	0.27
161.359	-0.14
161.738	-0
162.117	-0
162.496	-0
162.875	-0
163.254	-0
163.633	-0.7
164.012	-0.06
164.391	-0
164.77	0.85
165.149	-0
165.528	-0
165.907	-0
166.286	-0
166.665	0.18
167.044	-0
167.423	0.02
167.802	-0
168.181	0.45
168.559	0.51
168.938	-0
169.317	-0
169.696	-0.3
170.074	-0.09
170.453	-0.45
170.832	0.69
171.21	-0.99
171.589	-0
171.968	0.35
172.346	-0.06
172.725	-0
173.103	0.15
173.482	0.12
173.861	-1.04
174.239	-0
174.617	0.19
174.996	-0
175.374	0.07
175.753	-0
176.131	-0.29
176.51	-0.38
176.888	0.21
177.266	0.27
177.645	0.06
178.023	0.14
178.401	-0.09
178.779	-0.08
179.158	0.15
179.536	0.44
179.914	-0.17
180.292	-0.07
180.67	0.02
181.048	0.03
181.427	0.14
181.805	-0
182.183	-0
182.561	-0
182.939	0.02
183.317	-0
183.695	-0
184.073	0.85
184.451	-0
184.829	-0
185.206	-0.34
185.584	0.4
185.962	0.78
186.34	-0.39
186.718	-0.68
187.096	-0
187.473	-0
187.851	-0.23
188.229	-0.4
188.607	-0.06
188.984	0.07
189.362	-0.03
189.74	-0
190.117	-0.03
190.495	0.1
190.872	-0.08
191.25	-0.06
191.627	0.1
192.005	0.18
192.382	0.08
192.76	0.07
193.137	-0.02
193.515	-0.09
193.892	0.09
194.269	0.05
194.647	-0.02
195.024	0.04
195.401	0
195.779	-0.05
196.156	0.01
196.533	0.05
196.91	0.14
197.288	-0.04
197.665	0.09
198.042	0.03
198.419	0
198.796	0.02
199.173	-0.02
199.55	-0.06
199.927	0.11
200.304	-0.04
200.681	0.02
201.058	-0.14
201.435	0.01
201.812	0.1
202.189	0.06
202.566	0.01
202.943	0.01
203.32	0.01
203.697	-0.1
204.073	-0.04
204.45	-0.09
204.827	0.04
205.204	-0.06
205.58	0.04
205.957	-0.03
206.334	0.13
206.71	0.06
207.087	0.05
207.464	0.09
207.84	-0.02
208.217	0.01
208.593	0.02
208.97	0.07
209.346	0.07
209.723	-0.01
210.099	-0.06
210.476	0.05
210.852	-0.01
211.228	0.12
211.605	0
211.981	0.04
212.357	-0
212.733	-0
213.11	0.04
213.486	-0.08
213.862	0.1
214.238	0.06
214.614	-0.05
214.991	0.11
215.367	0.08
215.743	0.06
216.119	0.05
216.495	0.09
216.871	0.01
217.247	-0.04
217.623	0.03
217.999	-0.01
218.375	0.03
218.751	0.1
219.127	-0.03
219.502	-0.01
219.878	0.02
220.254	-0.02
220.63	0.03
221.006	0.04
221.381	0.04
221.757	0.09
222.133	0.03
222.508	-0.01
222.884	0.07
223.26	0.05
223.635	0.1
224.011	-0.03
224.386	0.04
224.762	0.04
225.137	0.05
225.513	-0.01
225.888	0.03
226.264	-0.01
226.639	0.04
227.014	0.04
227.39	0.02
227.765	0.08
228.14	-0
228.516	0.11
228.891	0.07
229.266	0.05
229.641	0.02
230.017	0.02
230.392	0.06
230.767	-0
231.142	0.09
231.517	0.06
231.892	0.08
232.267	0.03
232.642	0
233.017	-0.06
233.392	0.02
233.767	0.11
234.142	0.06
234.517	0.06
234.892	0.06
235.267	0.06
235.641	0.03
236.016	0.03
236.391	0.05
236.766	-0.04
237.14	0.01
237.515	0.01
237.89	-0.04
238.264	-0.03
238.639	0.01
239.014	0.02
239.388	0.04
239.763	0.08
240.137	0.11
240.512	0.06
240.886	-0.03
241.261	0.04
241.635	0.15
242.009	0.14
242.384	0.06
242.758	0.03
243.132	0.09
243.507	-0
243.881	0.04
244.255	0.07
244.629	-0.01
245.004	0.07
245.378	0.03
245.752	0.02
246.126	0.07
246.5	0.01
246.874	0.09
247.248	0.06
247.622	-0.01
247.996	-0.01
248.37	0.03
248.744	0.14
249.118	0.15
249.492	0.14
249.866	0.01
250.24	0.07
250.613	0.09
250.987	0.1
251.361	0.04
251.735	0.05
252.108	0.01
252.482	0.06
252.856	0
253.229	-0.06
253.603	-0.01
253.977	0
254.35	0.07
254.724	0.03
255.097	0.12
255.471	0.04
255.844	0.02
256.218	0.02
256.591	0.07
256.964	0.02
257.338	0.07
257.711	0.01
258.084	0.05
258.458	0.02
258.831	0.1
259.204	0.02
259.577	0.07
259.95	0.04
260.323	0.07
260.697	0.01
261.07	0.01
261.443	0.05
261.816	0.02
262.189	0.02
262.562	0.04
262.935	0.03
263.308	0.02
263.68	0.05
264.053	0.02
264.426	0.08
264.799	0.06
265.172	0.05
265.545	0.06
265.917	0.05
266.29	0.05
266.663	0.07
267.035	0.07
267.408	0.07
267.781	0.03
268.153	0.07
268.526	0.01
268.898	0.02
269.271	0.11
269.643	0.01
270.016	0.06
270.388	0.09
270.76	0.05
271.133	0.07
271.505	0.04
271.877	0.08
272.25	0.05
272.622	0.13
272.994	0.04
273.366	0.09
273.739	0.07
274.111	0.04
274.483	0.1
274.855	0.07
275.227	0.04
275.599	0.06
275.971	-0.04
276.343	0.04
276.715	0.01
277.087	0.03
277.459	0
277.831	0.06
278.203	0.03
278.574	0.04
278.946	0.05
279.318	0.06
279.69	0.09
280.061	0.05
280.433	0.02
280.805	0.07
281.176	0.09
281.548	0.02
281.92	0.09
282.291	0.08
282.663	0.04
283.034	0.12
283.406	0.06
283.777	0.08
284.148	0.06
284.52	0.03
284.891	0.05
285.262	0.03
285.634	0.05
286.005	0.05
286.376	0.09
286.747	0.02
287.119	0.05
287.49	0.06
287.861	-0.02
288.232	0.06
288.603	0.03
288.974	0.06
289.345	0.08
289.716	0.05
290.087	0.1
290.458	-0
290.829	0.03
291.2	0.15
291.571	0.03
291.941	0.02
292.312	0.11
292.683	0.02
293.054	0.07
293.424	0.02
293.795	0.05
294.166	0.04
294.536	0.02
294.907	0.04
295.277	0.06
295.648	0.07
296.018	0.1
296.389	0.06
296.759	0.04
297.13	0.05
297.5	0.06
297.871	0.03
298.241	0.02
298.611	0.01
298.981	0.01
299.352	0.02
299.722	0.07
300.092	0.01
300.462	-0.02
300.832	0.05
301.202	0.06
301.573	0.02
301.943	0.07
302.313	0.01
302.683	0.05
303.053	0.03
303.422	0.01
303.792	0.02
304.162	0.04
304.532	0.02
304.902	0.01
305.272	0.04
305.641	0.03
306.011	0.02
306.381	0.02
306.75	0.01
307.12	0.01
307.49	0.03
307.859	0.01
308.229	0.02
308.598	0.03
308.968	0.01
309.337	0.03
309.707	0.02
310.076	0.03
310.445	0.02
310.815	0.04
311.184	0.03
311.553	0.03
311.923	0.04
312.292	0.04
312.661	0.03
313.03	0.04
313.399	0.04
313.768	0.04
314.137	0.04
314.506	0.04
314.875	0.04
315.244	0.05
315.613	0.04
315.982	0.04
316.351	0.05
316.72	0.03
317.089	0.05
317.458	0.04
317.826	0.04
318.195	0.05
318.564	0.05
318.933	0.04
319.301	0.05
319.67	0.05
320.038	0.05
320.407	0.05
320.775	0.05
321.144	0.05
321.512	0.05
321.881	0.05
322.249	0.05
322.618	0.05
322.986	0.05
323.354	0.06
323.723	0.06
324.091	0.06
324.459	0.05
324.827	0.06
325.195	0.05
325.564	0.06
325.932	0.06
326.3	0.07
326.668	0.06
327.036	0.06
327.404	0.06
327.772	0.06
328.14	0.07
328.508	0.06
328.875	0.06
329.243	0.07
329.611	0.07
329.979	0.06
330.346	0.07
330.714	0.07
331.082	0.07
331.449	0.07
331.817	0.07
332.185	0.07
332.552	0.07
332.92	0.07
333.287	0.08
333.655	0.08
334.022	0.08
334.389	0.08
334.757	0.08
335.124	0.08
335.491	0.08
335.859	0.08
336.226	0.08
336.593	0.09
336.96	0.09
337.327	0.09
337.695	0.09
338.062	0.09
338.429	0.1
338.796	0.1
339.163	0.1
339.53	0.1
339.897	0.1
340.263	0.1
340.63	0.1
340.997	0.11
341.364	0.11
341.731	0.11
342.097	0.11
342.464	0.11
342.831	0.11
343.197	0.12
343.564	0.12
343.931	0.12
344.297	0.12
344.664	0.13
345.03	0.13
345.396	0.13
345.763	0.13
346.129	0.13
346.496	0.13
346.862	0.14
347.228	0.14
347.594	0.14
347.961	0.14
348.327	0.15
348.693	0.15
349.059	0.15
349.425	0.15
349.791	0.15
350.157	0.15
350.523	0.15
350.889	0.16
351.255	0.16
351.621	0.16
351.987	0.16
352.353	0.16
352.719	0.17
353.084	0.17
353.45	0.17
353.816	0.17
354.181	0.17
354.547	0.18
354.913	0.18
355.278	0.18
355.644	0.19
356.009	0.19
356.375	0.19
356.74	0.19
357.106	0.2
357.471	0.2
357.836	0.2
358.202	0.2
358.567	0.21
358.932	0.21
359.297	0.21
359.663	0.21
360.028	0.22
360.393	0.22
360.758	0.23
361.123	0.24
361.488	0.23
361.853	0.24
362.218	0.24
362.583	0.25
362.948	0.25
363.312	0.25
363.677	0.25
364.042	0.25
364.407	0.26
364.772	0.26
365.136	0.26
365.501	0.27
365.865	0.27
366.23	0.28
366.595	0.28
366.959	0.28
367.324	0.28
367.688	0.28
368.052	0.29
368.417	0.29
368.781	0.29
369.145	0.3
369.51	0.3
369.874	0.3
370.238	0.31
370.602	0.31
370.967	0.31
371.331	0.31
371.695	0.31
372.059	0.32
372.423	0.32
372.787	0.32
373.151	0.32
373.515	0.32
373.878	0.32
374.242	0.31
374.606	0.32
374.97	0.32
375.334	0.31
375.697	0.31
376.061	0.31
376.425	0.3
376.788	0.31
377.152	0.3
377.515	0.3
377.879	0.29
378.242	0.3
378.606	0.29
378.969	0.28
379.333	0.28
379.696	0.28
380.059	0.28
380.422	0.28
380.786	0.28
381.149	0.27
381.512	0.27
381.875	0.27
382.238	0.27
382.601	0.27
382.964	0.27
383.327	0.27
383.69	0.26
384.053	0.27
384.416	0.27
384.779	0.27
385.142	0.27
385.504	0.27
385.867	0.27
386.23	0.27
386.593	0.27
386.955	0.28
387.318	0.28
387.68	0.28
388.043	0.28
388.405	0.29
388.768	0.29
389.13	0.29
389.493	0.29
389.855	0.29
390.217	0.29
390.58	0.29
390.942	0.29
391.304	0.29
391.666	0.28
392.028	0.29
392.391	0.28
392.753	0.28
393.115	0.27
393.477	0.27
393.839	0.27
394.201	0.27
394.563	0.27
394.924	0.27
395.286	0.27
395.648	0.28
396.01	0.28
396.371	0.28
396.733	0.29
397.095	0.3
397.456	0.31
397.818	0.31
398.18	0.32
398.541	0.33
398.903	0.34
399.264	0.35
399.625	0.36
399.987	0.37
400.348	0.38
400.709	0.38
401.071	0.38
401.432	0.39
401.793	0.39
402.154	0.39
402.515	0.38
402.876	0.38
403.238	0.38
403.599	0.36
403.96	0.35
404.32	0.34
404.681	0.33
405.042	0.31
405.403	0.3
405.764	0.28
406.125	0.27
406.485	0.26
406.846	0.24
407.207	0.23
407.567	0.21
407.928	0.21
408.288	0.19
408.649	0.17
409.009	0.17
409.37	0.16
409.73	0.15
410.091	0.13
410.451	0.13
410.811	0.12
411.171	0.11
411.532	0.11
411.892	0.11
412.252	0.1
412.612	0.09
412.972	0.09
413.332	0.09
413.692	0.08
414.052	0.08
414.412	0.08
414.772	0.07
415.132	0.07
415.492	0.07
415.851	0.07
416.211	0.06
416.571	0.06
416.931	0.06
417.29	0.06
417.65	0.06
418.009	0.05
418.369	0.05
418.728	0.05
419.088	0.05
419.447	0.05
419.807	0.05
420.166	0.04
420.525	0.05
420.884	0.04
421.244	0.04
421.603	0.04
421.962	0.04
422.321	0.03
422.68	0.04
423.039	0.04
423.398	0.04
423.757	0.03
424.116	0.04
424.475	0.04
424.834	0.03
425.193	0.03
425.551	0.03
425.91	0.03
426.269	0.04
426.628	0.03
426.986	0.04
427.345	0.04
427.703	0.03
428.062	0.03
428.42	0.03
428.779	0.03
429.137	0.03
429.496	0.03
429.854	0.03
430.212	0.02
430.57	0.03
430.929	0.02
431.287	0.02
431.645	0.03
432.003	0.03
432.361	0.02
432.719	0.03
433.077	0.03
433.435	0.02
433.793	0.03
434.151	0.02
434.509	0.03
434.866	0.03
435.224	0.03
435.582	0.02
435.94	0.02
436.297	0.02
436.655	0.03
437.012	0.03
437.37	0.03
437.727	0.02
438.085	0.03
438.442	0.03
438.8	0.02
439.157	0.02
439.514	0.02
439.872	0.03
440.229	0.02
440.586	0.02
440.943	0.02
441.3	0.02
441.657	0.02
442.014	0.02
442.371	0.02
442.728	0.02
443.085	0.03
443.442	0.02
443.799	0.02
444.156	0.01
444.513	0.02
444.869	0.02
445.226	0.02
445.583	0.02
445.939	0.02
446.296	0.01
446.652	0.02
447.009	0.02
447.365	0.02
447.722	0.02
448.078	0.01
448.434	0.01
448.791	0.01
449.147	0.02
449.503	0.01
449.859	0.02
450.215	0.02
450.571	0.02
450.928	0.02
451.284	0.01
451.64	0.01
451.995	0.01
452.351	0.01
452.707	0.01
453.063	0.01
453.419	0.01
453.775	0.01
454.13	0.01
454.486	0.02
454.842	0.01
455.197	0.01
455.553	0.01
455.908	-0
456.264	0
456.619	-0.01
456.975	-0
457.33	-0
457.685	0
458.04	-0.01
458.396	-0
458.751	-0.02
459.106	-0.02
459.461	-0.01
459.816	-0.01
460.171	-0.02
460.526	-0.02
460.881	-0.02
461.236	-0.02
461.591	-0.03
461.946	-0.02
462.301	-0.03
462.655	-0.03
463.01	-0.03
463.365	-0.03
463.719	-0.04
464.074	-0.03
464.428	-0.04
464.783	-0.03
465.137	-0.04
465.492	-0.05
465.846	-0.04
466.201	-0.04
466.555	-0.03
466.909	-0.04
467.263	-0.04
467.618	-0.04
467.972	-0.04
468.326	-0.04
468.68	-0.04
469.034	-0.04
469.388	-0.04
469.742	-0.05
470.096	-0.04
470.45	-0.04
470.804	-0.04
471.157	-0.05
471.511	-0.04
471.865	-0.04
472.218	-0.04
472.572	-0.04
472.926	-0.03
473.279	-0.03
473.633	-0.03
473.986	-0.03
474.34	-0.02
474.693	-0.02
475.046	-0.02
475.4	-0.01
475.753	-0.01
476.106	-0.01
476.459	-0
476.812	0
477.165	-0
477.519	0.01
477.872	0
478.224	0.01
478.577	0.01
478.93	0.01
479.283	0.01
479.636	0.02
479.989	0.02
480.341	0.02
480.694	0.02
481.047	0.02
481.399	0.02
481.752	0.03
482.104	0.03
482.457	0.03
482.809	0.03
483.162	0.03
483.514	0.03
483.866	0.04
484.219	0.04
484.571	0.04
484.923	0.04
485.275	0.04
485.627	0.04
485.979	0.04
486.331	0.04
486.683	0.04
487.035	0.04
487.387	0.04
487.739	0.04
488.091	0.05
488.443	0.05
488.794	0.05
489.146	0.05
489.498	0.05
489.849	0.05
490.201	0.05
490.552	0.05
490.904	0.05
491.255	0.05
491.607	0.06
491.958	0.05
492.309	0.06
492.661	0.06
493.012	0.06
493.363	0.05
493.714	0.06
494.065	0.05
494.416	0.06
494.767	0.06
495.118	0.06
495.469	0.06
495.82	0.06
496.171	0.06
496.522	0.06
496.872	0.07
497.223	0.06
497.574	0.07
497.924	0.07
498.275	0.07
498.626	0.07
498.976	0.07
499.327	0.07
499.677	0.08
500.027	0.07
500.378	0.07
500.728	0.08
501.078	0.08
501.428	0.08
501.779	0.07
502.129	0.07
502.479	0.08
502.829	0.08
503.179	0.08
503.529	0.08
503.879	0.08
504.229	0.08
504.578	0.08
504.928	0.08
505.278	0.08
505.628	0.08
505.977	0.08
506.327	0.08
506.676	0.08
507.026	0.09
507.375	0.09
507.725	0.09
508.074	0.09
508.424	0.09
508.773	0.09
509.122	0.09
509.471	0.09
509.82	0.09
510.17	0.09
510.519	0.09
510.868	0.09
511.217	0.09
511.566	0.09
511.915	0.09
512.263	0.09
512.612	0.1
512.961	0.1
513.31	0.09
513.659	0.1
514.007	0.1
514.356	0.1
514.704	0.1
515.053	0.1
515.401	0.1
515.75	0.1
516.098	0.1
516.447	0.1
516.795	0.1
517.143	0.1
517.491	0.11
517.839	0.1
518.188	0.1
518.536	0.1
518.884	0.11
519.232	0.1
519.58	0.11
519.928	0.11
520.275	0.1
520.623	0.11
520.971	0.11
521.319	0.11
521.666	0.11
522.014	0.11
522.362	0.12
522.709	0.11
523.057	0.11
523.404	0.11
523.752	0.11
524.099	0.11
524.446	0.11
524.794	0.11
525.141	0.12
525.488	0.12
525.835	0.12
526.182	0.12
526.529	0.12
526.876	0.12
527.223	0.12
527.57	0.12
527.917	0.12
528.264	0.12
528.611	0.12
528.958	0.12
529.304	0.12
529.651	0.13
529.998	0.12
530.344	0.13
530.691	0.12
531.037	0.12
531.384	0.12
531.73	0.12
532.076	0.13
532.423	0.13
532.769	0.13
533.115	0.12
533.461	0.13
533.807	0.13
534.154	0.13
534.5	0.13
534.846	0.13
535.192	0.13
535.537	0.13
535.883	0.13
536.229	0.13
536.575	0.13
536.921	0.13
537.266	0.13
537.612	0.13
537.957	0.13
538.303	0.13
538.649	0.13
538.994	0.13
539.339	0.13
539.685	0.13
540.03	0.13
540.375	0.13
540.721	0.13
541.066	0.13
541.411	0.14
541.756	0.14
542.101	0.13
542.446	0.13
542.791	0.13
543.136	0.13
543.481	0.14
543.825	0.14
544.17	0.14
544.515	0.14
544.86	0.14
545.204	0.14
545.549	0.14
545.893	0.14
546.238	0.14
546.582	0.14
546.927	0.14
547.271	0.14
547.615	0.14
547.96	0.14
548.304	0.14
548.648	0.14
548.992	0.14
549.336	0.14
549.68	0.14
550.024	0.14
550.368	0.15
550.712	0.15
551.056	0.15
551.4	0.15
551.743	0.15
552.087	0.14
552.431	0.14
552.774	0.15
553.118	0.15
553.462	0.14
553.805	0.15
554.148	0.14
554.492	0.15
554.835	0.15
555.178	0.15
555.522	0.15
555.865	0.14
556.208	0.14
556.551	0.15
556.894	0.15
557.237	0.15
557.58	0.15
557.923	0.15
558.266	0.15
558.609	0.15
558.952	0.15
559.294	0.15
559.637	0.15
559.98	0.15
560.322	0.15
560.665	0.15
561.007	0.15
561.35	0.15
561.692	0.15
562.034	0.15
562.377	0.15
562.719	0.15
563.061	0.15
563.403	0.15
563.745	0.15
564.088	0.15
564.43	0.15
564.772	0.15
565.113	0.15
565.455	0.15
565.797	0.15
566.139	0.15
566.481	0.15
566.822	0.15
567.164	0.15
567.506	0.15
567.847	0.15
568.189	0.15
568.53	0.15
568.872	0.15
569.213	0.15
569.554	0.15
569.895	0.15
570.237	0.15
570.578	0.15
570.919	0.15
571.26	0.14
571.601	0.14
571.942	0.14
572.283	0.14
572.624	0.14
572.965	0.14
573.306	0.14
573.646	0.14
573.987	0.13
574.328	0.14
574.668	0.14
575.009	0.14
575.349	0.13
575.69	0.13
576.03	0.13
576.37	0.12
576.711	0.11
577.051	0.11
577.391	0.12
577.731	0.13
578.072	0.13
578.412	0.12
578.752	0.12
579.092	0.11
579.431	0.08
579.771	0.06
580.111	0.05
580.451	0.06
580.791	0.09
581.13	0.11
581.47	0.12
581.81	0.12
582.149	0.11
582.489	0.12
582.828	0.09
583.167	0.05
583.507	0.03
583.846	0.02
584.185	0.04
584.525	0.06
584.864	0.09
585.203	0.11
585.542	0.13
585.881	0.13
586.22	0.13
586.559	0.1
586.898	0.08
587.236	0.07
587.575	0.07
587.914	0.08
588.252	0.1
588.591	0.11
588.93	0.11
589.268	0.1
589.607	0.1
589.945	0.1
590.283	0.1
590.622	0.11
590.96	0.13
591.298	0.13
591.636	0.13
591.974	0.13
592.313	0.14
592.651	0.14
592.989	0.14
593.326	0.14
593.664	0.14
594.002	0.14
594.34	0.13
594.678	0.12
595.015	0.09
595.353	0.08
595.691	0.09
596.028	0.11
596.366	0.13
596.703	0.13
597.04	0.14
597.378	0.13
597.715	0.14
598.052	0.14
598.389	0.14
598.726	0.14
599.064	0.14
599.401	0.14
599.738	0.14
600.074	0.14
600.411	0.13
600.748	0.11
601.085	0.1
601.422	0.09
601.758	0.1
602.095	0.1
602.432	0.11
602.768	0.11
603.105	0.13
603.441	0.13
603.777	0.14
604.114	0.14
604.45	0.14
604.786	0.14
605.122	0.14
605.459	0.14
605.795	0.13
606.131	0.13
606.467	0.14
606.803	0.14
607.139	0.14
607.474	0.13
607.81	0.13
608.146	0.13
608.482	0.13
608.817	0.13
609.153	0.13
609.488	0.12
609.824	0.12
610.159	0.13
610.495	0.13
610.83	0.14
611.165	0.13
611.5	0.14
611.836	0.14
612.171	0.14
612.506	0.14
612.841	0.14
613.176	0.14
613.511	0.14
613.845	0.14
614.18	0.13
614.515	0.14
614.85	0.14
615.184	0.13
615.519	0.13
615.854	0.13
616.188	0.13
616.523	0.13
616.857	0.13
617.191	0.13
617.526	0.13
617.86	0.13
618.194	0.13
618.528	0.13
618.862	0.13
619.196	0.13
619.53	0.13
619.864	0.13
620.198	0.13
620.532	0.13
620.866	0.13
621.2	0.13
621.533	0.13
621.867	0.13
622.201	0.13
622.534	0.13
622.868	0.13
623.201	0.13
623.534	0.13
623.868	0.13
624.201	0.12
624.534	0.12
624.868	0.12
625.201	0.12
625.534	0.12
625.867	0.12
626.2	0.12
626.533	0.12
626.865	0.12
627.198	0.12
627.531	0.12
627.864	0.12
628.196	0.12
628.529	0.12
628.862	0.12
629.194	0.12
629.527	0.11
629.859	0.11
630.191	0.11
630.524	0.11
630.856	0.11
631.188	0.12
631.52	0.11
631.852	0.11
632.184	0.11
632.516	0.11
632.848	0.11
633.18	0.11
633.512	0.11
633.844	0.11
634.175	0.11
634.507	0.11
634.839	0.11
635.17	0.11
635.502	0.11
635.833	0.11
636.165	0.1
636.496	0.1
636.827	0.1
637.159	0.1
637.49	0.1
637.821	0.1
638.152	0.1
638.483	0.1
638.814	0.1
639.145	0.09
639.476	0.1
639.807	0.1
640.137	0.09
640.468	0.09
640.799	0.09
641.129	0.09
641.46	0.09
641.791	0.09
642.121	0.09
642.451	0.09
642.782	0.09
643.112	0.09
643.442	0.09
643.773	0.09
644.103	0.09
644.433	0.09
644.763	0.09
645.093	0.09
645.423	0.08
645.753	0.08
646.082	0.08
646.412	0.08
646.742	0.08
647.072	0.08
647.401	0.08
647.731	0.08
648.06	0.08
648.39	0.08
648.719	0.08
649.048	0.08
649.378	0.08
649.707	0.08
650.036	0.08
650.365	0.08
650.694	0.08
651.023	0.08
651.352	0.08
651.681	0.07
652.01	0.08
652.339	0.08
652.668	0.08
652.996	0.08
653.325	0.08
653.654	0.08
653.982	0.08
654.311	0.08
654.639	0.07
654.967	0.08
655.296	0.07
655.624	0.08
655.952	0.08
656.28	0.07
656.609	0.07
656.937	0.08
657.265	0.07
657.593	0
657.92	0
658.248	0
658.576	-0
658.904	-0
659.231	0
659.559	0.04
659.887	0.07
660.214	0.07
660.542	0.07
660.869	0.07
661.196	0.07
661.524	0.07
661.851	0.07
662.178	0.07
662.505	0.07
662.832	0.07
663.159	0.07
663.486	0.07
663.813	0.07
664.14	0.07
664.467	0.07
664.794	0.07
665.12	0.07
665.447	0.07
665.774	0.07
666.1	0.07
666.427	0.07
666.753	0.07
667.079	0.07
667.406	0.07
667.732	0.07
668.058	0.07
668.384	0.07
668.71	0.07
669.036	0.06
669.362	0.07
669.688	0.07
670.014	0.06
670.34	0.07
670.666	0.06
670.991	0.06
671.317	0.06
671.643	0.06
671.968	0.06
672.294	0.06
672.619	0.06
672.945	0.06
673.27	0.06
673.595	0.05
673.92	0.05
674.246	0.05
674.571	0.05
674.896	0.05
675.221	0.05
675.546	0.05
675.87	0.05
676.195	0.05
676.52	0.05
676.845	0.05
677.169	0.05
677.494	0.05
677.819	0.05
678.143	0.05
678.468	0.05
678.792	0.04
679.116	0.04
679.44	0.04
679.765	0.04
680.089	0.04
680.413	0.04
680.737	0.04
681.061	0.03
681.385	0.03
681.709	0.03
682.033	0.02
682.356	0.03
682.68	0.03
683.004	0.03
683.327	0.02
683.651	0.02
683.974	0.02
684.298	0.03
684.621	0.03
684.944	0.03
685.268	0.03
685.591	0.03
685.914	0.02
686.237	0.01
686.56	0.01
686.883	0.01
687.206	0
687.529	0
687.852	0
688.175	0
688.497	0.01
688.82	0.01
689.142	0.01
689.465	0.01
689.787	0.01
690.11	0.01
690.432	0.01
690.755	0.01
691.077	0.01
691.399	0
691.721	0.01
692.043	0.01
692.365	0
692.687	0
693.009	0
693.331	0
693.653	0
693.974	0
694.296	0
694.618	0
694.939	0
695.261	0
695.582	0
695.904	0
696.225	0
696.546	0
696.868	0
697.189	0
697.51	0
697.831	0
698.152	0
698.473	0
698.794	0
699.114	-0
699.435	0
699.756	0
700.077	0
700.397	0
700.718	0
701.038	0
701.359	0
701.679	0
701.999	0
702.32	0
702.64	0
702.96	0
703.28	0
703.6	0
703.92	0
704.24	0
704.56	0
704.879	-0
705.199	0
705.519	0
705.838	0
706.158	0
706.478	0
706.797	0
707.116	0
707.436	0
707.755	-0
708.074	0
708.393	-0
708.712	-0
709.031	-0
709.35	0
709.669	-0
709.988	0
710.307	0
710.626	0
710.944	0
711.263	-0
711.582	0
711.9	-0
712.219	0
712.537	-0
712.855	0
713.174	0
713.492	0
713.81	0
714.128	0
714.446	0
714.764	0
715.082	-0
715.4	-0
715.718	0
716.035	0
716.353	0
716.671	-0
716.988	0
717.306	0
717.623	-0
717.941	-0
718.258	0
718.575	0
718.893	0
719.21	0
719.527	0
719.844	-0
720.161	0
720.478	0
720.795	0
721.112	0
721.428	0
721.745	0
722.062	0
722.378	0
722.695	0
723.011	0
723.328	0
723.644	0
723.96	0
724.276	0
724.593	0
724.909	0
725.225	0
725.541	0
725.857	0
726.173	0
726.488	0
726.804	0
727.12	0
727.435	0
727.751	0
728.067	0
728.382	0
728.697	0
729.013	0
729.328	0
729.643	0
729.958	0
730.273	0
730.588	0
730.903	0
731.218	0
731.533	0
731.848	0
732.163	0
732.477	0
732.792	0
733.107	-0
733.421	0
733.736	0
734.05	0
734.364	0
734.678	0
734.993	0
735.307	0
735.621	0
735.935	0
736.249	0
736.563	0
736.877	0
737.19	0
737.504	0
737.818	0
738.131	0
738.445	0
738.758	0
739.072	0
739.385	0
739.698	0.01
740.012	0.01
740.325	0
740.638	0
740.951	0
741.264	0
741.577	0
741.89	0.01
742.203	0.01
742.515	0.01
742.828	0.01
743.141	0.01
743.453	0.01
743.766	0.01
744.078	0.01
744.391	0.01
744.703	0.01
745.015	0.01
745.327	0.01
745.639	0.01
745.952	0.01
746.264	0.01
746.575	0.01
746.887	0.01
747.199	0.01
747.511	0.01
747.823	0.01
748.134	0.01
748.446	0.01
748.757	0.01
749.069	0.01
749.38	0.01
749.692	0.01
750.003	0.01
750.314	0.01
750.625	0
750.936	0
751.248	0
751.559	0
751.869	0
752.18	0
752.491	0
752.802	0
753.112	0
753.423	0
753.734	0
754.044	0
754.355	0
754.665	0
754.975	0
755.285	0
755.596	0
755.906	0
756.216	0
756.526	0
756.836	0
757.146	0
757.455	0
757.765	0
758.075	0
758.385	0
758.694	0
759.004	-0
759.313	0
759.622	0
759.932	0
760.241	0
760.55	0
760.859	0
761.168	0
761.477	0
761.786	0
762.095	0
762.404	-0
762.713	0
763.021	0
763.33	0
763.639	0
763.947	0
764.256	0
764.564	0
764.872	0
765.181	0
765.489	0
765.797	0
766.105	0
766.413	0
766.721	0
767.029	0
767.337	0
767.644	0
767.952	0
768.26	0
768.567	0
768.875	0
769.182	0
769.49	0
769.797	0.01
770.104	0
770.411	0.01
770.718	0.01
771.026	0.01
771.333	0.01
771.639	0.01
771.946	0.01
772.253	0.01
772.56	0.01
772.867	0.01
773.173	0.01
773.48	0.01
773.786	0.01
774.093	0.01
774.399	0.01
774.705	0.01
775.012	0.01
775.318	0.01
775.624	0.01
775.93	0.01
776.236	0.01
776.542	0.01
776.848	0.01
777.154	0.01
777.459	0
777.765	0.01
778.071	0
778.376	0
778.682	0
778.987	0
779.292	0
779.598	0
779.903	0.01
780.208	0.01
780.513	0.01
780.818	0.01
781.123	0
781.428	0
781.733	0.01
782.038	0
782.343	0
782.647	0.01
782.952	0.01
783.256	0.01
783.561	0.01
783.865	0.01
784.17	0.01
784.474	0.01
784.778	0.01
785.082	0.01
785.386	0.01
785.69	0.01
785.994	0.01
786.298	0
786.602	0.01
786.906	0.01
787.209	0.01
787.513	0.01
787.817	0.01
788.12	0
788.424	0
788.727	0
789.03	0
789.333	0
789.637	0
789.94	0
790.243	0.01
790.546	0.01
790.849	0.01
791.152	0
791.454	0.01
791.757	0.01
792.06	0.01
792.362	0.01
792.665	0.01
792.967	0.01
793.27	0
793.572	0
793.874	0
794.177	0
794.479	0
794.781	0
795.083	0
795.385	0.01
795.687	0
795.989	0.01
796.29	0.01
796.592	0.01
796.894	0.01
797.195	0.01
797.497	0.01
797.798	0.01
798.1	0.01
798.401	0.01
798.702	0.01
799.003	0.01
799.304	0.01
799.605	0.01
799.906	0.01
800.207	0.01
800.508	0.01
800.809	0.01
801.11	0.01
801.41	0.01
801.711	0.01
802.011	0.01
802.312	0.01
802.612	0.01
802.913	0.01
803.213	0
803.513	0
803.813	0
804.113	0.01
804.413	0
804.713	0
805.013	0
805.313	0.01
805.613	0
805.912	0.01
806.212	0.01
806.511	0.01
806.811	0.01
807.11	0.01
807.41	0.01
807.709	0.01
808.008	0.01
808.307	0.01
808.606	0.01
808.905	0.01
809.204	0.01
809.503	0.01
809.802	0
810.101	0
810.399	0.01
810.698	0
810.997	-0
811.295	0
811.593	0
811.892	0.01
812.19	0
812.488	0.01
812.786	0
813.084	0
813.383	0
813.68	0.01
813.978	0.01
814.276	0
814.574	0
814.872	0.01
815.169	0.01
815.467	0.01
815.764	0.01
816.062	0.01
816.359	0.01
816.656	0.01
816.954	0.01
817.251	0.01
817.548	0.01
817.845	0.02
818.142	0.01
818.439	0.01
818.735	0.01
819.032	0.01
819.329	0.01
819.626	0.01
819.922	0.01
820.219	0.01
820.515	0.02
820.811	0.01
821.108	0.01
821.404	0.01
821.7	0.01
821.996	0.01
822.292	0.01
822.588	0.01
822.884	0.01
823.18	0.01
823.475	0.01
823.771	0.02
824.067	0.02
824.362	0.02
824.658	0.02
824.953	0.01
825.249	0.01
825.544	0
825.839	0.01
826.134	0.01
826.429	0.01
826.724	0.01
827.019	0.01
827.314	0.01
827.609	0.01
827.904	0.01
828.198	0.01
828.493	0.01
828.787	0.01
829.082	0.01
829.376	0.01
829.671	0.01
829.965	0.01
830.259	0.01
830.553	0.02
830.847	0.01
831.141	0.01
831.435	0.01
831.729	0.01
832.023	0.01
832.317	0.01
832.61	0.01
832.904	0.01
833.197	0.01
833.491	0.01
833.784	0
834.077	0
834.371	0.01
834.664	0.01
834.957	0.01
835.25	0.01
835.543	0.01
835.836	0.01
836.129	0.01
836.421	0.01
836.714	0.01
837.007	0.01
837.299	0.01
837.592	0.01
837.884	0.02
838.177	0.01
838.469	0.01
838.761	0.01
839.053	0.01
839.345	0.01
839.637	0.01
839.929	0.01
840.221	0
840.513	0.01
840.805	0.01
841.096	0.01
841.388	0.01
841.68	0.01
841.971	0.01
842.262	0.01
842.554	0.01
842.845	0.01
843.136	0.01
843.427	0.01
843.718	0.01
844.009	0.01
844.3	0.01
844.591	0.01
844.882	0.01
845.173	0.01
845.463	0.02
845.754	0.02
846.044	0.01
846.335	0.01
846.625	0.01
846.915	0.01
847.206	0.01
847.496	0.02
847.786	0.01
848.076	0.02
848.366	0.01
848.656	0.01
848.945	0.01
849.235	0.01
849.525	0.01
849.814	0.01
850.104	0.01
850.393	0.02
850.683	0.02
850.972	0.01
851.261	0.01
851.551	0.01
851.84	0.02
852.129	0.01
852.418	0.01
852.707	0
852.995	0.02
853.284	0.01
853.573	0.01
853.862	0.02
854.15	0.01
854.439	0.02
854.727	0.02
855.015	0.01
855.304	0.02
855.592	0.02
855.88	0.02
856.168	0.02
856.456	0.02
856.744	0.02
857.032	0.02
857.32	0.03
857.607	0.03
857.895	0.02
858.183	0.02
858.47	0.01
858.757	0.02
859.045	0.02
859.332	0.02
859.619	0.02
859.907	0.03
860.194	0.04
860.481	0.03
860.768	0.04
861.054	0.02
861.341	0.02
861.628	0.02
861.915	0.02
862.201	0.01
862.488	0.02
862.774	0.02
863.061	0.04
863.347	0.01
863.633	0.01
863.919	0.03
864.205	0.03
864.491	0.01
864.777	0.01
865.063	0.02
865.349	0.01
865.635	0
865.92	-0
866.206	-0.01
866.492	0.03
866.777	0.02
867.062	-0
867.348	0.02
867.633	0
867.918	0.02
868.203	0.02
868.488	-0
868.773	0.02
869.058	0.03
869.343	0
869.628	0.02
869.912	0.01
870.197	0.01
870.482	-0
870.766	-0.01
871.05	0.01
871.335	0.01
871.619	0.01
871.903	0.01
872.187	0
872.471	-0.02
872.755	0.03
873.039	-0.01
873.323	0.02
873.607	0.04
873.89	-0.01
874.174	0.01
874.458	0
874.741	0.04
875.024	-0.02
875.308	-0
875.591	-0.04
875.874	0
876.157	0.04
876.44	0.01
876.723	-0.02
877.006	0.02
877.289	0.02
877.572	-0
877.854	0.01
878.137	-0.02
878.42	0.03
878.702	0.03
878.984	-0
879.267	0.01
879.549	0.05
879.831	0.04
880.113	0.01
880.395	-0.02
880.677	0
880.959	-0.05
