Data from Rubpy_BV_600_EDTA_Buffered_Absorbance_12-26-37-573.txt Node
Date: Wed Jul 01 12:26:37 BST 2026
User: fpm-admin
Spectrometer: OFX00224
Trigger mode: 0
Integration Time (sec): 7.000000E-2
Scans to average: 3
Nonlinearity correction enabled: false
Boxcar width: 0
Storing dark spectrum: false
XAxis mode: Wavelengths
Number of Pixels in Spectrum: 2136
>>>>>Begin Spectral Data<<<<<
154.91	-0.22
155.289	-0
155.669	-0
156.048	-0
156.428	0.41
156.807	-0
157.186	0.4
157.566	-0.95
157.945	0.32
158.325	1.54
158.704	0.65
159.083	-0.24
159.462	0.56
159.842	1.12
160.221	-0.22
160.6	-0.32
160.979	0.13
161.359	-0.19
161.738	-0.26
162.117	-0
162.496	1.2
162.875	-0
163.254	-0
163.633	-0.56
164.012	0.06
164.391	0.85
164.77	0.18
165.149	-0.23
165.528	-0
165.907	-0.08
166.286	0.59
166.665	0.48
167.044	-0
167.423	0.16
167.802	-0
168.181	0.12
168.559	-0.16
168.938	-1.06
169.317	-0.26
169.696	-0
170.074	-0.11
170.453	-0
170.832	0.11
171.21	-1.07
171.589	0.08
171.968	-0
172.346	0.29
172.725	-0
173.103	0.15
173.482	1.35
173.861	-1.04
174.239	-0.4
174.617	0.3
174.996	-0
175.374	-0
175.753	0.35
176.131	-0
176.51	-0.41
176.888	0.24
177.266	0.49
177.645	-0.02
178.023	0.67
178.401	-0.07
178.779	-0.14
179.158	-0.01
179.536	0.06
179.914	0.1
180.292	-0
180.67	0.44
181.048	-0
181.427	-0.02
181.805	0.6
182.183	0.3
182.561	-0
182.939	0.34
183.317	1.18
183.695	0.16
184.073	-0
184.451	-0.15
184.829	0.7
185.206	-0.14
185.584	-0
185.962	-0
186.34	-0.7
186.718	-0.44
187.096	-0
187.473	0.16
187.851	-0.31
188.229	-0
188.607	0.14
188.984	0.07
189.362	0.1
189.74	0.01
190.117	0.09
190.495	0.09
190.872	-0.03
191.25	0.04
191.627	0.1
192.005	0.08
192.382	0.07
192.76	0.03
193.137	0.15
193.515	0.07
193.892	0.12
194.269	-0.02
194.647	0.16
195.024	0.04
195.401	0.09
195.779	0.06
196.156	0.05
196.533	0.06
196.91	0.07
197.288	-0
197.665	0.1
198.042	0.14
198.419	0.04
198.796	0.08
199.173	0.09
199.55	-0.09
199.927	0.05
200.304	0.08
200.681	0.03
201.058	-0.11
201.435	-0
201.812	0.17
202.189	0.16
202.566	0.07
202.943	0.15
203.32	0.11
203.697	0.04
204.073	0.08
204.45	-0.05
204.827	0.03
205.204	0.03
205.58	0.08
205.957	0.03
206.334	0.07
206.71	0.01
207.087	0.07
207.464	0.06
207.84	0.04
208.217	0.02
208.593	0.08
208.97	0.05
209.346	0.21
209.723	0.04
210.099	0.02
210.476	0.13
210.852	0.07
211.228	0.13
211.605	0.11
211.981	0.14
212.357	0.02
212.733	0.11
213.11	0.2
213.486	0.02
213.862	0.09
214.238	0.09
214.614	0.02
214.991	0.2
215.367	0.17
215.743	0.02
216.119	0.08
216.495	0.1
216.871	0.11
217.247	0.02
217.623	0.06
217.999	-0.04
218.375	-0
218.751	0.11
219.127	0.01
219.502	0.05
219.878	0.03
220.254	0.07
220.63	0.08
221.006	0.06
221.381	0.08
221.757	0.08
222.133	0.03
222.508	0.15
222.884	0.12
223.26	0.01
223.635	0.1
224.011	0.03
224.386	0.15
224.762	0.12
225.137	0.11
225.513	0.07
225.888	0.04
226.264	0.03
226.639	0.06
227.014	0.09
227.39	0.1
227.765	0.07
228.14	0.09
228.516	0.11
228.891	0.13
229.266	0.07
229.641	0.12
230.017	0.08
230.392	0.14
230.767	0.16
231.142	0.19
231.517	0.13
231.892	0.13
232.267	0.2
232.642	0.1
233.017	0.03
233.392	0.02
233.767	0.18
234.142	0.17
234.517	0.04
234.892	0.14
235.267	0.07
235.641	0.07
236.016	0.14
236.391	0.06
236.766	0.08
237.14	0.06
237.515	0.06
237.89	0.08
238.264	0.08
238.639	0.18
239.014	0.17
239.388	0.12
239.763	0.12
240.137	0.08
240.512	0.08
240.886	0.06
241.261	0.16
241.635	0.15
242.009	0.15
242.384	0.23
242.758	0.03
243.132	0.14
243.507	0.08
243.881	0.15
244.255	0.13
244.629	0.06
245.004	0.07
245.378	0.1
245.752	0.16
246.126	0.21
246.5	-0
246.874	0.12
247.248	0.1
247.622	0.02
247.996	-0
248.37	0.14
248.744	0.12
249.118	0.17
249.492	0.13
249.866	0.11
250.24	0.15
250.613	0.19
250.987	0.09
251.361	0.05
251.735	0.03
252.108	0.13
252.482	0.13
252.856	0.02
253.229	0.02
253.603	-0.02
253.977	0.13
254.35	0.11
254.724	0.09
255.097	0.08
255.471	0.14
255.844	0.1
256.218	0.05
256.591	0.1
256.964	0.06
257.338	0.1
257.711	0.14
258.084	0.15
258.458	0.09
258.831	0.09
259.204	0.07
259.577	0.08
259.95	0.11
260.323	0.07
260.697	0.09
261.07	0.04
261.443	0.06
261.816	0.16
262.189	0.15
262.562	0.08
262.935	0.18
263.308	0.08
263.68	0.07
264.053	0.13
264.426	0.15
264.799	0.17
265.172	0.11
265.545	0.13
265.917	0.11
266.29	0.16
266.663	0.19
267.035	0.09
267.408	0.14
267.781	0.11
268.153	0.13
268.526	0.11
268.898	0.13
269.271	0.14
269.643	0.13
270.016	0.14
270.388	0.13
270.76	0.11
271.133	0.17
271.505	0.08
271.877	0.11
272.25	0.15
272.622	0.23
272.994	0.09
273.366	0.12
273.739	0.16
274.111	0.13
274.483	0.12
274.855	0.11
275.227	0.09
275.599	0.1
275.971	0.04
276.343	0.11
276.715	0.13
277.087	0.13
277.459	0.05
277.831	0.14
278.203	0.14
278.574	0.12
278.946	0.18
279.318	0.11
279.69	0.2
280.061	0.16
280.433	0.08
280.805	0.16
281.176	0.18
281.548	0.12
281.92	0.1
282.291	0.17
282.663	0.17
283.034	0.18
283.406	0.14
283.777	0.18
284.148	0.12
284.52	0.11
284.891	0.13
285.262	0.08
285.634	0.08
286.005	0.11
286.376	0.12
286.747	0.14
287.119	0.09
287.49	0.12
287.861	0.11
288.232	0.11
288.603	0.11
288.974	0.14
289.345	0.13
289.716	0.12
290.087	0.18
290.458	0.13
290.829	0.05
291.2	0.14
291.571	0.1
291.941	0.16
292.312	0.14
292.683	0.11
293.054	0.13
293.424	0.1
293.795	0.07
294.166	0.08
294.536	0.16
294.907	0.18
295.277	0.14
295.648	0.09
296.018	0.13
296.389	0.16
296.759	0.14
297.13	0.11
297.5	0.11
297.871	0.12
298.241	0.1
298.611	0.05
298.981	0.11
299.352	0.11
299.722	0.09
300.092	0.1
300.462	0.07
300.832	0.09
301.202	0.11
301.573	0.1
301.943	0.09
302.313	0.08
302.683	0.11
303.053	0.1
303.422	0.06
303.792	0.05
304.162	0.06
304.532	0.02
304.902	0.06
305.272	0.07
305.641	0.07
306.011	0.03
306.381	0.06
306.75	0.05
307.12	0.05
307.49	0.04
307.859	0.06
308.229	0.07
308.598	0.06
308.968	0.06
309.337	0.07
309.707	0.07
310.076	0.07
310.445	0.07
310.815	0.07
311.184	0.07
311.553	0.08
311.923	0.08
312.292	0.07
312.661	0.08
313.03	0.08
313.399	0.08
313.768	0.09
314.137	0.1
314.506	0.1
314.875	0.09
315.244	0.09
315.613	0.1
315.982	0.09
316.351	0.1
316.72	0.09
317.089	0.1
317.458	0.11
317.826	0.1
318.195	0.11
318.564	0.11
318.933	0.11
319.301	0.11
319.67	0.12
320.038	0.12
320.407	0.11
320.775	0.12
321.144	0.12
321.512	0.12
321.881	0.12
322.249	0.12
322.618	0.13
322.986	0.13
323.354	0.12
323.723	0.13
324.091	0.13
324.459	0.13
324.827	0.13
325.195	0.14
325.564	0.13
325.932	0.15
326.3	0.14
326.668	0.15
327.036	0.15
327.404	0.15
327.772	0.14
328.14	0.15
328.508	0.15
328.875	0.16
329.243	0.16
329.611	0.16
329.979	0.16
330.346	0.17
330.714	0.17
331.082	0.17
331.449	0.18
331.817	0.17
332.185	0.18
332.552	0.18
332.92	0.18
333.287	0.19
333.655	0.19
334.022	0.19
334.389	0.2
334.757	0.2
335.124	0.2
335.491	0.21
335.859	0.21
336.226	0.22
336.593	0.22
336.96	0.23
337.327	0.23
337.695	0.24
338.062	0.24
338.429	0.24
338.796	0.25
339.163	0.25
339.53	0.25
339.897	0.26
340.263	0.26
340.63	0.26
340.997	0.27
341.364	0.28
341.731	0.28
342.097	0.29
342.464	0.29
342.831	0.29
343.197	0.3
343.564	0.31
343.931	0.31
344.297	0.31
344.664	0.32
345.03	0.33
345.396	0.33
345.763	0.33
346.129	0.34
346.496	0.34
346.862	0.35
347.228	0.35
347.594	0.36
347.961	0.36
348.327	0.37
348.693	0.37
349.059	0.38
349.425	0.38
349.791	0.39
350.157	0.39
350.523	0.39
350.889	0.4
351.255	0.4
351.621	0.41
351.987	0.41
352.353	0.42
352.719	0.42
353.084	0.43
353.45	0.43
353.816	0.44
354.181	0.44
354.547	0.45
354.913	0.46
355.278	0.46
355.644	0.46
356.009	0.48
356.375	0.48
356.74	0.49
357.106	0.5
357.471	0.5
357.836	0.5
358.202	0.51
358.567	0.52
358.932	0.52
359.297	0.53
359.663	0.54
360.028	0.56
360.393	0.56
360.758	0.57
361.123	0.58
361.488	0.58
361.853	0.59
362.218	0.6
362.583	0.61
362.948	0.61
363.312	0.62
363.677	0.62
364.042	0.64
364.407	0.65
364.772	0.65
365.136	0.66
365.501	0.66
365.865	0.67
366.23	0.68
366.595	0.68
366.959	0.69
367.324	0.69
367.688	0.7
368.052	0.7
368.417	0.71
368.781	0.72
369.145	0.73
369.51	0.74
369.874	0.74
370.238	0.74
370.602	0.75
370.967	0.76
371.331	0.75
371.695	0.76
372.059	0.77
372.423	0.77
372.787	0.77
373.151	0.77
373.515	0.77
373.878	0.76
374.242	0.76
374.606	0.76
374.97	0.75
375.334	0.74
375.697	0.73
376.061	0.74
376.425	0.73
376.788	0.72
377.152	0.72
377.515	0.71
377.879	0.7
378.242	0.69
378.606	0.69
378.969	0.68
379.333	0.67
379.696	0.67
380.059	0.66
380.422	0.66
380.786	0.65
381.149	0.63
381.512	0.63
381.875	0.63
382.238	0.62
382.601	0.62
382.964	0.61
383.327	0.6
383.69	0.6
384.053	0.59
384.416	0.6
384.779	0.59
385.142	0.59
385.504	0.59
385.867	0.59
386.23	0.59
386.593	0.59
386.955	0.59
387.318	0.59
387.68	0.6
388.043	0.59
388.405	0.6
388.768	0.6
389.13	0.59
389.493	0.59
389.855	0.59
390.217	0.59
390.58	0.58
390.942	0.59
391.304	0.58
391.666	0.57
392.028	0.57
392.391	0.57
392.753	0.55
393.115	0.55
393.477	0.55
393.839	0.54
394.201	0.54
394.563	0.54
394.924	0.53
395.286	0.54
395.648	0.54
396.01	0.54
396.371	0.54
396.733	0.56
397.095	0.57
397.456	0.59
397.818	0.6
398.18	0.61
398.541	0.63
398.903	0.65
399.264	0.66
399.625	0.68
399.987	0.7
400.348	0.71
400.709	0.71
401.071	0.72
401.432	0.73
401.793	0.73
402.154	0.73
402.515	0.72
402.876	0.7
403.238	0.69
403.599	0.68
403.96	0.65
404.32	0.63
404.681	0.61
405.042	0.59
405.403	0.55
405.764	0.53
406.125	0.5
406.485	0.48
406.846	0.45
407.207	0.43
407.567	0.4
407.928	0.38
408.288	0.36
408.649	0.34
409.009	0.32
409.37	0.3
409.73	0.29
410.091	0.26
410.451	0.25
410.811	0.24
411.171	0.23
411.532	0.21
411.892	0.21
412.252	0.2
412.612	0.18
412.972	0.17
413.332	0.17
413.692	0.17
414.052	0.16
414.412	0.15
414.772	0.14
415.132	0.14
415.492	0.13
415.851	0.13
416.211	0.12
416.571	0.12
416.931	0.12
417.29	0.11
417.65	0.11
418.009	0.1
418.369	0.11
418.728	0.1
419.088	0.1
419.447	0.09
419.807	0.09
420.166	0.09
420.525	0.09
420.884	0.09
421.244	0.08
421.603	0.09
421.962	0.08
422.321	0.08
422.68	0.08
423.039	0.08
423.398	0.08
423.757	0.07
424.116	0.07
424.475	0.07
424.834	0.07
425.193	0.07
425.551	0.07
425.91	0.07
426.269	0.07
426.628	0.06
426.986	0.07
427.345	0.07
427.703	0.06
428.062	0.07
428.42	0.07
428.779	0.07
429.137	0.07
429.496	0.06
429.854	0.06
430.212	0.07
430.57	0.07
430.929	0.06
431.287	0.05
431.645	0.06
432.003	0.06
432.361	0.06
432.719	0.06
433.077	0.05
433.435	0.06
433.793	0.05
434.151	0.06
434.509	0.06
434.866	0.06
435.224	0.06
435.582	0.06
435.94	0.06
436.297	0.05
436.655	0.06
437.012	0.06
437.37	0.06
437.727	0.05
438.085	0.06
438.442	0.06
438.8	0.05
439.157	0.05
439.514	0.05
439.872	0.06
440.229	0.05
440.586	0.05
440.943	0.06
441.3	0.05
441.657	0.06
442.014	0.05
442.371	0.05
442.728	0.05
443.085	0.06
443.442	0.05
443.799	0.06
444.156	0.05
444.513	0.05
444.869	0.05
445.226	0.05
445.583	0.05
445.939	0.05
446.296	0.05
446.652	0.05
447.009	0.05
447.365	0.06
447.722	0.05
448.078	0.06
448.434	0.04
448.791	0.05
449.147	0.06
449.503	0.05
449.859	0.05
450.215	0.05
450.571	0.05
450.928	0.05
451.284	0.05
451.64	0.05
451.995	0.05
452.351	0.05
452.707	0.05
453.063	0.04
453.419	0.06
453.775	0.04
454.13	0.05
454.486	0.05
454.842	0.05
455.197	0.04
455.553	0.05
455.908	0.04
456.264	0.04
456.619	0.04
456.975	0.05
457.33	0.04
457.685	0.04
458.04	0.04
458.396	0.04
458.751	0.03
459.106	0.03
459.461	0.03
459.816	0.03
460.171	0.03
460.526	0.03
460.881	0.03
461.236	0.02
461.591	0.02
461.946	0.02
462.301	0.02
462.655	0.02
463.01	0.03
463.365	0.02
463.719	0.01
464.074	0.02
464.428	0.01
464.783	0.02
465.137	0.01
465.492	-0
465.846	0
466.201	0.01
466.555	0.01
466.909	0.01
467.263	0.02
467.618	0.02
467.972	0.02
468.326	0.02
468.68	0.01
469.034	0.01
469.388	0.01
469.742	0.01
470.096	0.01
470.45	0.02
470.804	0.01
471.157	0.01
471.511	0.01
471.865	0.02
472.218	0.02
472.572	0.02
472.926	0.03
473.279	0.03
473.633	0.04
473.986	0.04
474.34	0.04
474.693	0.04
475.046	0.05
475.4	0.05
475.753	0.05
476.106	0.06
476.459	0.07
476.812	0.07
477.165	0.07
477.519	0.07
477.872	0.07
478.224	0.08
478.577	0.08
478.93	0.09
479.283	0.09
479.636	0.09
479.989	0.09
480.341	0.1
480.694	0.09
481.047	0.1
481.399	0.1
481.752	0.11
482.104	0.11
482.457	0.11
482.809	0.11
483.162	0.12
483.514	0.12
483.866	0.12
484.219	0.12
484.571	0.13
484.923	0.13
485.275	0.13
485.627	0.13
485.979	0.13
486.331	0.13
486.683	0.14
487.035	0.14
487.387	0.14
487.739	0.14
488.091	0.14
488.443	0.15
488.794	0.14
489.146	0.15
489.498	0.15
489.849	0.15
490.201	0.15
490.552	0.15
490.904	0.16
491.255	0.16
491.607	0.16
491.958	0.16
492.309	0.16
492.661	0.16
493.012	0.16
493.363	0.16
493.714	0.17
494.065	0.17
494.416	0.17
494.767	0.17
495.118	0.17
495.469	0.17
495.82	0.18
496.171	0.18
496.522	0.18
496.872	0.18
497.223	0.18
497.574	0.18
497.924	0.18
498.275	0.19
498.626	0.19
498.976	0.19
499.327	0.2
499.677	0.19
500.027	0.2
500.378	0.2
500.728	0.2
501.078	0.2
501.428	0.2
501.779	0.2
502.129	0.2
502.479	0.21
502.829	0.21
503.179	0.21
503.529	0.21
503.879	0.21
504.229	0.22
504.578	0.22
504.928	0.22
505.278	0.22
505.628	0.22
505.977	0.22
506.327	0.22
506.676	0.22
507.026	0.23
507.375	0.23
507.725	0.23
508.074	0.23
508.424	0.23
508.773	0.23
509.122	0.24
509.471	0.23
509.82	0.24
510.17	0.24
510.519	0.24
510.868	0.24
511.217	0.24
511.566	0.24
511.915	0.25
512.263	0.25
512.612	0.25
512.961	0.25
513.31	0.25
513.659	0.25
514.007	0.25
514.356	0.26
514.704	0.26
515.053	0.26
515.401	0.26
515.75	0.26
516.098	0.26
516.447	0.26
516.795	0.26
517.143	0.26
517.491	0.27
517.839	0.27
518.188	0.27
518.536	0.27
518.884	0.27
519.232	0.28
519.58	0.28
519.928	0.28
520.275	0.27
520.623	0.28
520.971	0.28
521.319	0.28
521.666	0.28
522.014	0.28
522.362	0.29
522.709	0.29
523.057	0.28
523.404	0.29
523.752	0.29
524.099	0.29
524.446	0.29
524.794	0.29
525.141	0.3
525.488	0.3
525.835	0.3
526.182	0.29
526.529	0.29
526.876	0.3
527.223	0.3
527.57	0.3
527.917	0.3
528.264	0.31
528.611	0.31
528.958	0.31
529.304	0.3
529.651	0.31
529.998	0.31
530.344	0.31
530.691	0.31
531.037	0.31
531.384	0.31
531.73	0.31
532.076	0.32
532.423	0.31
532.769	0.32
533.115	0.31
533.461	0.32
533.807	0.32
534.154	0.32
534.5	0.32
534.846	0.32
535.192	0.32
535.537	0.32
535.883	0.32
536.229	0.32
536.575	0.32
536.921	0.32
537.266	0.33
537.612	0.32
537.957	0.32
538.303	0.32
538.649	0.33
538.994	0.33
539.339	0.33
539.685	0.33
540.03	0.33
540.375	0.33
540.721	0.33
541.066	0.33
541.411	0.33
541.756	0.33
542.101	0.33
542.446	0.34
542.791	0.34
543.136	0.33
543.481	0.34
543.825	0.34
544.17	0.34
544.515	0.34
544.86	0.34
545.204	0.34
545.549	0.34
545.893	0.34
546.238	0.34
546.582	0.34
546.927	0.34
547.271	0.34
547.615	0.34
547.96	0.34
548.304	0.35
548.648	0.35
548.992	0.35
549.336	0.35
549.68	0.35
550.024	0.35
550.368	0.35
550.712	0.35
551.056	0.35
551.4	0.35
551.743	0.35
552.087	0.35
552.431	0.35
552.774	0.35
553.118	0.35
553.462	0.35
553.805	0.35
554.148	0.35
554.492	0.35
554.835	0.35
555.178	0.35
555.522	0.35
555.865	0.35
556.208	0.34
556.551	0.35
556.894	0.35
557.237	0.35
557.58	0.35
557.923	0.35
558.266	0.35
558.609	0.35
558.952	0.35
559.294	0.35
559.637	0.35
559.98	0.35
560.322	0.35
560.665	0.35
561.007	0.35
561.35	0.35
561.692	0.35
562.034	0.35
562.377	0.35
562.719	0.35
563.061	0.35
563.403	0.35
563.745	0.35
564.088	0.35
564.43	0.35
564.772	0.35
565.113	0.35
565.455	0.35
565.797	0.34
566.139	0.35
566.481	0.35
566.822	0.34
567.164	0.34
567.506	0.35
567.847	0.34
568.189	0.34
568.53	0.34
568.872	0.35
569.213	0.34
569.554	0.35
569.895	0.34
570.237	0.34
570.578	0.34
570.919	0.34
571.26	0.34
571.601	0.34
571.942	0.33
572.283	0.33
572.624	0.33
572.965	0.33
573.306	0.33
573.646	0.32
573.987	0.32
574.328	0.32
574.668	0.33
575.009	0.32
575.349	0.32
575.69	0.31
576.03	0.31
576.37	0.3
576.711	0.29
577.051	0.3
577.391	0.3
577.731	0.32
578.072	0.31
578.412	0.31
578.752	0.3
579.092	0.29
579.431	0.26
579.771	0.24
580.111	0.23
580.451	0.24
580.791	0.27
581.13	0.29
581.47	0.29
581.81	0.29
582.149	0.29
582.489	0.3
582.828	0.27
583.167	0.23
583.507	0.19
583.846	0.18
584.185	0.21
584.525	0.23
584.864	0.26
585.203	0.29
585.542	0.3
585.881	0.31
586.22	0.31
586.559	0.28
586.898	0.25
587.236	0.24
587.575	0.24
587.914	0.25
588.252	0.27
588.591	0.28
588.93	0.28
589.268	0.28
589.607	0.27
589.945	0.27
590.283	0.28
590.622	0.29
590.96	0.3
591.298	0.31
591.636	0.3
591.974	0.31
592.313	0.31
592.651	0.32
592.989	0.31
593.326	0.31
593.664	0.32
594.002	0.31
594.34	0.3
594.678	0.29
595.015	0.27
595.353	0.25
595.691	0.27
596.028	0.29
596.366	0.3
596.703	0.31
597.04	0.31
597.378	0.31
597.715	0.31
598.052	0.32
598.389	0.32
598.726	0.32
599.064	0.32
599.401	0.31
599.738	0.31
600.074	0.31
600.411	0.3
600.748	0.29
601.085	0.28
601.422	0.26
601.758	0.27
602.095	0.27
602.432	0.28
602.768	0.28
603.105	0.3
603.441	0.31
603.777	0.31
604.114	0.32
604.45	0.31
604.786	0.31
605.122	0.31
605.459	0.31
605.795	0.3
606.131	0.3
606.467	0.31
606.803	0.31
607.139	0.31
607.474	0.3
607.81	0.3
608.146	0.3
608.482	0.3
608.817	0.29
609.153	0.29
609.488	0.29
609.824	0.29
610.159	0.3
610.495	0.3
610.83	0.3
611.165	0.3
611.5	0.3
611.836	0.3
612.171	0.3
612.506	0.3
612.841	0.3
613.176	0.3
613.511	0.3
613.845	0.3
614.18	0.3
614.515	0.3
614.85	0.29
615.184	0.29
615.519	0.3
615.854	0.29
616.188	0.29
616.523	0.29
616.857	0.28
617.191	0.28
617.526	0.28
617.86	0.28
618.194	0.28
618.528	0.28
618.862	0.28
619.196	0.28
619.53	0.28
619.864	0.28
620.198	0.28
620.532	0.28
620.866	0.28
621.2	0.28
621.533	0.28
621.867	0.28
622.201	0.28
622.534	0.28
622.868	0.28
623.201	0.28
623.534	0.27
623.868	0.27
624.201	0.27
624.534	0.27
624.868	0.26
625.201	0.27
625.534	0.27
625.867	0.26
626.2	0.26
626.533	0.26
626.865	0.26
627.198	0.26
627.531	0.26
627.864	0.26
628.196	0.26
628.529	0.26
628.862	0.25
629.194	0.25
629.527	0.25
629.859	0.25
630.191	0.25
630.524	0.25
630.856	0.25
631.188	0.25
631.52	0.24
631.852	0.24
632.184	0.24
632.516	0.24
632.848	0.24
633.18	0.23
633.512	0.23
633.844	0.24
634.175	0.24
634.507	0.23
634.839	0.23
635.17	0.23
635.502	0.23
635.833	0.23
636.165	0.23
636.496	0.22
636.827	0.22
637.159	0.22
637.49	0.22
637.821	0.22
638.152	0.21
638.483	0.21
638.814	0.21
639.145	0.21
639.476	0.21
639.807	0.21
640.137	0.2
640.468	0.2
640.799	0.2
641.129	0.2
641.46	0.2
641.791	0.2
642.121	0.2
642.451	0.19
642.782	0.2
643.112	0.2
643.442	0.2
643.773	0.2
644.103	0.19
644.433	0.19
644.763	0.19
645.093	0.19
645.423	0.18
645.753	0.18
646.082	0.18
646.412	0.18
646.742	0.18
647.072	0.18
647.401	0.18
647.731	0.18
648.06	0.17
648.39	0.18
648.719	0.18
649.048	0.18
649.378	0.18
649.707	0.18
650.036	0.17
650.365	0.17
650.694	0.17
651.023	0.17
651.352	0.17
651.681	0.16
652.01	0.17
652.339	0.17
652.668	0.17
652.996	0.17
653.325	0.16
653.654	0.17
653.982	0.17
654.311	0.16
654.639	0.16
654.967	0.17
655.296	0.16
655.624	0.16
655.952	0.16
656.28	0.16
656.609	0.16
656.937	0.16
657.265	0.15
657.593	0.02
657.92	-0
658.248	0
658.576	-0
658.904	0
659.231	0.05
659.559	0.12
659.887	0.15
660.214	0.15
660.542	0.16
660.869	0.15
661.196	0.15
661.524	0.15
661.851	0.15
662.178	0.15
662.505	0.15
662.832	0.15
663.159	0.15
663.486	0.15
663.813	0.15
664.14	0.15
664.467	0.15
664.794	0.15
665.12	0.15
665.447	0.15
665.774	0.15
666.1	0.15
666.427	0.15
666.753	0.15
667.079	0.14
667.406	0.14
667.732	0.14
668.058	0.14
668.384	0.14
668.71	0.14
669.036	0.14
669.362	0.14
669.688	0.14
670.014	0.14
670.34	0.14
670.666	0.13
670.991	0.14
671.317	0.13
671.643	0.13
671.968	0.13
672.294	0.13
672.619	0.13
672.945	0.12
673.27	0.12
673.595	0.12
673.92	0.11
674.246	0.11
674.571	0.11
674.896	0.11
675.221	0.11
675.546	0.11
675.87	0.12
676.195	0.11
676.52	0.12
676.845	0.11
677.169	0.11
677.494	0.11
677.819	0.11
678.143	0.1
678.468	0.1
678.792	0.1
679.116	0.1
679.44	0.1
679.765	0.1
680.089	0.09
680.413	0.09
680.737	0.09
681.061	0.08
681.385	0.08
681.709	0.08
682.033	0.07
682.356	0.08
682.68	0.08
683.004	0.08
683.327	0.07
683.651	0.07
683.974	0.07
684.298	0.07
684.621	0.07
684.944	0.07
685.268	0.07
685.591	0.07
685.914	0.06
686.237	0.05
686.56	0.05
686.883	0.04
687.206	0.03
687.529	0.03
687.852	0.03
688.175	0.03
688.497	0.04
688.82	0.04
689.142	0.04
689.465	0.04
689.787	0.04
690.11	0.04
690.432	0.04
690.755	0.03
691.077	0.04
691.399	0.03
691.721	0.03
692.043	0.03
692.365	0.03
692.687	0.03
693.009	0.02
693.331	0.01
693.653	0.02
693.974	0.02
694.296	0.02
694.618	0.02
694.939	0.02
695.261	0.01
695.582	0.01
695.904	0.01
696.225	0.02
696.546	0.02
696.868	0.02
697.189	0.01
697.51	0.01
697.831	0.01
698.152	0.01
698.473	0.01
698.794	0
699.114	0.01
699.435	0
699.756	0
700.077	0
700.397	0.01
700.718	0.01
701.038	0.01
701.359	0.01
701.679	0.01
701.999	0.01
702.32	0.01
702.64	0.01
702.96	0.01
703.28	0.01
703.6	0.01
703.92	0.01
704.24	0.01
704.56	0
704.879	0
705.199	0.01
705.519	0
705.838	0
706.158	0.01
706.478	0
706.797	0.01
707.116	0.01
707.436	0.01
707.755	0.01
708.074	0.01
708.393	0
708.712	0
709.031	0
709.35	0
709.669	0
709.988	0
710.307	0
710.626	0
710.944	0
711.263	0
711.582	0
711.9	0
712.219	0
712.537	0
712.855	0
713.174	0
713.492	0
713.81	0
714.128	0
714.446	0
714.764	0
715.082	0
715.4	0
715.718	0
716.035	0
716.353	0
716.671	0
716.988	0
717.306	0
717.623	0
717.941	0
718.258	0.01
718.575	0.01
718.893	0
719.21	0
719.527	0.01
719.844	0
720.161	0.01
720.478	0
720.795	0
721.112	0
721.428	0
721.745	0.01
722.062	0.01
722.378	0.01
722.695	0.01
723.011	0.01
723.328	0.01
723.644	0.01
723.96	0.01
724.276	0.01
724.593	0.01
724.909	0.01
725.225	0.01
725.541	0.01
725.857	0.01
726.173	0.01
726.488	0.02
726.804	0.01
727.12	0.01
727.435	0.01
727.751	0.01
728.067	0.01
728.382	0.01
728.697	0.01
729.013	0.02
729.328	0.01
729.643	0.01
729.958	0.01
730.273	0.01
730.588	0.01
730.903	0.01
731.218	0.02
731.533	0.01
731.848	0.01
732.163	0.01
732.477	0.01
732.792	0.01
733.107	0
733.421	0.01
733.736	0.01
734.05	0.01
734.364	0.01
734.678	0.01
734.993	0.01
735.307	0.01
735.621	0.01
735.935	0.01
736.249	0.01
736.563	0.01
736.877	0.01
737.19	0.01
737.504	0.01
737.818	0.01
738.131	0.01
738.445	0.02
738.758	0.02
739.072	0.02
739.385	0.02
739.698	0.02
740.012	0.02
740.325	0.02
740.638	0.02
740.951	0.01
741.264	0.01
741.577	0.01
741.89	0.02
742.203	0.02
742.515	0.03
742.828	0.03
743.141	0.02
743.453	0.03
743.766	0.03
744.078	0.02
744.391	0.02
744.703	0.03
745.015	0.03
745.327	0.02
745.639	0.02
745.952	0.02
746.264	0.02
746.575	0.02
746.887	0.02
747.199	0.02
747.511	0.02
747.823	0.02
748.134	0.02
748.446	0.02
748.757	0.03
749.069	0.02
749.38	0.02
749.692	0.02
750.003	0.02
750.314	0.02
750.625	0.02
750.936	0.01
751.248	0.01
751.559	0.01
751.869	0.01
752.18	0.01
752.491	0.01
752.802	0.01
753.112	0.01
753.423	0.01
753.734	0.01
754.044	0.01
754.355	0.01
754.665	0.01
754.975	0.01
755.285	0
755.596	0
755.906	0.01
756.216	0.01
756.526	0.01
756.836	0.01
757.146	0
757.455	0
757.765	0
758.075	0
758.385	0
758.694	0
759.004	0
759.313	0
759.622	0
759.932	0
760.241	0
760.55	0
760.859	0
761.168	0
761.477	0
761.786	0
762.095	0
762.404	0
762.713	0
763.021	0
763.33	0
763.639	0
763.947	0.01
764.256	0.01
764.564	0.01
764.872	0.01
765.181	0.01
765.489	0.01
765.797	0.01
766.105	0.01
766.413	0
766.721	0
767.029	0.01
767.337	0.01
767.644	0.01
767.952	0.01
768.26	0.01
768.567	0.01
768.875	0.01
769.182	0.01
769.49	0.02
769.797	0.02
770.104	0.02
770.411	0.02
770.718	0.01
771.026	0.02
771.333	0.02
771.639	0.02
771.946	0.02
772.253	0.02
772.56	0.02
772.867	0.02
773.173	0.02
773.48	0.02
773.786	0.02
774.093	0.02
774.399	0.02
774.705	0.02
775.012	0.02
775.318	0.02
775.624	0.02
775.93	0.02
776.236	0.02
776.542	0.02
776.848	0.02
777.154	0.02
777.459	0.02
777.765	0.02
778.071	0.02
778.376	0.02
778.682	0.01
778.987	0.02
779.292	0.02
779.598	0.02
779.903	0.02
780.208	0.02
780.513	0.02
780.818	0.02
781.123	0.02
781.428	0.02
781.733	0.02
782.038	0.02
782.343	0.02
782.647	0.02
782.952	0.02
783.256	0.02
783.561	0.02
783.865	0.02
784.17	0.02
784.474	0.02
784.778	0.02
785.082	0.02
785.386	0.02
785.69	0.02
785.994	0.02
786.298	0.02
786.602	0.02
786.906	0.02
787.209	0.02
787.513	0.02
787.817	0.02
788.12	0.02
788.424	0.02
788.727	0.02
789.03	0.02
789.333	0.01
789.637	0.02
789.94	0.01
790.243	0.02
790.546	0.02
790.849	0.02
791.152	0.02
791.454	0.02
791.757	0.02
792.06	0.02
792.362	0.02
792.665	0.02
792.967	0.02
793.27	0.02
793.572	0.02
793.874	0.02
794.177	0.01
794.479	0.02
794.781	0.02
795.083	0.02
795.385	0.02
795.687	0.02
795.989	0.02
796.29	0.02
796.592	0.02
796.894	0.02
797.195	0.02
797.497	0.02
797.798	0.03
798.1	0.02
798.401	0.02
798.702	0.02
799.003	0.02
799.304	0.02
799.605	0.02
799.906	0.02
800.207	0.02
800.508	0.03
800.809	0.03
801.11	0.03
801.41	0.03
801.711	0.03
802.011	0.03
802.312	0.02
802.612	0.03
802.913	0.02
803.213	0.02
803.513	0.02
803.813	0.02
804.113	0.02
804.413	0.02
804.713	0.02
805.013	0.02
805.313	0.02
805.613	0.02
805.912	0.03
806.212	0.03
806.511	0.03
806.811	0.03
807.11	0.03
807.41	0.02
807.709	0.03
808.008	0.02
808.307	0.03
808.606	0.03
808.905	0.02
809.204	0.02
809.503	0.02
809.802	0.02
810.101	0.02
810.399	0.02
810.698	0.02
810.997	0.02
811.295	0.02
811.593	0.03
811.892	0.02
812.19	0.02
812.488	0.02
812.786	0.02
813.084	0.02
813.383	0.02
813.68	0.02
813.978	0.03
814.276	0.03
814.574	0.03
814.872	0.03
815.169	0.03
815.467	0.03
815.764	0.03
816.062	0.03
816.359	0.03
816.656	0.03
816.954	0.03
817.251	0.03
817.548	0.03
817.845	0.03
818.142	0.03
818.439	0.03
818.735	0.03
819.032	0.03
819.329	0.03
819.626	0.03
819.922	0.03
820.219	0.03
820.515	0.03
820.811	0.03
821.108	0.03
821.404	0.03
821.7	0.03
821.996	0.03
822.292	0.03
822.588	0.03
822.884	0.03
823.18	0.04
823.475	0.04
823.771	0.04
824.067	0.03
824.362	0.04
824.658	0.04
824.953	0.03
825.249	0.03
825.544	0.03
825.839	0.03
826.134	0.03
826.429	0.03
826.724	0.03
827.019	0.03
827.314	0.03
827.609	0.03
827.904	0.03
828.198	0.04
828.493	0.03
828.787	0.04
829.082	0.03
829.376	0.04
829.671	0.03
829.965	0.04
830.259	0.03
830.553	0.04
830.847	0.04
831.141	0.04
831.435	0.04
831.729	0.03
832.023	0.03
832.317	0.03
832.61	0.03
832.904	0.04
833.197	0.04
833.491	0.04
833.784	0.03
834.077	0.03
834.371	0.03
834.664	0.04
834.957	0.04
835.25	0.04
835.543	0.04
835.836	0.03
836.129	0.04
836.421	0.04
836.714	0.04
837.007	0.04
837.299	0.04
837.592	0.04
837.884	0.04
838.177	0.04
838.469	0.03
838.761	0.04
839.053	0.04
839.345	0.04
839.637	0.04
839.929	0.04
840.221	0.04
840.513	0.04
840.805	0.04
841.096	0.04
841.388	0.04
841.68	0.04
841.971	0.04
842.262	0.04
842.554	0.03
842.845	0.04
843.136	0.03
843.427	0.04
843.718	0.04
844.009	0.04
844.3	0.04
844.591	0.04
844.882	0.04
845.173	0.04
845.463	0.04
845.754	0.05
846.044	0.05
846.335	0.04
846.625	0.04
846.915	0.05
847.206	0.04
847.496	0.04
847.786	0.04
848.076	0.05
848.366	0.04
848.656	0.04
848.945	0.04
849.235	0.04
849.525	0.04
849.814	0.05
850.104	0.03
850.393	0.04
850.683	0.04
850.972	0.05
851.261	0.04
851.551	0.04
851.84	0.05
852.129	0.05
852.418	0.04
852.707	0.04
852.995	0.05
853.284	0.04
853.573	0.04
853.862	0.05
854.15	0.04
854.439	0.06
854.727	0.04
855.015	0.05
855.304	0.06
855.592	0.05
855.88	0.04
856.168	0.05
856.456	0.06
856.744	0.05
857.032	0.06
857.32	0.06
857.607	0.05
857.895	0.05
858.183	0.05
858.47	0.03
858.757	0.04
859.045	0.05
859.332	0.04
859.619	0.06
859.907	0.07
860.194	0.09
860.481	0.05
860.768	0.06
861.054	0.05
861.341	0.04
861.628	0.06
861.915	0.04
862.201	0.04
862.488	0.04
862.774	0.05
863.061	0.06
863.347	0.06
863.633	0.04
863.919	0.06
864.205	0.05
864.491	0.05
864.777	0.05
865.063	0.03
865.349	0.04
865.635	0.03
865.92	0.03
866.206	0.03
866.492	0.05
866.777	0.06
867.062	0.06
867.348	0.05
867.633	0.05
867.918	0.05
868.203	0.05
868.488	0.04
868.773	0.05
869.058	0.08
869.343	0.04
869.628	0.06
869.912	0.06
870.197	0.06
870.482	0.06
870.766	0.04
871.05	0.04
871.335	0.02
871.619	0.04
871.903	0.03
872.187	0.02
872.471	0.04
872.755	0.06
873.039	0.02
873.323	0.05
873.607	0.03
873.89	0.03
874.174	0.04
874.458	0.04
874.741	0.09
875.024	0.02
875.308	0.04
875.591	-0
875.874	0.03
876.157	-0.01
876.44	0.05
876.723	0.02
877.006	0.08
877.289	0.02
877.572	0.05
877.854	0.11
878.137	0.03
878.42	0.06
878.702	0.01
878.984	-0
879.267	-0.01
879.549	0.03
879.831	0.02
880.113	0.1
880.395	-0.03
880.677	-0.06
880.959	0.02
