Data from Rubpy_BV_600_EDTA_Buffered_Absorbance_12-27-14-629.txt Node
Date: Wed Jul 01 12:27:14 BST 2026
User: fpm-admin
Spectrometer: OFX00224
Trigger mode: 0
Integration Time (sec): 7.000000E-2
Scans to average: 3
Nonlinearity correction enabled: false
Boxcar width: 0
Storing dark spectrum: false
XAxis mode: Wavelengths
Number of Pixels in Spectrum: 2136
>>>>>Begin Spectral Data<<<<<
154.91	-0
155.289	-0
155.669	0.56
156.048	-0
156.428	-0
156.807	-0
157.186	0.33
157.566	-0
157.945	-0.17
158.325	0.04
158.704	0.18
159.083	0.18
159.462	0.23
159.842	-0
160.221	-0.1
160.6	-0.36
160.979	0.46
161.359	-0.28
161.738	-0.16
162.117	-0
162.496	-0
162.875	-0
163.254	-0
163.633	-0.12
164.012	-0.17
164.391	0.24
164.77	0.54
165.149	-0
165.528	-0
165.907	0.22
166.286	0.53
166.665	0.56
167.044	-0
167.423	0.98
167.802	-0
168.181	-0.19
168.559	0.56
168.938	-1.56
169.317	-0
169.696	-0
170.074	-0.37
170.453	-0.57
170.832	0.07
171.21	-0
171.589	0.28
171.968	0.39
172.346	-0.06
172.725	-0
173.103	-0.51
173.482	0.03
173.861	-0
174.239	-0
174.617	-0.32
174.996	0.85
175.374	-0.04
175.753	-0
176.131	-0.33
176.51	-0.18
176.888	0.05
177.266	0.67
177.645	-0.01
178.023	1.17
178.401	-0.22
178.779	0.07
179.158	0.02
179.536	0.62
179.914	0.33
180.292	0.48
180.67	-0.03
181.048	0.47
181.427	0.8
181.805	0.17
182.183	-0.44
182.561	-0
182.939	-0.12
183.317	0.04
183.695	-0
184.073	0.27
184.451	-0.68
184.829	-0.07
185.206	-0.19
185.584	-0
185.962	-0
186.34	-0
186.718	-0.3
187.096	0.3
187.473	1.11
187.851	0.03
188.229	-0
188.607	0.03
188.984	0.07
189.362	0.14
189.74	0.05
190.117	0.05
190.495	0.1
190.872	0.01
191.25	0.09
191.627	0.05
192.005	0.07
192.382	0.07
192.76	0.18
193.137	0.11
193.515	-0.06
193.892	0.21
194.269	0.08
194.647	0.16
195.024	0.05
195.401	0.1
195.779	0.02
196.156	0.08
196.533	0.06
196.91	0.14
197.288	0
197.665	0.11
198.042	0.17
198.419	0.08
198.796	0.02
199.173	0.06
199.55	0.04
199.927	0.14
200.304	0.11
200.681	0.13
201.058	-0.01
201.435	0.13
201.812	0.17
202.189	0.18
202.566	0.06
202.943	0.12
203.32	0.09
203.697	0.14
204.073	0.12
204.45	0.02
204.827	0.15
205.204	-0.02
205.58	0.13
205.957	0.05
206.334	0.16
206.71	0.17
207.087	0.02
207.464	0.1
207.84	0.14
208.217	0.12
208.593	0.08
208.97	0.09
209.346	0.14
209.723	0.07
210.099	0.03
210.476	0.1
210.852	0.12
211.228	0.12
211.605	0.07
211.981	0.25
212.357	0.04
212.733	0.12
213.11	0.07
213.486	0.07
213.862	0.07
214.238	0.01
214.614	0.07
214.991	0.16
215.367	0.16
215.743	0.05
216.119	0.09
216.495	0.1
216.871	0.15
217.247	0.11
217.623	0.08
217.999	0.07
218.375	0.16
218.751	0.21
219.127	0.01
219.502	0.16
219.878	0.04
220.254	0.08
220.63	0.14
221.006	0.11
221.381	0.17
221.757	0.11
222.133	0.1
222.508	0.07
222.884	0.11
223.26	0.11
223.635	0.1
224.011	0.05
224.386	0.14
224.762	0.12
225.137	0.14
225.513	0.02
225.888	0.08
226.264	0.11
226.639	0.17
227.014	0.14
227.39	0.14
227.765	0.14
228.14	0.22
228.516	0.21
228.891	0.15
229.266	0.16
229.641	0.05
230.017	0.08
230.392	0.15
230.767	0.12
231.142	0.12
231.517	0.02
231.892	0.13
232.267	0.34
232.642	0.11
233.017	0.06
233.392	0.07
233.767	0.16
234.142	0.1
234.517	0.12
234.892	0.17
235.267	0.08
235.641	0.04
236.016	0.16
236.391	0.1
236.766	0.08
237.14	0.08
237.515	0.16
237.89	0.08
238.264	0.12
238.639	0.03
239.014	0.18
239.388	0.1
239.763	0.15
240.137	0.06
240.512	0.16
240.886	0.04
241.261	0.1
241.635	0.15
242.009	0.15
242.384	0.13
242.758	0.08
243.132	0.11
243.507	0.11
243.881	0.08
244.255	0.17
244.629	0.18
245.004	0.1
245.378	0.14
245.752	0.12
246.126	0.16
246.5	0.11
246.874	0.13
247.248	0.08
247.622	0.11
247.996	0.06
248.37	0.2
248.744	0.09
249.118	0.21
249.492	0.25
249.866	0.14
250.24	0.13
250.613	0.29
250.987	0.11
251.361	0.16
251.735	0.1
252.108	0.07
252.482	0.11
252.856	-0.01
253.229	0.01
253.603	0.05
253.977	0.1
254.35	0.13
254.724	0.13
255.097	0.15
255.471	0.13
255.844	0.14
256.218	0.03
256.591	0.12
256.964	0.1
257.338	0.15
257.711	0.11
258.084	0.15
258.458	0.15
258.831	0.13
259.204	0.15
259.577	0.17
259.95	0.16
260.323	0.16
260.697	0.1
261.07	0.14
261.443	0.11
261.816	0.15
262.189	0.09
262.562	0.12
262.935	0.13
263.308	0.11
263.68	0.13
264.053	0.11
264.426	0.11
264.799	0.15
265.172	0.11
265.545	0.08
265.917	0.1
266.29	0.17
266.663	0.11
267.035	0.17
267.408	0.19
267.781	0.2
268.153	0.16
268.526	0.1
268.898	0.12
269.271	0.14
269.643	0.09
270.016	0.12
270.388	0.23
270.76	0.12
271.133	0.17
271.505	0.18
271.877	0.16
272.25	0.16
272.622	0.2
272.994	0.15
273.366	0.16
273.739	0.14
274.111	0.14
274.483	0.15
274.855	0.15
275.227	0.12
275.599	0.12
275.971	0.09
276.343	0.17
276.715	0.14
277.087	0.13
277.459	0.04
277.831	0.18
278.203	0.09
278.574	0.1
278.946	0.16
279.318	0.1
279.69	0.17
280.061	0.08
280.433	0.15
280.805	0.16
281.176	0.13
281.548	0.12
281.92	0.13
282.291	0.14
282.663	0.18
283.034	0.18
283.406	0.12
283.777	0.15
284.148	0.13
284.52	0.07
284.891	0.11
285.262	0.13
285.634	0.11
286.005	0.08
286.376	0.15
286.747	0.1
287.119	0.14
287.49	0.1
287.861	0.13
288.232	0.12
288.603	0.13
288.974	0.21
289.345	0.15
289.716	0.08
290.087	0.13
290.458	0.1
290.829	0.08
291.2	0.14
291.571	0.12
291.941	0.11
292.312	0.15
292.683	0.15
293.054	0.1
293.424	0.11
293.795	0.2
294.166	0.13
294.536	0.17
294.907	0.17
295.277	0.13
295.648	0.18
296.018	0.18
296.389	0.13
296.759	0.19
297.13	0.12
297.5	0.17
297.871	0.09
298.241	0.1
298.611	0.06
298.981	0.06
299.352	0.13
299.722	0.12
300.092	0.1
300.462	0.09
300.832	0.1
301.202	0.13
301.573	0.12
301.943	0.08
302.313	0.08
302.683	0.08
303.053	0.09
303.422	0.07
303.792	0.06
304.162	0.07
304.532	0.08
304.902	0.06
305.272	0.07
305.641	0.06
306.011	0.06
306.381	0.06
306.75	0.05
307.12	0.05
307.49	0.06
307.859	0.05
308.229	0.06
308.598	0.06
308.968	0.06
309.337	0.08
309.707	0.07
310.076	0.07
310.445	0.08
310.815	0.08
311.184	0.08
311.553	0.09
311.923	0.1
312.292	0.09
312.661	0.09
313.03	0.09
313.399	0.09
313.768	0.1
314.137	0.1
314.506	0.09
314.875	0.1
315.244	0.1
315.613	0.1
315.982	0.1
316.351	0.11
316.72	0.1
317.089	0.11
317.458	0.12
317.826	0.11
318.195	0.11
318.564	0.11
318.933	0.11
319.301	0.12
319.67	0.12
320.038	0.13
320.407	0.12
320.775	0.13
321.144	0.13
321.512	0.13
321.881	0.13
322.249	0.14
322.618	0.14
322.986	0.14
323.354	0.14
323.723	0.14
324.091	0.15
324.459	0.15
324.827	0.14
325.195	0.15
325.564	0.15
325.932	0.16
326.3	0.16
326.668	0.16
327.036	0.16
327.404	0.16
327.772	0.16
328.14	0.17
328.508	0.16
328.875	0.17
329.243	0.18
329.611	0.17
329.979	0.18
330.346	0.18
330.714	0.18
331.082	0.18
331.449	0.19
331.817	0.19
332.185	0.19
332.552	0.19
332.92	0.2
333.287	0.2
333.655	0.2
334.022	0.21
334.389	0.21
334.757	0.22
335.124	0.22
335.491	0.22
335.859	0.22
336.226	0.23
336.593	0.23
336.96	0.24
337.327	0.25
337.695	0.25
338.062	0.26
338.429	0.26
338.796	0.26
339.163	0.27
339.53	0.27
339.897	0.28
340.263	0.29
340.63	0.29
340.997	0.29
341.364	0.29
341.731	0.3
342.097	0.31
342.464	0.31
342.831	0.32
343.197	0.32
343.564	0.33
343.931	0.33
344.297	0.34
344.664	0.34
345.03	0.35
345.396	0.35
345.763	0.36
346.129	0.36
346.496	0.37
346.862	0.38
347.228	0.38
347.594	0.39
347.961	0.39
348.327	0.4
348.693	0.39
349.059	0.4
349.425	0.41
349.791	0.41
350.157	0.42
350.523	0.42
350.889	0.42
351.255	0.43
351.621	0.44
351.987	0.44
352.353	0.45
352.719	0.46
353.084	0.46
353.45	0.46
353.816	0.47
354.181	0.48
354.547	0.49
354.913	0.49
355.278	0.49
355.644	0.5
356.009	0.51
356.375	0.52
356.74	0.52
357.106	0.53
357.471	0.54
357.836	0.54
358.202	0.55
358.567	0.55
358.932	0.56
359.297	0.57
359.663	0.58
360.028	0.59
360.393	0.59
360.758	0.61
361.123	0.62
361.488	0.63
361.853	0.63
362.218	0.65
362.583	0.65
362.948	0.65
363.312	0.67
363.677	0.68
364.042	0.67
364.407	0.69
364.772	0.7
365.136	0.7
365.501	0.7
365.865	0.71
366.23	0.72
366.595	0.72
366.959	0.74
367.324	0.74
367.688	0.75
368.052	0.76
368.417	0.77
368.781	0.78
369.145	0.77
369.51	0.79
369.874	0.79
370.238	0.8
370.602	0.8
370.967	0.81
371.331	0.81
371.695	0.81
372.059	0.81
372.423	0.82
372.787	0.81
373.151	0.82
373.515	0.82
373.878	0.82
374.242	0.82
374.606	0.81
374.97	0.8
375.334	0.8
375.697	0.79
376.061	0.78
376.425	0.78
376.788	0.77
377.152	0.76
377.515	0.75
377.879	0.74
378.242	0.75
378.606	0.74
378.969	0.73
379.333	0.72
379.696	0.7
380.059	0.7
380.422	0.7
380.786	0.69
381.149	0.69
381.512	0.67
381.875	0.67
382.238	0.67
382.601	0.66
382.964	0.65
383.327	0.65
383.69	0.63
384.053	0.63
384.416	0.64
384.779	0.63
385.142	0.63
385.504	0.62
385.867	0.63
386.23	0.62
386.593	0.62
386.955	0.63
387.318	0.63
387.68	0.63
388.043	0.63
388.405	0.63
388.768	0.63
389.13	0.63
389.493	0.62
389.855	0.62
390.217	0.63
390.58	0.62
390.942	0.62
391.304	0.61
391.666	0.6
392.028	0.6
392.391	0.6
392.753	0.58
393.115	0.58
393.477	0.58
393.839	0.57
394.201	0.57
394.563	0.56
394.924	0.56
395.286	0.57
395.648	0.57
396.01	0.57
396.371	0.58
396.733	0.59
397.095	0.6
397.456	0.61
397.818	0.62
398.18	0.64
398.541	0.66
398.903	0.67
399.264	0.69
399.625	0.72
399.987	0.73
400.348	0.74
400.709	0.75
401.071	0.76
401.432	0.76
401.793	0.76
402.154	0.76
402.515	0.75
402.876	0.74
403.238	0.73
403.599	0.71
403.96	0.68
404.32	0.66
404.681	0.64
405.042	0.61
405.403	0.59
405.764	0.56
406.125	0.52
406.485	0.5
406.846	0.47
407.207	0.45
407.567	0.42
407.928	0.4
408.288	0.38
408.649	0.35
409.009	0.33
409.37	0.31
409.73	0.3
410.091	0.28
410.451	0.26
410.811	0.25
411.171	0.24
411.532	0.22
411.892	0.22
412.252	0.2
412.612	0.2
412.972	0.18
413.332	0.18
413.692	0.17
414.052	0.16
414.412	0.16
414.772	0.15
415.132	0.15
415.492	0.14
415.851	0.14
416.211	0.13
416.571	0.13
416.931	0.12
417.29	0.12
417.65	0.12
418.009	0.11
418.369	0.11
418.728	0.11
419.088	0.1
419.447	0.1
419.807	0.1
420.166	0.09
420.525	0.1
420.884	0.09
421.244	0.09
421.603	0.09
421.962	0.09
422.321	0.08
422.68	0.09
423.039	0.08
423.398	0.09
423.757	0.07
424.116	0.08
424.475	0.07
424.834	0.07
425.193	0.07
425.551	0.07
425.91	0.07
426.269	0.08
426.628	0.07
426.986	0.08
427.345	0.07
427.703	0.06
428.062	0.07
428.42	0.08
428.779	0.07
429.137	0.07
429.496	0.06
429.854	0.06
430.212	0.06
430.57	0.07
430.929	0.06
431.287	0.06
431.645	0.06
432.003	0.06
432.361	0.06
432.719	0.06
433.077	0.07
433.435	0.06
433.793	0.06
434.151	0.05
434.509	0.06
434.866	0.07
435.224	0.07
435.582	0.06
435.94	0.06
436.297	0.06
436.655	0.06
437.012	0.06
437.37	0.06
437.727	0.06
438.085	0.06
438.442	0.06
438.8	0.06
439.157	0.06
439.514	0.06
439.872	0.06
440.229	0.06
440.586	0.06
440.943	0.06
441.3	0.06
441.657	0.06
442.014	0.06
442.371	0.06
442.728	0.06
443.085	0.06
443.442	0.06
443.799	0.05
444.156	0.06
444.513	0.06
444.869	0.06
445.226	0.05
445.583	0.06
445.939	0.06
446.296	0.05
446.652	0.05
447.009	0.05
447.365	0.06
447.722	0.05
448.078	0.06
448.434	0.05
448.791	0.06
449.147	0.06
449.503	0.06
449.859	0.06
450.215	0.06
450.571	0.06
450.928	0.06
451.284	0.05
451.64	0.05
451.995	0.05
452.351	0.05
452.707	0.06
453.063	0.05
453.419	0.06
453.775	0.05
454.13	0.05
454.486	0.05
454.842	0.05
455.197	0.05
455.553	0.05
455.908	0.05
456.264	0.05
456.619	0.05
456.975	0.05
457.33	0.04
457.685	0.04
458.04	0.04
458.396	0.04
458.751	0.03
459.106	0.03
459.461	0.03
459.816	0.03
460.171	0.04
460.526	0.03
460.881	0.03
461.236	0.03
461.591	0.02
461.946	0.03
462.301	0.03
462.655	0.02
463.01	0.03
463.365	0.03
463.719	0.02
464.074	0.02
464.428	0.01
464.783	0.02
465.137	0.01
465.492	0
465.846	0.01
466.201	0.01
466.555	0.01
466.909	0.01
467.263	0.02
467.618	0.02
467.972	0.02
468.326	0.02
468.68	0.02
469.034	0.01
469.388	0.01
469.742	0.01
470.096	0.02
470.45	0.02
470.804	0.02
471.157	0.02
471.511	0.02
471.865	0.02
472.218	0.02
472.572	0.03
472.926	0.03
473.279	0.03
473.633	0.04
473.986	0.04
474.34	0.04
474.693	0.05
475.046	0.05
475.4	0.06
475.753	0.06
476.106	0.07
476.459	0.07
476.812	0.08
477.165	0.08
477.519	0.08
477.872	0.08
478.224	0.09
478.577	0.09
478.93	0.1
479.283	0.09
479.636	0.1
479.989	0.1
480.341	0.11
480.694	0.11
481.047	0.11
481.399	0.11
481.752	0.12
482.104	0.12
482.457	0.12
482.809	0.12
483.162	0.13
483.514	0.13
483.866	0.13
484.219	0.13
484.571	0.13
484.923	0.14
485.275	0.14
485.627	0.14
485.979	0.13
486.331	0.14
486.683	0.14
487.035	0.15
487.387	0.15
487.739	0.15
488.091	0.15
488.443	0.16
488.794	0.16
489.146	0.16
489.498	0.16
489.849	0.16
490.201	0.16
490.552	0.16
490.904	0.17
491.255	0.17
491.607	0.17
491.958	0.17
492.309	0.17
492.661	0.18
493.012	0.18
493.363	0.18
493.714	0.18
494.065	0.18
494.416	0.19
494.767	0.19
495.118	0.18
495.469	0.19
495.82	0.19
496.171	0.19
496.522	0.19
496.872	0.2
497.223	0.2
497.574	0.2
497.924	0.2
498.275	0.2
498.626	0.2
498.976	0.21
499.327	0.21
499.677	0.21
500.027	0.21
500.378	0.21
500.728	0.21
501.078	0.22
501.428	0.22
501.779	0.22
502.129	0.22
502.479	0.22
502.829	0.23
503.179	0.22
503.529	0.23
503.879	0.23
504.229	0.23
504.578	0.23
504.928	0.23
505.278	0.24
505.628	0.24
505.977	0.24
506.327	0.24
506.676	0.25
507.026	0.25
507.375	0.25
507.725	0.25
508.074	0.25
508.424	0.25
508.773	0.26
509.122	0.26
509.471	0.25
509.82	0.26
510.17	0.26
510.519	0.25
510.868	0.26
511.217	0.26
511.566	0.26
511.915	0.26
512.263	0.27
512.612	0.27
512.961	0.27
513.31	0.27
513.659	0.27
514.007	0.28
514.356	0.28
514.704	0.27
515.053	0.28
515.401	0.28
515.75	0.28
516.098	0.28
516.447	0.29
516.795	0.28
517.143	0.28
517.491	0.28
517.839	0.3
518.188	0.29
518.536	0.29
518.884	0.29
519.232	0.29
519.58	0.29
519.928	0.3
520.275	0.29
520.623	0.3
520.971	0.3
521.319	0.31
521.666	0.3
522.014	0.3
522.362	0.31
522.709	0.3
523.057	0.31
523.404	0.31
523.752	0.31
524.099	0.31
524.446	0.31
524.794	0.31
525.141	0.32
525.488	0.32
525.835	0.32
526.182	0.32
526.529	0.32
526.876	0.32
527.223	0.32
527.57	0.32
527.917	0.32
528.264	0.32
528.611	0.32
528.958	0.32
529.304	0.33
529.651	0.33
529.998	0.33
530.344	0.33
530.691	0.33
531.037	0.33
531.384	0.34
531.73	0.33
532.076	0.34
532.423	0.33
532.769	0.34
533.115	0.34
533.461	0.34
533.807	0.34
534.154	0.34
534.5	0.34
534.846	0.34
535.192	0.34
535.537	0.35
535.883	0.34
536.229	0.34
536.575	0.34
536.921	0.35
537.266	0.35
537.612	0.35
537.957	0.35
538.303	0.35
538.649	0.35
538.994	0.35
539.339	0.35
539.685	0.35
540.03	0.35
540.375	0.35
540.721	0.35
541.066	0.35
541.411	0.36
541.756	0.36
542.101	0.35
542.446	0.36
542.791	0.36
543.136	0.36
543.481	0.36
543.825	0.36
544.17	0.36
544.515	0.36
544.86	0.36
545.204	0.36
545.549	0.36
545.893	0.37
546.238	0.37
546.582	0.37
546.927	0.36
547.271	0.37
547.615	0.37
547.96	0.37
548.304	0.37
548.648	0.37
548.992	0.37
549.336	0.37
549.68	0.37
550.024	0.37
550.368	0.37
550.712	0.37
551.056	0.37
551.4	0.37
551.743	0.37
552.087	0.37
552.431	0.37
552.774	0.37
553.118	0.37
553.462	0.37
553.805	0.37
554.148	0.37
554.492	0.37
554.835	0.37
555.178	0.37
555.522	0.37
555.865	0.37
556.208	0.37
556.551	0.37
556.894	0.37
557.237	0.37
557.58	0.37
557.923	0.37
558.266	0.37
558.609	0.37
558.952	0.37
559.294	0.37
559.637	0.37
559.98	0.37
560.322	0.37
560.665	0.37
561.007	0.37
561.35	0.37
561.692	0.37
562.034	0.37
562.377	0.37
562.719	0.37
563.061	0.37
563.403	0.37
563.745	0.37
564.088	0.37
564.43	0.38
564.772	0.37
565.113	0.37
565.455	0.37
565.797	0.37
566.139	0.37
566.481	0.37
566.822	0.37
567.164	0.37
567.506	0.37
567.847	0.37
568.189	0.37
568.53	0.37
568.872	0.36
569.213	0.36
569.554	0.37
569.895	0.36
570.237	0.36
570.578	0.36
570.919	0.36
571.26	0.36
571.601	0.36
571.942	0.36
572.283	0.36
572.624	0.36
572.965	0.35
573.306	0.35
573.646	0.34
573.987	0.34
574.328	0.35
574.668	0.35
575.009	0.35
575.349	0.34
575.69	0.33
576.03	0.33
576.37	0.32
576.711	0.32
577.051	0.32
577.391	0.32
577.731	0.34
578.072	0.33
578.412	0.33
578.752	0.33
579.092	0.32
579.431	0.28
579.771	0.26
580.111	0.25
580.451	0.25
580.791	0.29
581.13	0.3
581.47	0.32
581.81	0.31
582.149	0.31
582.489	0.32
582.828	0.29
583.167	0.25
583.507	0.21
583.846	0.2
584.185	0.22
584.525	0.25
584.864	0.28
585.203	0.31
585.542	0.32
585.881	0.33
586.22	0.33
586.559	0.3
586.898	0.27
587.236	0.26
587.575	0.26
587.914	0.27
588.252	0.29
588.591	0.3
588.93	0.3
589.268	0.3
589.607	0.29
589.945	0.3
590.283	0.3
590.622	0.31
590.96	0.32
591.298	0.33
591.636	0.33
591.974	0.33
592.313	0.33
592.651	0.34
592.989	0.33
593.326	0.33
593.664	0.33
594.002	0.33
594.34	0.32
594.678	0.31
595.015	0.29
595.353	0.27
595.691	0.29
596.028	0.31
596.366	0.32
596.703	0.33
597.04	0.33
597.378	0.33
597.715	0.33
598.052	0.33
598.389	0.34
598.726	0.34
599.064	0.34
599.401	0.33
599.738	0.33
600.074	0.33
600.411	0.32
600.748	0.31
601.085	0.29
601.422	0.28
601.758	0.29
602.095	0.3
602.432	0.3
602.768	0.3
603.105	0.32
603.441	0.32
603.777	0.33
604.114	0.34
604.45	0.33
604.786	0.33
605.122	0.33
605.459	0.33
605.795	0.32
606.131	0.32
606.467	0.33
606.803	0.33
607.139	0.33
607.474	0.32
607.81	0.32
608.146	0.31
608.482	0.31
608.817	0.31
609.153	0.31
609.488	0.31
609.824	0.31
610.159	0.32
610.495	0.32
610.83	0.32
611.165	0.32
611.5	0.32
611.836	0.32
612.171	0.32
612.506	0.32
612.841	0.32
613.176	0.32
613.511	0.31
613.845	0.31
614.18	0.32
614.515	0.31
614.85	0.31
615.184	0.31
615.519	0.31
615.854	0.31
616.188	0.3
616.523	0.3
616.857	0.3
617.191	0.3
617.526	0.3
617.86	0.3
618.194	0.3
618.528	0.3
618.862	0.3
619.196	0.3
619.53	0.3
619.864	0.3
620.198	0.3
620.532	0.3
620.866	0.3
621.2	0.3
621.533	0.3
621.867	0.3
622.201	0.29
622.534	0.3
622.868	0.29
623.201	0.29
623.534	0.29
623.868	0.29
624.201	0.28
624.534	0.28
624.868	0.28
625.201	0.28
625.534	0.28
625.867	0.28
626.2	0.28
626.533	0.28
626.865	0.28
627.198	0.28
627.531	0.28
627.864	0.27
628.196	0.27
628.529	0.27
628.862	0.27
629.194	0.27
629.527	0.26
629.859	0.26
630.191	0.26
630.524	0.26
630.856	0.26
631.188	0.26
631.52	0.26
631.852	0.26
632.184	0.25
632.516	0.25
632.848	0.25
633.18	0.25
633.512	0.25
633.844	0.25
634.175	0.25
634.507	0.25
634.839	0.24
635.17	0.24
635.502	0.24
635.833	0.24
636.165	0.24
636.496	0.23
636.827	0.23
637.159	0.23
637.49	0.23
637.821	0.23
638.152	0.22
638.483	0.22
638.814	0.22
639.145	0.22
639.476	0.22
639.807	0.22
640.137	0.21
640.468	0.21
640.799	0.21
641.129	0.21
641.46	0.21
641.791	0.21
642.121	0.21
642.451	0.2
642.782	0.2
643.112	0.2
643.442	0.21
643.773	0.21
644.103	0.2
644.433	0.2
644.763	0.2
645.093	0.2
645.423	0.19
645.753	0.19
646.082	0.19
646.412	0.19
646.742	0.19
647.072	0.19
647.401	0.19
647.731	0.19
648.06	0.18
648.39	0.18
648.719	0.19
649.048	0.19
649.378	0.18
649.707	0.18
650.036	0.18
650.365	0.18
650.694	0.18
651.023	0.18
651.352	0.18
651.681	0.17
652.01	0.18
652.339	0.18
652.668	0.18
652.996	0.18
653.325	0.17
653.654	0.18
653.982	0.18
654.311	0.17
654.639	0.17
654.967	0.17
655.296	0.17
655.624	0.17
655.952	0.17
656.28	0.17
656.609	0.17
656.937	0.17
657.265	0.16
657.593	0.02
657.92	0
658.248	0
658.576	-0
658.904	0
659.231	0.06
659.559	0.12
659.887	0.16
660.214	0.16
660.542	0.16
660.869	0.16
661.196	0.16
661.524	0.16
661.851	0.16
662.178	0.16
662.505	0.16
662.832	0.16
663.159	0.16
663.486	0.16
663.813	0.16
664.14	0.16
664.467	0.16
664.794	0.16
665.12	0.16
665.447	0.16
665.774	0.16
666.1	0.15
666.427	0.15
666.753	0.15
667.079	0.15
667.406	0.15
667.732	0.15
668.058	0.15
668.384	0.15
668.71	0.15
669.036	0.15
669.362	0.15
669.688	0.15
670.014	0.14
670.34	0.15
670.666	0.14
670.991	0.14
671.317	0.14
671.643	0.14
671.968	0.14
672.294	0.13
672.619	0.13
672.945	0.13
673.27	0.13
673.595	0.13
673.92	0.12
674.246	0.11
674.571	0.12
674.896	0.12
675.221	0.12
675.546	0.12
675.87	0.12
676.195	0.12
676.52	0.12
676.845	0.12
677.169	0.12
677.494	0.12
677.819	0.12
678.143	0.11
678.468	0.11
678.792	0.11
679.116	0.11
679.44	0.11
679.765	0.1
680.089	0.1
680.413	0.09
680.737	0.09
681.061	0.09
681.385	0.09
681.709	0.08
682.033	0.08
682.356	0.08
682.68	0.09
683.004	0.08
683.327	0.08
683.651	0.07
683.974	0.07
684.298	0.08
684.621	0.08
684.944	0.08
685.268	0.08
685.591	0.07
685.914	0.06
686.237	0.06
686.56	0.05
686.883	0.05
687.206	0.04
687.529	0.04
687.852	0.03
688.175	0.03
688.497	0.04
688.82	0.04
689.142	0.04
689.465	0.04
689.787	0.05
690.11	0.04
690.432	0.04
690.755	0.04
691.077	0.04
691.399	0.03
691.721	0.04
692.043	0.04
692.365	0.03
692.687	0.03
693.009	0.03
693.331	0.02
693.653	0.02
693.974	0.02
694.296	0.02
694.618	0.02
694.939	0.02
695.261	0.02
695.582	0.02
695.904	0.02
696.225	0.02
696.546	0.02
696.868	0.02
697.189	0.02
697.51	0.01
697.831	0.01
698.152	0.02
698.473	0.01
698.794	0.01
699.114	0.01
699.435	0
699.756	0
700.077	0
700.397	0.01
700.718	0.01
701.038	0.01
701.359	0.01
701.679	0.01
701.999	0.02
702.32	0.01
702.64	0.01
702.96	0.01
703.28	0.01
703.6	0.01
703.92	0.01
704.24	0.01
704.56	0
704.879	0
705.199	0.01
705.519	0.01
705.838	0.01
706.158	0.01
706.478	0.01
706.797	0.01
707.116	0.01
707.436	0.01
707.755	0.01
708.074	0.01
708.393	0
708.712	0
709.031	0
709.35	0
709.669	0
709.988	0
710.307	0
710.626	0
710.944	0
711.263	0
711.582	0
711.9	0
712.219	0
712.537	0
712.855	0
713.174	0
713.492	0
713.81	0
714.128	0
714.446	0
714.764	0
715.082	0
715.4	0
715.718	0
716.035	0
716.353	0
716.671	0
716.988	0
717.306	0
717.623	0
717.941	0
718.258	0.01
718.575	0.01
718.893	0.01
719.21	0
719.527	0.01
719.844	0
720.161	0.01
720.478	0
720.795	0
721.112	0
721.428	0.01
721.745	0.01
722.062	0.01
722.378	0.01
722.695	0.01
723.011	0.01
723.328	0.01
723.644	0.01
723.96	0.01
724.276	0.01
724.593	0.01
724.909	0.02
725.225	0.01
725.541	0.01
725.857	0.02
726.173	0.01
726.488	0.02
726.804	0.01
727.12	0.01
727.435	0.01
727.751	0.01
728.067	0.01
728.382	0.01
728.697	0.01
729.013	0.02
729.328	0.01
729.643	0.02
729.958	0.01
730.273	0.02
730.588	0.01
730.903	0.02
731.218	0.02
731.533	0.01
731.848	0.01
732.163	0.01
732.477	0.01
732.792	0.01
733.107	0
733.421	0.01
733.736	0.01
734.05	0.01
734.364	0.01
734.678	0.02
734.993	0.01
735.307	0.01
735.621	0.01
735.935	0.01
736.249	0.01
736.563	0.01
736.877	0.01
737.19	0.01
737.504	0.01
737.818	0.01
738.131	0.01
738.445	0.02
738.758	0.02
739.072	0.02
739.385	0.02
739.698	0.02
740.012	0.02
740.325	0.02
740.638	0.02
740.951	0.02
741.264	0.01
741.577	0.02
741.89	0.02
742.203	0.02
742.515	0.03
742.828	0.03
743.141	0.03
743.453	0.03
743.766	0.03
744.078	0.03
744.391	0.02
744.703	0.03
745.015	0.03
745.327	0.03
745.639	0.03
745.952	0.03
746.264	0.02
746.575	0.03
746.887	0.02
747.199	0.03
747.511	0.02
747.823	0.03
748.134	0.02
748.446	0.03
748.757	0.03
749.069	0.02
749.38	0.02
749.692	0.02
750.003	0.02
750.314	0.02
750.625	0.02
750.936	0.02
751.248	0.01
751.559	0.01
751.869	0.01
752.18	0.01
752.491	0.01
752.802	0.01
753.112	0.01
753.423	0.01
753.734	0.01
754.044	0.01
754.355	0.01
754.665	0.01
754.975	0.01
755.285	0.01
755.596	0
755.906	0.01
756.216	0.01
756.526	0.01
756.836	0.01
757.146	0.01
757.455	0
757.765	0.01
758.075	0
758.385	0
758.694	0
759.004	0
759.313	0
759.622	0
759.932	0
760.241	0
760.55	0
760.859	0
761.168	0
761.477	0
761.786	0
762.095	0
762.404	0
762.713	0
763.021	0
763.33	0.01
763.639	0.01
763.947	0.01
764.256	0.01
764.564	0.01
764.872	0.01
765.181	0.01
765.489	0.01
765.797	0.01
766.105	0.01
766.413	0
766.721	0
767.029	0.01
767.337	0.01
767.644	0.01
767.952	0.01
768.26	0.01
768.567	0.01
768.875	0.02
769.182	0.02
769.49	0.02
769.797	0.02
770.104	0.02
770.411	0.02
770.718	0.02
771.026	0.02
771.333	0.02
771.639	0.02
771.946	0.02
772.253	0.02
772.56	0.02
772.867	0.02
773.173	0.02
773.48	0.02
773.786	0.02
774.093	0.02
774.399	0.02
774.705	0.02
775.012	0.02
775.318	0.02
775.624	0.02
775.93	0.02
776.236	0.02
776.542	0.02
776.848	0.02
777.154	0.02
777.459	0.02
777.765	0.02
778.071	0.02
778.376	0.02
778.682	0.02
778.987	0.02
779.292	0.02
779.598	0.02
779.903	0.02
780.208	0.02
780.513	0.02
780.818	0.02
781.123	0.02
781.428	0.02
781.733	0.02
782.038	0.02
782.343	0.02
782.647	0.02
782.952	0.02
783.256	0.02
783.561	0.02
783.865	0.02
784.17	0.02
784.474	0.02
784.778	0.02
785.082	0.02
785.386	0.02
785.69	0.02
785.994	0.02
786.298	0.02
786.602	0.02
786.906	0.02
787.209	0.02
787.513	0.02
787.817	0.02
788.12	0.02
788.424	0.02
788.727	0.02
789.03	0.02
789.333	0.02
789.637	0.02
789.94	0.02
790.243	0.02
790.546	0.02
790.849	0.02
791.152	0.02
791.454	0.02
791.757	0.02
792.06	0.02
792.362	0.02
792.665	0.02
792.967	0.02
793.27	0.02
793.572	0.02
793.874	0.02
794.177	0.02
794.479	0.02
794.781	0.02
795.083	0.02
795.385	0.02
795.687	0.02
795.989	0.02
796.29	0.02
796.592	0.02
796.894	0.02
797.195	0.02
797.497	0.03
797.798	0.03
798.1	0.02
798.401	0.02
798.702	0.03
799.003	0.02
799.304	0.02
799.605	0.03
799.906	0.03
800.207	0.02
800.508	0.03
800.809	0.03
801.11	0.03
801.41	0.03
801.711	0.03
802.011	0.03
802.312	0.03
802.612	0.03
802.913	0.02
803.213	0.02
803.513	0.02
803.813	0.02
804.113	0.02
804.413	0.02
804.713	0.02
805.013	0.02
805.313	0.03
805.613	0.02
805.912	0.03
806.212	0.03
806.511	0.03
806.811	0.03
807.11	0.03
807.41	0.03
807.709	0.03
808.008	0.03
808.307	0.03
808.606	0.03
808.905	0.02
809.204	0.03
809.503	0.02
809.802	0.02
810.101	0.02
810.399	0.03
810.698	0.02
810.997	0.02
811.295	0.02
811.593	0.03
811.892	0.02
812.19	0.02
812.488	0.03
812.786	0.02
813.084	0.02
813.383	0.02
813.68	0.03
813.978	0.03
814.276	0.03
814.574	0.03
814.872	0.03
815.169	0.03
815.467	0.04
815.764	0.03
816.062	0.04
816.359	0.03
816.656	0.03
816.954	0.03
817.251	0.03
817.548	0.03
817.845	0.04
818.142	0.03
818.439	0.03
818.735	0.03
819.032	0.03
819.329	0.03
819.626	0.03
819.922	0.03
820.219	0.03
820.515	0.04
820.811	0.04
821.108	0.04
821.404	0.03
821.7	0.03
821.996	0.03
822.292	0.04
822.588	0.04
822.884	0.04
823.18	0.04
823.475	0.03
823.771	0.04
824.067	0.04
824.362	0.04
824.658	0.04
824.953	0.04
825.249	0.03
825.544	0.03
825.839	0.03
826.134	0.03
826.429	0.04
826.724	0.04
827.019	0.04
827.314	0.04
827.609	0.03
827.904	0.03
828.198	0.04
828.493	0.04
828.787	0.03
829.082	0.04
829.376	0.04
829.671	0.04
829.965	0.04
830.259	0.04
830.553	0.05
830.847	0.05
831.141	0.04
831.435	0.04
831.729	0.04
832.023	0.04
832.317	0.04
832.61	0.04
832.904	0.04
833.197	0.04
833.491	0.04
833.784	0.03
834.077	0.04
834.371	0.04
834.664	0.04
834.957	0.04
835.25	0.04
835.543	0.04
835.836	0.04
836.129	0.04
836.421	0.04
836.714	0.04
837.007	0.04
837.299	0.04
837.592	0.05
837.884	0.04
838.177	0.04
838.469	0.04
838.761	0.04
839.053	0.04
839.345	0.04
839.637	0.04
839.929	0.04
840.221	0.04
840.513	0.04
840.805	0.05
841.096	0.04
841.388	0.05
841.68	0.05
841.971	0.04
842.262	0.04
842.554	0.04
842.845	0.04
843.136	0.04
843.427	0.04
843.718	0.04
844.009	0.04
844.3	0.04
844.591	0.04
844.882	0.05
845.173	0.04
845.463	0.05
845.754	0.04
846.044	0.05
846.335	0.05
846.625	0.04
846.915	0.05
847.206	0.05
847.496	0.05
847.786	0.05
848.076	0.05
848.366	0.04
848.656	0.04
848.945	0.04
849.235	0.04
849.525	0.04
849.814	0.04
850.104	0.05
850.393	0.04
850.683	0.05
850.972	0.06
851.261	0.05
851.551	0.05
851.84	0.05
852.129	0.05
852.418	0.05
852.707	0.04
852.995	0.05
853.284	0.04
853.573	0.04
853.862	0.05
854.15	0.05
854.439	0.06
854.727	0.06
855.015	0.06
855.304	0.06
855.592	0.06
855.88	0.06
856.168	0.05
856.456	0.06
856.744	0.05
857.032	0.07
857.32	0.06
857.607	0.06
857.895	0.05
858.183	0.06
858.47	0.05
858.757	0.04
859.045	0.05
859.332	0.05
859.619	0.05
859.907	0.07
860.194	0.08
860.481	0.07
860.768	0.07
861.054	0.06
861.341	0.06
861.628	0.07
861.915	0.06
862.201	0.05
862.488	0.06
862.774	0.06
863.061	0.07
863.347	0.06
863.633	0.05
863.919	0.06
864.205	0.05
864.491	0.06
864.777	0.05
865.063	0.06
865.349	0.05
865.635	0.04
865.92	0.04
866.206	0.03
866.492	0.07
866.777	0.06
867.062	0.05
867.348	0.06
867.633	0.04
867.918	0.06
868.203	0.07
868.488	0.06
868.773	0.06
869.058	0.07
869.343	0.06
869.628	0.06
869.912	0.05
870.197	0.04
870.482	0.05
870.766	0.02
871.05	0.06
871.335	0.02
871.619	0.07
871.903	0.03
872.187	0.03
872.471	0.03
872.755	0.1
873.039	0.02
873.323	0.04
873.607	0.08
873.89	0.02
874.174	0.07
874.458	0.01
874.741	0.07
875.024	0.04
875.308	0.02
875.591	0.04
875.874	0.03
876.157	0.05
876.44	0.03
876.723	0.04
877.006	0.06
877.289	0.01
877.572	0.06
877.854	0.09
878.137	0.03
878.42	0.1
878.702	0.05
878.984	0.04
879.267	0.04
879.549	0.03
879.831	0.04
880.113	0.08
880.395	0.01
880.677	0
880.959	-0.05
