Data from Rubpy_BV_600_EDTA_Buffered_Absorbance_12-24-11-482.txt Node
Date: Wed Jul 01 12:24:11 BST 2026
User: fpm-admin
Spectrometer: OFX00224
Trigger mode: 0
Integration Time (sec): 7.000000E-2
Scans to average: 3
Nonlinearity correction enabled: false
Boxcar width: 0
Storing dark spectrum: false
XAxis mode: Wavelengths
Number of Pixels in Spectrum: 2136
>>>>>Begin Spectral Data<<<<<
154.91	-0
155.289	-0.05
155.669	0.56
156.048	-0
156.428	-0
156.807	0.4
157.186	0.24
157.566	-0
157.945	0.58
158.325	0.04
158.704	-0
159.083	-0
159.462	1.16
159.842	0.65
160.221	0.48
160.6	-0.38
160.979	0.5
161.359	-0.57
161.738	-0.23
162.117	-0
162.496	-0
162.875	-0
163.254	0.25
163.633	-0.18
164.012	1.4
164.391	-0
164.77	-0.23
165.149	0.2
165.528	-0
165.907	1
166.286	-0
166.665	-0
167.044	-0
167.423	0.1
167.802	-0
168.181	0.02
168.559	-0.33
168.938	-0.93
169.317	-0
169.696	-0
170.074	-0.02
170.453	-0
170.832	-0.06
171.21	-1.22
171.589	0.92
171.968	-0
172.346	0.89
172.725	-0
173.103	-0
173.482	0.27
173.861	-0.85
174.239	-0
174.617	-0.25
174.996	0.54
175.374	-0
175.753	-0
176.131	0.8
176.51	0.64
176.888	0.81
177.266	0.46
177.645	0.09
178.023	0.23
178.401	-0.25
178.779	1.11
179.158	-0.08
179.536	0.55
179.914	-0.27
180.292	-0
180.67	-0.33
181.048	-0
181.427	-0.33
181.805	-0
182.183	0.12
182.561	-0
182.939	-0
183.317	0.57
183.695	0.81
184.073	-0
184.451	-0
184.829	0.7
185.206	-0.21
185.584	0.19
185.962	-0
186.34	-0.54
186.718	-0.65
187.096	-0.18
187.473	-0
187.851	-0.19
188.229	-0
188.607	0.04
188.984	0.08
189.362	0.02
189.74	0.02
190.117	0.05
190.495	0.02
190.872	-0.01
191.25	0.01
191.627	-0.01
192.005	0.08
192.382	0.04
192.76	0.06
193.137	0.08
193.515	0
193.892	0.02
194.269	-0.04
194.647	0.08
195.024	0.09
195.401	0.06
195.779	0.03
196.156	0.09
196.533	-0.01
196.91	0.02
197.288	-0.02
197.665	0.07
198.042	0.07
198.419	0.03
198.796	0.07
199.173	0.01
199.55	-0.03
199.927	0.06
200.304	0.03
200.681	0.11
201.058	-0.11
201.435	-0.04
201.812	0.06
202.189	0.11
202.566	0.1
202.943	0.04
203.32	0.08
203.697	0.09
204.073	0.12
204.45	-0.02
204.827	0.05
205.204	-0.03
205.58	0.09
205.957	0.01
206.334	0.12
206.71	0.09
207.087	0.08
207.464	0.09
207.84	0.03
208.217	0.1
208.593	-0.06
208.97	0
209.346	0.06
209.723	0.01
210.099	-0
210.476	0.14
210.852	0.12
211.228	0.12
211.605	0.13
211.981	0.11
212.357	-0.03
212.733	-0.03
213.11	0.03
213.486	-0.01
213.862	0.09
214.238	-0.01
214.614	0.01
214.991	0.16
215.367	0.1
215.743	0.02
216.119	0.03
216.495	0.03
216.871	0.06
217.247	0.01
217.623	-0.01
217.999	-0.03
218.375	0.01
218.751	0.06
219.127	-0.01
219.502	-0.01
219.878	-0
220.254	0.03
220.63	-0
221.006	0.04
221.381	0.04
221.757	0
222.133	0.03
222.508	0.02
222.884	0.07
223.26	0.02
223.635	0.11
224.011	0.01
224.386	0.16
224.762	0.13
225.137	0.1
225.513	0.01
225.888	-0.04
226.264	0.01
226.639	0.02
227.014	0.11
227.39	0.06
227.765	0.07
228.14	0.07
228.516	0.05
228.891	0.12
229.266	0.05
229.641	0.11
230.017	0.05
230.392	0.06
230.767	0.05
231.142	0.13
231.517	0.09
231.892	0.09
232.267	0.14
232.642	0.06
233.017	0.03
233.392	0
233.767	0.08
234.142	0.07
234.517	0.05
234.892	0.07
235.267	0.04
235.641	0.09
236.016	0.16
236.391	0.15
236.766	0.09
237.14	-0.02
237.515	0.07
237.89	-0.02
238.264	0.01
238.639	0.06
239.014	0.16
239.388	-0
239.763	0.14
240.137	0.06
240.512	0.08
240.886	0.03
241.261	0.09
241.635	0.11
242.009	0.12
242.384	0.08
242.758	-0.01
243.132	0.02
243.507	0.03
243.881	-0.01
244.255	0.09
244.629	0.04
245.004	0.07
245.378	0.09
245.752	0.03
246.126	0.17
246.5	-0.03
246.874	0.04
247.248	0.06
247.622	0.05
247.996	0.03
248.37	0.08
248.744	0.11
249.118	0.15
249.492	0.12
249.866	0.06
250.24	0.11
250.613	0.13
250.987	0.15
251.361	0.09
251.735	0.05
252.108	0.06
252.482	0.07
252.856	-0.01
253.229	0.02
253.603	-0.05
253.977	0.12
254.35	0.07
254.724	0.13
255.097	0.07
255.471	0.09
255.844	0.08
256.218	0.05
256.591	0.08
256.964	0.01
257.338	0.01
257.711	0.14
258.084	0.06
258.458	0.07
258.831	0.11
259.204	0.11
259.577	0.07
259.95	0.1
260.323	0.08
260.697	0.04
261.07	-0.01
261.443	0.06
261.816	0.07
262.189	0.05
262.562	0.06
262.935	-0.01
263.308	0.08
263.68	0.08
264.053	0.08
264.426	0.1
264.799	0.11
265.172	0.11
265.545	0.07
265.917	0.04
266.29	0.08
266.663	0.09
267.035	0.06
267.408	0.08
267.781	0.08
268.153	0.12
268.526	0.1
268.898	0.06
269.271	0.09
269.643	0.07
270.016	0.05
270.388	0.12
270.76	0.07
271.133	0.13
271.505	0.03
271.877	0.03
272.25	0.1
272.622	0.14
272.994	0.1
273.366	0.13
273.739	0.15
274.111	0.05
274.483	0.09
274.855	0.09
275.227	0.08
275.599	0.12
275.971	0.04
276.343	0.16
276.715	0.09
277.087	0.08
277.459	0.01
277.831	0.12
278.203	0.07
278.574	0.07
278.946	0.09
279.318	0.09
279.69	0.05
280.061	0.12
280.433	0.05
280.805	0.14
281.176	0.1
281.548	0.11
281.92	0.1
282.291	0.1
282.663	0.12
283.034	0.14
283.406	0.13
283.777	0.07
284.148	0.1
284.52	0.03
284.891	0.09
285.262	0.09
285.634	0.05
286.005	0.11
286.376	0.09
286.747	0.07
287.119	0.1
287.49	0.05
287.861	0.07
288.232	0.04
288.603	0.06
288.974	0.03
289.345	0.06
289.716	0.09
290.087	0.1
290.458	0.05
290.829	0.03
291.2	0.12
291.571	0.02
291.941	0.04
292.312	0.11
292.683	-0.01
293.054	0.08
293.424	0.03
293.795	0.07
294.166	0.07
294.536	0.09
294.907	0.08
295.277	0.1
295.648	0.1
296.018	0.08
296.389	0.06
296.759	0.08
297.13	0.07
297.5	0.09
297.871	0.07
298.241	0.02
298.611	0
298.981	0.05
299.352	0.08
299.722	0.12
300.092	0.04
300.462	0.07
300.832	0.04
301.202	0.08
301.573	0.08
301.943	0.04
302.313	0.04
302.683	0.06
303.053	0.08
303.422	0.03
303.792	0.05
304.162	0.07
304.532	0.04
304.902	0.02
305.272	0.07
305.641	0.05
306.011	0.03
306.381	0.03
306.75	0.05
307.12	0.02
307.49	0.03
307.859	0.04
308.229	0.03
308.598	0.05
308.968	0.05
309.337	0.05
309.707	0.05
310.076	0.04
310.445	0.05
310.815	0.05
311.184	0.04
311.553	0.05
311.923	0.06
312.292	0.06
312.661	0.06
313.03	0.06
313.399	0.06
313.768	0.05
314.137	0.06
314.506	0.06
314.875	0.06
315.244	0.07
315.613	0.06
315.982	0.07
316.351	0.07
316.72	0.06
317.089	0.06
317.458	0.06
317.826	0.07
318.195	0.07
318.564	0.08
318.933	0.07
319.301	0.07
319.67	0.08
320.038	0.08
320.407	0.07
320.775	0.07
321.144	0.08
321.512	0.08
321.881	0.08
322.249	0.08
322.618	0.08
322.986	0.08
323.354	0.08
323.723	0.08
324.091	0.08
324.459	0.08
324.827	0.09
325.195	0.09
325.564	0.09
325.932	0.09
326.3	0.09
326.668	0.09
327.036	0.09
327.404	0.09
327.772	0.09
328.14	0.1
328.508	0.1
328.875	0.09
329.243	0.1
329.611	0.1
329.979	0.1
330.346	0.11
330.714	0.11
331.082	0.11
331.449	0.11
331.817	0.11
332.185	0.11
332.552	0.11
332.92	0.11
333.287	0.11
333.655	0.12
334.022	0.12
334.389	0.13
334.757	0.13
335.124	0.13
335.491	0.13
335.859	0.13
336.226	0.14
336.593	0.14
336.96	0.14
337.327	0.15
337.695	0.15
338.062	0.15
338.429	0.15
338.796	0.15
339.163	0.15
339.53	0.16
339.897	0.16
340.263	0.16
340.63	0.16
340.997	0.17
341.364	0.17
341.731	0.17
342.097	0.18
342.464	0.18
342.831	0.18
343.197	0.19
343.564	0.19
343.931	0.19
344.297	0.19
344.664	0.2
345.03	0.2
345.396	0.21
345.763	0.2
346.129	0.21
346.496	0.21
346.862	0.22
347.228	0.22
347.594	0.22
347.961	0.22
348.327	0.23
348.693	0.23
349.059	0.24
349.425	0.24
349.791	0.24
350.157	0.24
350.523	0.24
350.889	0.25
351.255	0.25
351.621	0.26
351.987	0.26
352.353	0.26
352.719	0.26
353.084	0.27
353.45	0.27
353.816	0.28
354.181	0.27
354.547	0.28
354.913	0.28
355.278	0.29
355.644	0.29
356.009	0.29
356.375	0.3
356.74	0.3
357.106	0.31
357.471	0.32
357.836	0.31
358.202	0.32
358.567	0.33
358.932	0.33
359.297	0.33
359.663	0.34
360.028	0.35
360.393	0.35
360.758	0.35
361.123	0.36
361.488	0.36
361.853	0.37
362.218	0.38
362.583	0.38
362.948	0.38
363.312	0.39
363.677	0.4
364.042	0.4
364.407	0.41
364.772	0.4
365.136	0.41
365.501	0.42
365.865	0.42
366.23	0.43
366.595	0.43
366.959	0.44
367.324	0.44
367.688	0.45
368.052	0.45
368.417	0.45
368.781	0.46
369.145	0.46
369.51	0.47
369.874	0.47
370.238	0.47
370.602	0.48
370.967	0.48
371.331	0.49
371.695	0.48
372.059	0.48
372.423	0.49
372.787	0.49
373.151	0.49
373.515	0.49
373.878	0.49
374.242	0.49
374.606	0.49
374.97	0.48
375.334	0.48
375.697	0.48
376.061	0.47
376.425	0.47
376.788	0.46
377.152	0.46
377.515	0.46
377.879	0.45
378.242	0.45
378.606	0.45
378.969	0.44
379.333	0.43
379.696	0.43
380.059	0.43
380.422	0.43
380.786	0.42
381.149	0.41
381.512	0.41
381.875	0.41
382.238	0.4
382.601	0.4
382.964	0.41
383.327	0.4
383.69	0.4
384.053	0.39
384.416	0.4
384.779	0.4
385.142	0.4
385.504	0.39
385.867	0.4
386.23	0.4
386.593	0.4
386.955	0.4
387.318	0.4
387.68	0.4
388.043	0.41
388.405	0.41
388.768	0.41
389.13	0.41
389.493	0.41
389.855	0.41
390.217	0.41
390.58	0.41
390.942	0.41
391.304	0.41
391.666	0.4
392.028	0.4
392.391	0.4
392.753	0.39
393.115	0.38
393.477	0.39
393.839	0.38
394.201	0.38
394.563	0.38
394.924	0.38
395.286	0.38
395.648	0.38
396.01	0.38
396.371	0.39
396.733	0.4
397.095	0.41
397.456	0.42
397.818	0.43
398.18	0.44
398.541	0.45
398.903	0.47
399.264	0.48
399.625	0.5
399.987	0.5
400.348	0.51
400.709	0.52
401.071	0.53
401.432	0.53
401.793	0.54
402.154	0.53
402.515	0.52
402.876	0.51
403.238	0.51
403.599	0.49
403.96	0.48
404.32	0.46
404.681	0.44
405.042	0.43
405.403	0.41
405.764	0.39
406.125	0.37
406.485	0.34
406.846	0.33
407.207	0.31
407.567	0.29
407.928	0.28
408.288	0.26
408.649	0.24
409.009	0.23
409.37	0.21
409.73	0.2
410.091	0.19
410.451	0.18
410.811	0.17
411.171	0.16
411.532	0.15
411.892	0.14
412.252	0.14
412.612	0.13
412.972	0.12
413.332	0.12
413.692	0.12
414.052	0.11
414.412	0.11
414.772	0.1
415.132	0.09
415.492	0.09
415.851	0.09
416.211	0.08
416.571	0.08
416.931	0.08
417.29	0.07
417.65	0.08
418.009	0.07
418.369	0.07
418.728	0.07
419.088	0.07
419.447	0.07
419.807	0.06
420.166	0.06
420.525	0.06
420.884	0.07
421.244	0.06
421.603	0.06
421.962	0.05
422.321	0.06
422.68	0.06
423.039	0.06
423.398	0.05
423.757	0.05
424.116	0.06
424.475	0.06
424.834	0.05
425.193	0.05
425.551	0.05
425.91	0.04
426.269	0.05
426.628	0.05
426.986	0.05
427.345	0.05
427.703	0.04
428.062	0.05
428.42	0.05
428.779	0.04
429.137	0.04
429.496	0.05
429.854	0.04
430.212	0.04
430.57	0.04
430.929	0.05
431.287	0.04
431.645	0.04
432.003	0.04
432.361	0.04
432.719	0.04
433.077	0.04
433.435	0.03
433.793	0.03
434.151	0.03
434.509	0.04
434.866	0.04
435.224	0.04
435.582	0.04
435.94	0.04
436.297	0.03
436.655	0.04
437.012	0.04
437.37	0.04
437.727	0.03
438.085	0.04
438.442	0.04
438.8	0.03
439.157	0.03
439.514	0.03
439.872	0.04
440.229	0.04
440.586	0.04
440.943	0.04
441.3	0.03
441.657	0.03
442.014	0.03
442.371	0.04
442.728	0.03
443.085	0.04
443.442	0.03
443.799	0.03
444.156	0.03
444.513	0.04
444.869	0.03
445.226	0.03
445.583	0.03
445.939	0.04
446.296	0.03
446.652	0.04
447.009	0.03
447.365	0.04
447.722	0.03
448.078	0.03
448.434	0.03
448.791	0.04
449.147	0.03
449.503	0.03
449.859	0.03
450.215	0.03
450.571	0.03
450.928	0.03
451.284	0.03
451.64	0.03
451.995	0.02
452.351	0.03
452.707	0.02
453.063	0.02
453.419	0.03
453.775	0.02
454.13	0.03
454.486	0.03
454.842	0.02
455.197	0.02
455.553	0.02
455.908	0.02
456.264	0.02
456.619	0.02
456.975	0.01
457.33	0.01
457.685	0.02
458.04	0.01
458.396	0.01
458.751	-0
459.106	-0
459.461	0
459.816	0
460.171	0
460.526	-0.01
460.881	-0
461.236	-0
461.591	-0.01
461.946	-0
462.301	-0
462.655	-0.01
463.01	-0.01
463.365	-0.02
463.719	-0.01
464.074	-0.01
464.428	-0.02
464.783	-0.02
465.137	-0.02
465.492	-0.03
465.846	-0.02
466.201	-0.03
466.555	-0.02
466.909	-0.03
467.263	-0.02
467.618	-0.02
467.972	-0.01
468.326	-0.02
468.68	-0.02
469.034	-0.02
469.388	-0.02
469.742	-0.03
470.096	-0.03
470.45	-0.02
470.804	-0.02
471.157	-0.02
471.511	-0.03
471.865	-0.02
472.218	-0.02
472.572	-0.02
472.926	-0.01
473.279	-0.01
473.633	-0
473.986	-0.01
474.34	-0
474.693	0
475.046	0.01
475.4	0.01
475.753	0.01
476.106	0.02
476.459	0.02
476.812	0.02
477.165	0.03
477.519	0.03
477.872	0.03
478.224	0.03
478.577	0.04
478.93	0.04
479.283	0.04
479.636	0.05
479.989	0.05
480.341	0.05
480.694	0.05
481.047	0.05
481.399	0.06
481.752	0.06
482.104	0.06
482.457	0.06
482.809	0.06
483.162	0.07
483.514	0.07
483.866	0.07
484.219	0.07
484.571	0.07
484.923	0.07
485.275	0.07
485.627	0.07
485.979	0.07
486.331	0.08
486.683	0.08
487.035	0.08
487.387	0.08
487.739	0.08
488.091	0.08
488.443	0.09
488.794	0.09
489.146	0.08
489.498	0.09
489.849	0.09
490.201	0.09
490.552	0.09
490.904	0.09
491.255	0.1
491.607	0.09
491.958	0.09
492.309	0.1
492.661	0.1
493.012	0.1
493.363	0.1
493.714	0.1
494.065	0.1
494.416	0.1
494.767	0.1
495.118	0.1
495.469	0.11
495.82	0.11
496.171	0.11
496.522	0.11
496.872	0.11
497.223	0.11
497.574	0.11
497.924	0.11
498.275	0.11
498.626	0.12
498.976	0.12
499.327	0.12
499.677	0.12
500.027	0.12
500.378	0.12
500.728	0.12
501.078	0.13
501.428	0.12
501.779	0.12
502.129	0.12
502.479	0.12
502.829	0.13
503.179	0.12
503.529	0.13
503.879	0.13
504.229	0.13
504.578	0.13
504.928	0.13
505.278	0.14
505.628	0.14
505.977	0.13
506.327	0.14
506.676	0.14
507.026	0.14
507.375	0.14
507.725	0.14
508.074	0.15
508.424	0.14
508.773	0.14
509.122	0.15
509.471	0.14
509.82	0.15
510.17	0.15
510.519	0.15
510.868	0.15
511.217	0.15
511.566	0.15
511.915	0.15
512.263	0.15
512.612	0.16
512.961	0.15
513.31	0.15
513.659	0.16
514.007	0.16
514.356	0.16
514.704	0.16
515.053	0.16
515.401	0.16
515.75	0.16
516.098	0.16
516.447	0.16
516.795	0.16
517.143	0.16
517.491	0.17
517.839	0.17
518.188	0.17
518.536	0.17
518.884	0.17
519.232	0.17
519.58	0.17
519.928	0.17
520.275	0.17
520.623	0.17
520.971	0.17
521.319	0.17
521.666	0.17
522.014	0.18
522.362	0.18
522.709	0.18
523.057	0.18
523.404	0.18
523.752	0.18
524.099	0.18
524.446	0.18
524.794	0.18
525.141	0.19
525.488	0.19
525.835	0.19
526.182	0.19
526.529	0.19
526.876	0.19
527.223	0.19
527.57	0.19
527.917	0.19
528.264	0.19
528.611	0.19
528.958	0.19
529.304	0.19
529.651	0.19
529.998	0.19
530.344	0.19
530.691	0.19
531.037	0.19
531.384	0.19
531.73	0.19
532.076	0.2
532.423	0.2
532.769	0.2
533.115	0.2
533.461	0.2
533.807	0.19
534.154	0.2
534.5	0.2
534.846	0.2
535.192	0.21
535.537	0.2
535.883	0.2
536.229	0.2
536.575	0.2
536.921	0.2
537.266	0.2
537.612	0.21
537.957	0.2
538.303	0.2
538.649	0.21
538.994	0.21
539.339	0.21
539.685	0.21
540.03	0.21
540.375	0.21
540.721	0.21
541.066	0.21
541.411	0.21
541.756	0.21
542.101	0.21
542.446	0.21
542.791	0.22
543.136	0.21
543.481	0.21
543.825	0.21
544.17	0.21
544.515	0.21
544.86	0.21
545.204	0.22
545.549	0.22
545.893	0.22
546.238	0.22
546.582	0.22
546.927	0.22
547.271	0.22
547.615	0.22
547.96	0.22
548.304	0.22
548.648	0.22
548.992	0.22
549.336	0.22
549.68	0.22
550.024	0.22
550.368	0.22
550.712	0.22
551.056	0.22
551.4	0.22
551.743	0.23
552.087	0.22
552.431	0.22
552.774	0.22
553.118	0.23
553.462	0.22
553.805	0.22
554.148	0.22
554.492	0.22
554.835	0.23
555.178	0.23
555.522	0.22
555.865	0.22
556.208	0.22
556.551	0.22
556.894	0.22
557.237	0.22
557.58	0.23
557.923	0.23
558.266	0.23
558.609	0.23
558.952	0.22
559.294	0.23
559.637	0.22
559.98	0.23
560.322	0.23
560.665	0.23
561.007	0.23
561.35	0.23
561.692	0.22
562.034	0.22
562.377	0.23
562.719	0.23
563.061	0.22
563.403	0.23
563.745	0.22
564.088	0.23
564.43	0.23
564.772	0.23
565.113	0.22
565.455	0.22
565.797	0.22
566.139	0.23
566.481	0.22
566.822	0.22
567.164	0.22
567.506	0.23
567.847	0.22
568.189	0.22
568.53	0.22
568.872	0.22
569.213	0.22
569.554	0.22
569.895	0.22
570.237	0.22
570.578	0.22
570.919	0.22
571.26	0.22
571.601	0.22
571.942	0.22
572.283	0.22
572.624	0.22
572.965	0.21
573.306	0.21
573.646	0.21
573.987	0.21
574.328	0.21
574.668	0.21
575.009	0.21
575.349	0.2
575.69	0.2
576.03	0.2
576.37	0.19
576.711	0.18
577.051	0.18
577.391	0.19
577.731	0.2
578.072	0.2
578.412	0.19
578.752	0.19
579.092	0.18
579.431	0.15
579.771	0.13
580.111	0.12
580.451	0.13
580.791	0.16
581.13	0.17
581.47	0.19
581.81	0.18
582.149	0.18
582.489	0.19
582.828	0.16
583.167	0.12
583.507	0.09
583.846	0.07
584.185	0.1
584.525	0.12
584.864	0.15
585.203	0.18
585.542	0.2
585.881	0.2
586.22	0.2
586.559	0.17
586.898	0.15
587.236	0.14
587.575	0.13
587.914	0.14
588.252	0.16
588.591	0.18
588.93	0.18
589.268	0.17
589.607	0.17
589.945	0.17
590.283	0.17
590.622	0.18
590.96	0.19
591.298	0.2
591.636	0.2
591.974	0.2
592.313	0.2
592.651	0.21
592.989	0.2
593.326	0.21
593.664	0.21
594.002	0.21
594.34	0.2
594.678	0.18
595.015	0.16
595.353	0.15
595.691	0.16
596.028	0.18
596.366	0.2
596.703	0.2
597.04	0.21
597.378	0.2
597.715	0.21
598.052	0.21
598.389	0.21
598.726	0.21
599.064	0.21
599.401	0.21
599.738	0.21
600.074	0.2
600.411	0.2
600.748	0.18
601.085	0.17
601.422	0.16
601.758	0.16
602.095	0.17
602.432	0.17
602.768	0.18
603.105	0.19
603.441	0.2
603.777	0.21
604.114	0.21
604.45	0.21
604.786	0.21
605.122	0.21
605.459	0.21
605.795	0.2
606.131	0.2
606.467	0.21
606.803	0.21
607.139	0.2
607.474	0.2
607.81	0.19
608.146	0.2
608.482	0.19
608.817	0.19
609.153	0.19
609.488	0.19
609.824	0.19
610.159	0.2
610.495	0.2
610.83	0.2
611.165	0.2
611.5	0.2
611.836	0.2
612.171	0.2
612.506	0.2
612.841	0.2
613.176	0.2
613.511	0.2
613.845	0.2
614.18	0.2
614.515	0.2
614.85	0.2
615.184	0.2
615.519	0.2
615.854	0.2
616.188	0.19
616.523	0.19
616.857	0.19
617.191	0.19
617.526	0.19
617.86	0.19
618.194	0.19
618.528	0.19
618.862	0.19
619.196	0.19
619.53	0.19
619.864	0.19
620.198	0.19
620.532	0.19
620.866	0.19
621.2	0.19
621.533	0.19
621.867	0.19
622.201	0.19
622.534	0.19
622.868	0.19
623.201	0.19
623.534	0.19
623.868	0.19
624.201	0.18
624.534	0.18
624.868	0.18
625.201	0.18
625.534	0.18
625.867	0.18
626.2	0.18
626.533	0.18
626.865	0.18
627.198	0.18
627.531	0.18
627.864	0.18
628.196	0.17
628.529	0.17
628.862	0.17
629.194	0.17
629.527	0.17
629.859	0.17
630.191	0.17
630.524	0.17
630.856	0.17
631.188	0.17
631.52	0.17
631.852	0.16
632.184	0.16
632.516	0.16
632.848	0.16
633.18	0.16
633.512	0.16
633.844	0.16
634.175	0.16
634.507	0.16
634.839	0.16
635.17	0.16
635.502	0.15
635.833	0.15
636.165	0.15
636.496	0.15
636.827	0.15
637.159	0.15
637.49	0.15
637.821	0.15
638.152	0.14
638.483	0.14
638.814	0.14
639.145	0.14
639.476	0.14
639.807	0.14
640.137	0.14
640.468	0.14
640.799	0.13
641.129	0.14
641.46	0.14
641.791	0.14
642.121	0.13
642.451	0.13
642.782	0.13
643.112	0.13
643.442	0.13
643.773	0.14
644.103	0.13
644.433	0.13
644.763	0.12
645.093	0.12
645.423	0.12
645.753	0.13
646.082	0.12
646.412	0.12
646.742	0.12
647.072	0.12
647.401	0.12
647.731	0.12
648.06	0.12
648.39	0.12
648.719	0.12
649.048	0.12
649.378	0.12
649.707	0.12
650.036	0.12
650.365	0.12
650.694	0.11
651.023	0.11
651.352	0.11
651.681	0.11
652.01	0.11
652.339	0.11
652.668	0.11
652.996	0.11
653.325	0.11
653.654	0.11
653.982	0.11
654.311	0.11
654.639	0.11
654.967	0.11
655.296	0.11
655.624	0.11
655.952	0.11
656.28	0.11
656.609	0.11
656.937	0.11
657.265	0.1
657.593	0
657.92	0
658.248	0
658.576	0
658.904	-0
659.231	0.01
659.559	0.07
659.887	0.1
660.214	0.1
660.542	0.11
660.869	0.11
661.196	0.11
661.524	0.1
661.851	0.11
662.178	0.1
662.505	0.1
662.832	0.1
663.159	0.1
663.486	0.1
663.813	0.1
664.14	0.1
664.467	0.1
664.794	0.11
665.12	0.1
665.447	0.1
665.774	0.1
666.1	0.1
666.427	0.1
666.753	0.1
667.079	0.1
667.406	0.1
667.732	0.1
668.058	0.1
668.384	0.1
668.71	0.1
669.036	0.09
669.362	0.1
669.688	0.1
670.014	0.09
670.34	0.09
670.666	0.09
670.991	0.09
671.317	0.09
671.643	0.09
671.968	0.09
672.294	0.09
672.619	0.08
672.945	0.09
673.27	0.08
673.595	0.08
673.92	0.07
674.246	0.07
674.571	0.07
674.896	0.08
675.221	0.08
675.546	0.08
675.87	0.08
676.195	0.08
676.52	0.08
676.845	0.08
677.169	0.08
677.494	0.07
677.819	0.08
678.143	0.07
678.468	0.07
678.792	0.07
679.116	0.07
679.44	0.07
679.765	0.06
680.089	0.06
680.413	0.06
680.737	0.06
681.061	0.05
681.385	0.05
681.709	0.05
682.033	0.04
682.356	0.05
682.68	0.05
683.004	0.05
683.327	0.04
683.651	0.04
683.974	0.04
684.298	0.04
684.621	0.05
684.944	0.05
685.268	0.05
685.591	0.04
685.914	0.04
686.237	0.03
686.56	0.02
686.883	0.02
687.206	0.01
687.529	0.01
687.852	0.01
688.175	0.01
688.497	0.02
688.82	0.02
689.142	0.02
689.465	0.02
689.787	0.02
690.11	0.02
690.432	0.02
690.755	0.02
691.077	0.02
691.399	0.01
691.721	0.01
692.043	0.01
692.365	0.01
692.687	0.01
693.009	0.01
693.331	0
693.653	0
693.974	0.01
694.296	0
694.618	0.01
694.939	0.01
695.261	0
695.582	0
695.904	0
696.225	0.01
696.546	0.01
696.868	0.01
697.189	0
697.51	0
697.831	0
698.152	0.01
698.473	0
698.794	0
699.114	0
699.435	0
699.756	0
700.077	0
700.397	0
700.718	0
701.038	0
701.359	0
701.679	0
701.999	0
702.32	0
702.64	0
702.96	0
703.28	0
703.6	0
703.92	0
704.24	0
704.56	0
704.879	0
705.199	0
705.519	0
705.838	0
706.158	0
706.478	0
706.797	0
707.116	0
707.436	0
707.755	0
708.074	0
708.393	0
708.712	0
709.031	0
709.35	0
709.669	-0
709.988	0
710.307	0
710.626	-0
710.944	0
711.263	0
711.582	0
711.9	0
712.219	0
712.537	0
712.855	0
713.174	0
713.492	0
713.81	0
714.128	0
714.446	0
714.764	0
715.082	0
715.4	0
715.718	0
716.035	0
716.353	0
716.671	0
716.988	0
717.306	0
717.623	0
717.941	0
718.258	0
718.575	0
718.893	0
719.21	0
719.527	0
719.844	0
720.161	0
720.478	0
720.795	0
721.112	0
721.428	0
721.745	0
722.062	0
722.378	0
722.695	0
723.011	0
723.328	0
723.644	0
723.96	0
724.276	0
724.593	0
724.909	0.01
725.225	0
725.541	0
725.857	0.01
726.173	0
726.488	0.01
726.804	0
727.12	0
727.435	0
727.751	0.01
728.067	0
728.382	0
728.697	0.01
729.013	0.01
729.328	0
729.643	0.01
729.958	0
730.273	0.01
730.588	0
730.903	0.01
731.218	0.01
731.533	0
731.848	0
732.163	0
732.477	0
732.792	0
733.107	0
733.421	0
733.736	0
734.05	0
734.364	0
734.678	0.01
734.993	0
735.307	0
735.621	0
735.935	0
736.249	0
736.563	0
736.877	0.01
737.19	0.01
737.504	0
737.818	0
738.131	0
738.445	0.01
738.758	0.01
739.072	0.01
739.385	0.01
739.698	0.01
740.012	0.01
740.325	0.01
740.638	0.01
740.951	0.01
741.264	0
741.577	0.01
741.89	0.01
742.203	0.01
742.515	0.02
742.828	0.02
743.141	0.01
743.453	0.02
743.766	0.02
744.078	0.01
744.391	0.01
744.703	0.01
745.015	0.02
745.327	0.01
745.639	0.01
745.952	0.01
746.264	0.01
746.575	0.01
746.887	0.01
747.199	0.02
747.511	0.01
747.823	0.02
748.134	0.01
748.446	0.01
748.757	0.01
749.069	0.01
749.38	0.01
749.692	0.01
750.003	0.01
750.314	0.01
750.625	0.01
750.936	0.01
751.248	0.01
751.559	0.01
751.869	0
752.18	0
752.491	0
752.802	0
753.112	0
753.423	0
753.734	0
754.044	0
754.355	0
754.665	0
754.975	0
755.285	0
755.596	0
755.906	0
756.216	0
756.526	0
756.836	0
757.146	0
757.455	0
757.765	0
758.075	0
758.385	0
758.694	0
759.004	-0
759.313	0
759.622	-0
759.932	0
760.241	0
760.55	0
760.859	0
761.168	0
761.477	0
761.786	0
762.095	0
762.404	0
762.713	0
763.021	0
763.33	0
763.639	0
763.947	0
764.256	0
764.564	0
764.872	0
765.181	0
765.489	0
765.797	0
766.105	0
766.413	0
766.721	0
767.029	0
767.337	0
767.644	0
767.952	0.01
768.26	0.01
768.567	0.01
768.875	0.01
769.182	0.01
769.49	0.01
769.797	0.01
770.104	0.01
770.411	0.01
770.718	0.01
771.026	0.01
771.333	0.01
771.639	0.01
771.946	0.01
772.253	0.01
772.56	0.01
772.867	0.01
773.173	0.01
773.48	0.01
773.786	0.01
774.093	0.01
774.399	0.01
774.705	0.02
775.012	0.02
775.318	0.02
775.624	0.02
775.93	0.01
776.236	0.01
776.542	0.01
776.848	0.01
777.154	0.01
777.459	0.01
777.765	0.01
778.071	0.01
778.376	0.01
778.682	0.01
778.987	0.01
779.292	0.01
779.598	0.01
779.903	0.01
780.208	0.01
780.513	0.01
780.818	0.01
781.123	0.01
781.428	0.01
781.733	0.01
782.038	0.01
782.343	0.01
782.647	0.01
782.952	0.01
783.256	0.01
783.561	0.01
783.865	0.01
784.17	0.01
784.474	0.02
784.778	0.01
785.082	0.01
785.386	0.01
785.69	0.01
785.994	0.01
786.298	0.01
786.602	0.01
786.906	0.01
787.209	0.01
787.513	0.01
787.817	0.01
788.12	0.01
788.424	0.01
788.727	0.01
789.03	0.01
789.333	0.01
789.637	0.01
789.94	0.01
790.243	0.01
790.546	0.01
790.849	0.01
791.152	0.01
791.454	0.01
791.757	0.02
792.06	0.02
792.362	0.02
792.665	0.02
792.967	0.01
793.27	0.01
793.572	0.01
793.874	0.01
794.177	0.01
794.479	0.01
794.781	0.01
795.083	0.01
795.385	0.01
795.687	0.01
795.989	0.01
796.29	0.01
796.592	0.01
796.894	0.02
797.195	0.02
797.497	0.01
797.798	0.02
798.1	0.01
798.401	0.01
798.702	0.01
799.003	0.01
799.304	0.01
799.605	0.01
799.906	0.01
800.207	0.01
800.508	0.02
800.809	0.02
801.11	0.02
801.41	0.02
801.711	0.01
802.011	0.02
802.312	0.01
802.612	0.01
802.913	0.01
803.213	0.01
803.513	0.01
803.813	0.01
804.113	0.01
804.413	0.01
804.713	0.01
805.013	0.01
805.313	0.01
805.613	0.01
805.912	0.02
806.212	0.02
806.511	0.01
806.811	0.02
807.11	0.02
807.41	0.02
807.709	0.01
808.008	0.01
808.307	0.02
808.606	0.01
808.905	0.01
809.204	0.01
809.503	0.01
809.802	0.01
810.101	0.01
810.399	0.01
810.698	0.01
810.997	0.01
811.295	0.01
811.593	0.01
811.892	0.01
812.19	0.01
812.488	0.01
812.786	0.01
813.084	0.01
813.383	0.01
813.68	0.01
813.978	0.01
814.276	0.01
814.574	0.01
814.872	0.02
815.169	0.02
815.467	0.02
815.764	0.01
816.062	0.02
816.359	0.02
816.656	0.02
816.954	0.02
817.251	0.02
817.548	0.02
817.845	0.02
818.142	0.02
818.439	0.02
818.735	0.02
819.032	0.02
819.329	0.02
819.626	0.02
819.922	0.02
820.219	0.02
820.515	0.02
820.811	0.02
821.108	0.02
821.404	0.02
821.7	0.02
821.996	0.02
822.292	0.02
822.588	0.02
822.884	0.02
823.18	0.02
823.475	0.02
823.771	0.02
824.067	0.02
824.362	0.02
824.658	0.02
824.953	0.02
825.249	0.02
825.544	0.01
825.839	0.01
826.134	0.02
826.429	0.02
826.724	0.02
827.019	0.02
827.314	0.02
827.609	0.02
827.904	0.02
828.198	0.02
828.493	0.02
828.787	0.02
829.082	0.02
829.376	0.02
829.671	0.02
829.965	0.02
830.259	0.02
830.553	0.02
830.847	0.03
831.141	0.02
831.435	0.02
831.729	0.02
832.023	0.02
832.317	0.02
832.61	0.02
832.904	0.02
833.197	0.02
833.491	0.02
833.784	0.02
834.077	0.02
834.371	0.02
834.664	0.02
834.957	0.02
835.25	0.02
835.543	0.02
835.836	0.02
836.129	0.02
836.421	0.02
836.714	0.02
837.007	0.03
837.299	0.02
837.592	0.02
837.884	0.02
838.177	0.02
838.469	0.02
838.761	0.02
839.053	0.02
839.345	0.02
839.637	0.02
839.929	0.02
840.221	0.02
840.513	0.03
840.805	0.02
841.096	0.03
841.388	0.03
841.68	0.02
841.971	0.02
842.262	0.02
842.554	0.02
842.845	0.02
843.136	0.02
843.427	0.01
843.718	0.02
844.009	0.02
844.3	0.02
844.591	0.02
844.882	0.02
845.173	0.02
845.463	0.02
845.754	0.03
846.044	0.02
846.335	0.02
846.625	0.02
846.915	0.03
847.206	0.03
847.496	0.02
847.786	0.02
848.076	0.03
848.366	0.01
848.656	0.02
848.945	0.02
849.235	0.03
849.525	0.03
849.814	0.02
850.104	0.02
850.393	0.02
850.683	0.03
850.972	0.02
851.261	0.02
851.551	0.02
851.84	0.03
852.129	0.02
852.418	0.02
852.707	0.03
852.995	0.03
853.284	0.03
853.573	0.02
853.862	0.03
854.15	0.02
854.439	0.03
854.727	0.03
855.015	0.03
855.304	0.04
855.592	0.04
855.88	0.03
856.168	0.03
856.456	0.04
856.744	0.03
857.032	0.03
857.32	0.03
857.607	0.03
857.895	0.02
858.183	0.03
858.47	0.03
858.757	0.02
859.045	0.03
859.332	0.02
859.619	0.03
859.907	0.04
860.194	0.06
860.481	0.04
860.768	0.04
861.054	0.03
861.341	0.03
861.628	0.03
861.915	0.04
862.201	0.04
862.488	0.04
862.774	0.03
863.061	0.04
863.347	0.04
863.633	0.02
863.919	0.05
864.205	0.04
864.491	0.02
864.777	0.04
865.063	0.03
865.349	0.02
865.635	0.02
865.92	0.01
866.206	0
866.492	0.05
866.777	0.05
867.062	0.01
867.348	0.03
867.633	0.02
867.918	0.03
868.203	0.05
868.488	0.02
868.773	0.01
869.058	0.04
869.343	0.02
869.628	0.05
869.912	0.02
870.197	0.01
870.482	0.05
870.766	0.03
871.05	0.02
871.335	0.01
871.619	0.02
871.903	0.01
872.187	0.01
872.471	0.04
872.755	0.03
873.039	-0.01
873.323	-0
873.607	0.02
873.89	0.01
874.174	0.04
874.458	-0.01
874.741	0.06
875.024	0.03
875.308	-0.02
875.591	-0
875.874	0.02
876.157	0.04
876.44	0.05
876.723	0.03
877.006	0.03
877.289	0.01
877.572	0
877.854	0.04
878.137	0.01
878.42	0.04
878.702	0.01
878.984	-0.02
879.267	-0.01
879.549	0.02
879.831	0.03
880.113	0.02
880.395	-0.05
880.677	-0.07
880.959	-0
