Data from Rubpy_EV_1800_EDTA_Buffered_Absorbance_15-43-48-647.txt Node
Date: Tue Jun 30 15:43:48 BST 2026
User: fpm-admin
Spectrometer: OFX00224
Trigger mode: 0
Integration Time (sec): 7.000000E-2
Scans to average: 3
Nonlinearity correction enabled: false
Boxcar width: 0
Storing dark spectrum: false
XAxis mode: Wavelengths
Number of Pixels in Spectrum: 2136
>>>>>Begin Spectral Data<<<<<
154.91	-0
155.289	0.37
155.669	-0
156.048	-0.54
156.428	-0.32
156.807	0.45
157.186	-0
157.566	-0.23
157.945	0.49
158.325	-0
158.704	-0
159.083	-0.46
159.462	0.02
159.842	-0.28
160.221	0.41
160.6	-0.55
160.979	-0.66
161.359	0.04
161.738	-0.44
162.117	-0
162.496	-0.23
162.875	-0
163.254	0.22
163.633	-0
164.012	0.41
164.391	1.13
164.77	0.6
165.149	-0.04
165.528	0.51
165.907	-1.03
166.286	-0.08
166.665	-0.36
167.044	-0.94
167.423	-0
167.802	-0
168.181	0.65
168.559	-0
168.938	-0.68
169.317	-0.08
169.696	0.66
170.074	-0
170.453	-0
170.832	0.2
171.21	-0
171.589	-0.54
171.968	-0
172.346	0.08
172.725	0.37
173.103	0.02
173.482	0.34
173.861	0.1
174.239	-0
174.617	0.26
174.996	-0.53
175.374	-0
175.753	0.88
176.131	1.64
176.51	-0
176.888	-0
177.266	-0
177.645	-0.23
178.023	0.67
178.401	-0.29
178.779	-0.11
179.158	0.15
179.536	0.14
179.914	-0
180.292	-0
180.67	-0
181.048	-0
181.427	-0
181.805	-0.09
182.183	-0.12
182.561	-0
182.939	-0
183.317	-0.94
183.695	-0
184.073	-0.23
184.451	0.08
184.829	0.16
185.206	-0.08
185.584	0.01
185.962	-0.24
186.34	0.09
186.718	-0
187.096	0.16
187.473	-0
187.851	-0
188.229	0.12
188.607	0.23
188.984	0.05
189.362	0.19
189.74	0.15
190.117	0.21
190.495	0.23
190.872	0.13
191.25	0.17
191.627	0.13
192.005	0.11
192.382	0.26
192.76	0.03
193.137	0.15
193.515	0.1
193.892	0.25
194.269	0.22
194.647	0.15
195.024	0.38
195.401	0.14
195.779	0.16
196.156	0.12
196.533	0.17
196.91	0.24
197.288	0.23
197.665	0.2
198.042	0.14
198.419	0.22
198.796	0.17
199.173	0.26
199.55	0.16
199.927	0.28
200.304	0.16
200.681	0.31
201.058	0.12
201.435	0.24
201.812	0.32
202.189	0.19
202.566	0.16
202.943	0.21
203.32	0.17
203.697	0.24
204.073	0.19
204.45	0.16
204.827	0.29
205.204	0.2
205.58	0.21
205.957	0.14
206.334	0.22
206.71	0.15
207.087	0.14
207.464	0.07
207.84	0.16
208.217	0.15
208.593	0.23
208.97	0.14
209.346	0.22
209.723	0.13
210.099	0.2
210.476	0.27
210.852	0.18
211.228	0.11
211.605	0.21
211.981	0.15
212.357	0.27
212.733	0.18
213.11	0.21
213.486	0.23
213.862	0.3
214.238	0.2
214.614	0.17
214.991	0.21
215.367	0.07
215.743	0.24
216.119	0.14
216.495	0.18
216.871	0.14
217.247	0.24
217.623	0.14
217.999	0.26
218.375	0.21
218.751	0.18
219.127	0.32
219.502	0.14
219.878	0.07
220.254	0.26
220.63	0.21
221.006	0.15
221.381	0.35
221.757	0.2
222.133	0.24
222.508	0.25
222.884	0.12
223.26	0.18
223.635	0.18
224.011	0.16
224.386	0.25
224.762	0.24
225.137	0.2
225.513	0.26
225.888	0.33
226.264	0.18
226.639	0.26
227.014	0.2
227.39	0.14
227.765	0.28
228.14	0.12
228.516	0.27
228.891	0.29
229.266	0.17
229.641	0.2
230.017	0.21
230.392	0.23
230.767	0.29
231.142	0.2
231.517	0.16
231.892	0.19
232.267	0.23
232.642	0.18
233.017	0.22
233.392	0.34
233.767	0.22
234.142	0.17
234.517	0.24
234.892	0.26
235.267	0.24
235.641	0.19
236.016	0.13
236.391	0.12
236.766	0.18
237.14	0.21
237.515	0.2
237.89	0.13
238.264	0.23
238.639	0.24
239.014	0.15
239.388	0.14
239.763	0.21
240.137	0.17
240.512	0.22
240.886	0.16
241.261	0.13
241.635	0.17
242.009	0.17
242.384	0.22
242.758	0.22
243.132	0.27
243.507	0.24
243.881	0.16
244.255	0.22
244.629	0.22
245.004	0.18
245.378	0.31
245.752	0.24
246.126	0.28
246.5	0.26
246.874	0.3
247.248	0.07
247.622	0.15
247.996	0.24
248.37	0.2
248.744	0.13
249.118	0.11
249.492	0.17
249.866	0.22
250.24	0.21
250.613	0.29
250.987	0.3
251.361	0.24
251.735	0.2
252.108	0.18
252.482	0.22
252.856	0.24
253.229	0.23
253.603	0.13
253.977	0.27
254.35	0.12
254.724	0.14
255.097	0.15
255.471	0.26
255.844	0.24
256.218	0.17
256.591	0.16
256.964	0.2
257.338	0.18
257.711	0.23
258.084	0.19
258.458	0.21
258.831	0.26
259.204	0.18
259.577	0.07
259.95	0.22
260.323	0.22
260.697	0.21
261.07	0.25
261.443	0.24
261.816	0.23
262.189	0.23
262.562	0.22
262.935	0.22
263.308	0.11
263.68	0.23
264.053	0.29
264.426	0.24
264.799	0.16
265.172	0.25
265.545	0.24
265.917	0.26
266.29	0.3
266.663	0.2
267.035	0.31
267.408	0.17
267.781	0.22
268.153	0.26
268.526	0.26
268.898	0.21
269.271	0.26
269.643	0.24
270.016	0.23
270.388	0.26
270.76	0.23
271.133	0.22
271.505	0.3
271.877	0.26
272.25	0.26
272.622	0.22
272.994	0.22
273.366	0.27
273.739	0.23
274.111	0.31
274.483	0.27
274.855	0.29
275.227	0.26
275.599	0.33
275.971	0.24
276.343	0.24
276.715	0.23
277.087	0.33
277.459	0.29
277.831	0.21
278.203	0.34
278.574	0.23
278.946	0.26
279.318	0.25
279.69	0.19
280.061	0.28
280.433	0.22
280.805	0.26
281.176	0.24
281.548	0.31
281.92	0.19
282.291	0.2
282.663	0.27
283.034	0.22
283.406	0.21
283.777	0.3
284.148	0.27
284.52	0.18
284.891	0.17
285.262	0.2
285.634	0.21
286.005	0.23
286.376	0.2
286.747	0.18
287.119	0.25
287.49	0.21
287.861	0.19
288.232	0.22
288.603	0.2
288.974	0.27
289.345	0.2
289.716	0.22
290.087	0.3
290.458	0.2
290.829	0.3
291.2	0.22
291.571	0.29
291.941	0.18
292.312	0.21
292.683	0.19
293.054	0.31
293.424	0.28
293.795	0.29
294.166	0.36
294.536	0.27
294.907	0.27
295.277	0.23
295.648	0.23
296.018	0.22
296.389	0.2
296.759	0.26
297.13	0.25
297.5	0.27
297.871	0.28
298.241	0.23
298.611	0.27
298.981	0.25
299.352	0.35
299.722	0.25
300.092	0.19
300.462	0.3
300.832	0.24
301.202	0.24
301.573	0.2
301.943	0.25
302.313	0.23
302.683	0.23
303.053	0.23
303.422	0.21
303.792	0.22
304.162	0.25
304.532	0.24
304.902	0.22
305.272	0.24
305.641	0.26
306.011	0.24
306.381	0.24
306.75	0.22
307.12	0.24
307.49	0.25
307.859	0.25
308.229	0.26
308.598	0.25
308.968	0.26
309.337	0.26
309.707	0.26
310.076	0.27
310.445	0.27
310.815	0.28
311.184	0.28
311.553	0.28
311.923	0.28
312.292	0.28
312.661	0.28
313.03	0.28
313.399	0.28
313.768	0.29
314.137	0.3
314.506	0.29
314.875	0.28
315.244	0.29
315.613	0.28
315.982	0.28
316.351	0.28
316.72	0.28
317.089	0.27
317.458	0.28
317.826	0.27
318.195	0.27
318.564	0.27
318.933	0.27
319.301	0.27
319.67	0.27
320.038	0.26
320.407	0.26
320.775	0.26
321.144	0.26
321.512	0.26
321.881	0.25
322.249	0.26
322.618	0.26
322.986	0.26
323.354	0.25
323.723	0.25
324.091	0.23
324.459	0.24
324.827	0.24
325.195	0.24
325.564	0.24
325.932	0.24
326.3	0.24
326.668	0.24
327.036	0.24
327.404	0.24
327.772	0.24
328.14	0.23
328.508	0.23
328.875	0.25
329.243	0.24
329.611	0.24
329.979	0.24
330.346	0.24
330.714	0.25
331.082	0.25
331.449	0.25
331.817	0.25
332.185	0.25
332.552	0.25
332.92	0.26
333.287	0.26
333.655	0.26
334.022	0.27
334.389	0.27
334.757	0.27
335.124	0.28
335.491	0.28
335.859	0.28
336.226	0.28
336.593	0.29
336.96	0.28
337.327	0.29
337.695	0.3
338.062	0.3
338.429	0.3
338.796	0.31
339.163	0.31
339.53	0.31
339.897	0.32
340.263	0.32
340.63	0.33
340.997	0.34
341.364	0.35
341.731	0.35
342.097	0.36
342.464	0.36
342.831	0.37
343.197	0.37
343.564	0.38
343.931	0.39
344.297	0.39
344.664	0.4
345.03	0.4
345.396	0.41
345.763	0.41
346.129	0.42
346.496	0.43
346.862	0.43
347.228	0.44
347.594	0.44
347.961	0.45
348.327	0.46
348.693	0.47
349.059	0.47
349.425	0.48
349.791	0.49
350.157	0.5
350.523	0.5
350.889	0.52
351.255	0.52
351.621	0.54
351.987	0.54
352.353	0.55
352.719	0.57
353.084	0.58
353.45	0.59
353.816	0.6
354.181	0.61
354.547	0.62
354.913	0.62
355.278	0.64
355.644	0.65
356.009	0.67
356.375	0.68
356.74	0.69
357.106	0.7
357.471	0.72
357.836	0.74
358.202	0.74
358.567	0.76
358.932	0.78
359.297	0.78
359.663	0.8
360.028	0.81
360.393	0.83
360.758	0.84
361.123	0.84
361.488	0.85
361.853	0.86
362.218	0.88
362.583	0.88
362.948	0.89
363.312	0.9
363.677	0.91
364.042	0.92
364.407	0.94
364.772	0.95
365.136	0.96
365.501	0.98
365.865	1.01
366.23	1.02
366.595	1.04
366.959	1.06
367.324	1.09
367.688	1.09
368.052	1.1
368.417	1.12
368.781	1.13
369.145	1.14
369.51	1.16
369.874	1.16
370.238	1.16
370.602	1.15
370.967	1.16
371.331	1.15
371.695	1.15
372.059	1.13
372.423	1.14
372.787	1.13
373.151	1.12
373.515	1.13
373.878	1.13
374.242	1.12
374.606	1.12
374.97	1.12
375.334	1.11
375.697	1.12
376.061	1.13
376.425	1.15
376.788	1.14
377.152	1.15
377.515	1.15
377.879	1.16
378.242	1.17
378.606	1.2
378.969	1.19
379.333	1.2
379.696	1.22
380.059	1.24
380.422	1.25
380.786	1.27
381.149	1.29
381.512	1.31
381.875	1.35
382.238	1.35
382.601	1.38
382.964	1.39
383.327	1.44
383.69	1.47
384.053	1.53
384.416	1.54
384.779	1.57
385.142	1.59
385.504	1.61
385.867	1.64
386.23	1.64
386.593	1.65
386.955	1.68
387.318	1.67
387.68	1.67
388.043	1.63
388.405	1.63
388.768	1.65
389.13	1.61
389.493	1.64
389.855	1.61
390.217	1.6
390.58	1.61
390.942	1.62
391.304	1.61
391.666	1.61
392.028	1.62
392.391	1.68
392.753	1.71
393.115	1.73
393.477	1.8
393.839	1.78
394.201	1.88
394.563	1.93
394.924	1.94
395.286	2.01
395.648	1.99
396.01	2.01
396.371	2.03
396.733	2.02
397.095	2.03
397.456	2.03
397.818	2.04
398.18	2.02
398.541	2
398.903	1.97
399.264	1.97
399.625	1.97
399.987	1.92
400.348	1.9
400.709	1.9
401.071	1.79
401.432	1.71
401.793	1.62
402.154	1.56
402.515	1.45
402.876	1.38
403.238	1.29
403.599	1.23
403.96	1.13
404.32	1.06
404.681	0.99
405.042	0.91
405.403	0.86
405.764	0.8
406.125	0.74
406.485	0.69
406.846	0.65
407.207	0.61
407.567	0.57
407.928	0.54
408.288	0.51
408.649	0.49
409.009	0.46
409.37	0.43
409.73	0.41
410.091	0.39
410.451	0.37
410.811	0.37
411.171	0.34
411.532	0.34
411.892	0.31
412.252	0.3
412.612	0.29
412.972	0.28
413.332	0.27
413.692	0.26
414.052	0.25
414.412	0.24
414.772	0.24
415.132	0.22
415.492	0.21
415.851	0.21
416.211	0.21
416.571	0.2
416.931	0.2
417.29	0.19
417.65	0.19
418.009	0.18
418.369	0.18
418.728	0.18
419.088	0.17
419.447	0.17
419.807	0.16
420.166	0.16
420.525	0.16
420.884	0.16
421.244	0.15
421.603	0.15
421.962	0.15
422.321	0.14
422.68	0.15
423.039	0.15
423.398	0.14
423.757	0.14
424.116	0.14
424.475	0.13
424.834	0.13
425.193	0.14
425.551	0.13
425.91	0.13
426.269	0.13
426.628	0.12
426.986	0.13
427.345	0.13
427.703	0.12
428.062	0.12
428.42	0.12
428.779	0.12
429.137	0.12
429.496	0.11
429.854	0.11
430.212	0.11
430.57	0.11
430.929	0.11
431.287	0.1
431.645	0.11
432.003	0.1
432.361	0.11
432.719	0.1
433.077	0.1
433.435	0.1
433.793	0.1
434.151	0.11
434.509	0.1
434.866	0.1
435.224	0.1
435.582	0.09
435.94	0.09
436.297	0.1
436.655	0.09
437.012	0.1
437.37	0.09
437.727	0.09
438.085	0.09
438.442	0.09
438.8	0.09
439.157	0.09
439.514	0.09
439.872	0.1
440.229	0.09
440.586	0.08
440.943	0.09
441.3	0.08
441.657	0.08
442.014	0.08
442.371	0.08
442.728	0.08
443.085	0.08
443.442	0.08
443.799	0.09
444.156	0.08
444.513	0.08
444.869	0.08
445.226	0.08
445.583	0.08
445.939	0.07
446.296	0.07
446.652	0.07
447.009	0.08
447.365	0.07
447.722	0.07
448.078	0.07
448.434	0.06
448.791	0.07
449.147	0.07
449.503	0.07
449.859	0.07
450.215	0.07
450.571	0.06
450.928	0.07
451.284	0.07
451.64	0.06
451.995	0.06
452.351	0.06
452.707	0.06
453.063	0.06
453.419	0.05
453.775	0.06
454.13	0.06
454.486	0.06
454.842	0.05
455.197	0.05
455.553	0.05
455.908	0.05
456.264	0.05
456.619	0.04
456.975	0.04
457.33	0.04
457.685	0.04
458.04	0.04
458.396	0.04
458.751	0.04
459.106	0.03
459.461	0.03
459.816	0.03
460.171	0.03
460.526	0.03
460.881	0.01
461.236	0.02
461.591	0.02
461.946	0.01
462.301	0.01
462.655	0
463.01	0.01
463.365	0
463.719	0
464.074	0
464.428	-0.01
464.783	-0.01
465.137	-0
465.492	-0
465.846	-0.01
466.201	-0.01
466.555	-0.01
466.909	-0.01
467.263	-0
467.618	0
467.972	0
468.326	-0.01
468.68	-0.01
469.034	-0.01
469.388	-0.01
469.742	-0.01
470.096	-0
470.45	-0.01
470.804	-0.01
471.157	-0
471.511	-0
471.865	0.01
472.218	0.01
472.572	0.01
472.926	-0
473.279	0
473.633	0.01
473.986	0.02
474.34	0.02
474.693	0.02
475.046	0.03
475.4	0.03
475.753	0.04
476.106	0.04
476.459	0.04
476.812	0.05
477.165	0.06
477.519	0.06
477.872	0.06
478.224	0.06
478.577	0.06
478.93	0.07
479.283	0.07
479.636	0.07
479.989	0.07
480.341	0.08
480.694	0.08
481.047	0.08
481.399	0.08
481.752	0.09
482.104	0.09
482.457	0.1
482.809	0.1
483.162	0.1
483.514	0.11
483.866	0.11
484.219	0.11
484.571	0.11
484.923	0.11
485.275	0.11
485.627	0.12
485.979	0.12
486.331	0.12
486.683	0.13
487.035	0.13
487.387	0.12
487.739	0.13
488.091	0.13
488.443	0.13
488.794	0.14
489.146	0.13
489.498	0.14
489.849	0.14
490.201	0.14
490.552	0.15
490.904	0.15
491.255	0.14
491.607	0.15
491.958	0.15
492.309	0.15
492.661	0.16
493.012	0.16
493.363	0.16
493.714	0.16
494.065	0.16
494.416	0.16
494.767	0.17
495.118	0.17
495.469	0.17
495.82	0.17
496.171	0.18
496.522	0.18
496.872	0.18
497.223	0.18
497.574	0.18
497.924	0.19
498.275	0.19
498.626	0.19
498.976	0.2
499.327	0.2
499.677	0.2
500.027	0.2
500.378	0.2
500.728	0.2
501.078	0.2
501.428	0.21
501.779	0.21
502.129	0.21
502.479	0.21
502.829	0.22
503.179	0.21
503.529	0.22
503.879	0.22
504.229	0.23
504.578	0.23
504.928	0.23
505.278	0.23
505.628	0.23
505.977	0.24
506.327	0.24
506.676	0.25
507.026	0.24
507.375	0.25
507.725	0.25
508.074	0.26
508.424	0.26
508.773	0.26
509.122	0.26
509.471	0.26
509.82	0.26
510.17	0.27
510.519	0.27
510.868	0.28
511.217	0.27
511.566	0.28
511.915	0.28
512.263	0.28
512.612	0.29
512.961	0.29
513.31	0.29
513.659	0.29
514.007	0.29
514.356	0.29
514.704	0.3
515.053	0.3
515.401	0.31
515.75	0.3
516.098	0.31
516.447	0.31
516.795	0.31
517.143	0.32
517.491	0.32
517.839	0.32
518.188	0.32
518.536	0.33
518.884	0.33
519.232	0.33
519.58	0.33
519.928	0.34
520.275	0.34
520.623	0.34
520.971	0.35
521.319	0.35
521.666	0.35
522.014	0.35
522.362	0.35
522.709	0.35
523.057	0.36
523.404	0.36
523.752	0.36
524.099	0.36
524.446	0.37
524.794	0.37
525.141	0.37
525.488	0.37
525.835	0.38
526.182	0.38
526.529	0.38
526.876	0.39
527.223	0.38
527.57	0.38
527.917	0.39
528.264	0.39
528.611	0.39
528.958	0.4
529.304	0.4
529.651	0.41
529.998	0.41
530.344	0.41
530.691	0.41
531.037	0.41
531.384	0.42
531.73	0.42
532.076	0.43
532.423	0.43
532.769	0.43
533.115	0.43
533.461	0.44
533.807	0.44
534.154	0.44
534.5	0.44
534.846	0.45
535.192	0.45
535.537	0.45
535.883	0.46
536.229	0.46
536.575	0.46
536.921	0.46
537.266	0.47
537.612	0.47
537.957	0.47
538.303	0.48
538.649	0.48
538.994	0.49
539.339	0.49
539.685	0.5
540.03	0.5
540.375	0.5
540.721	0.5
541.066	0.51
541.411	0.51
541.756	0.51
542.101	0.52
542.446	0.52
542.791	0.52
543.136	0.53
543.481	0.53
543.825	0.53
544.17	0.54
544.515	0.54
544.86	0.54
545.204	0.55
545.549	0.55
545.893	0.55
546.238	0.56
546.582	0.56
546.927	0.57
547.271	0.57
547.615	0.57
547.96	0.58
548.304	0.58
548.648	0.58
548.992	0.58
549.336	0.59
549.68	0.59
550.024	0.6
550.368	0.6
550.712	0.6
551.056	0.6
551.4	0.6
551.743	0.61
552.087	0.61
552.431	0.61
552.774	0.61
553.118	0.62
553.462	0.62
553.805	0.62
554.148	0.62
554.492	0.63
554.835	0.63
555.178	0.63
555.522	0.63
555.865	0.63
556.208	0.64
556.551	0.64
556.894	0.64
557.237	0.64
557.58	0.65
557.923	0.65
558.266	0.65
558.609	0.65
558.952	0.65
559.294	0.65
559.637	0.65
559.98	0.66
560.322	0.66
560.665	0.66
561.007	0.66
561.35	0.66
561.692	0.66
562.034	0.66
562.377	0.66
562.719	0.67
563.061	0.67
563.403	0.67
563.745	0.67
564.088	0.67
564.43	0.68
564.772	0.68
565.113	0.68
565.455	0.68
565.797	0.68
566.139	0.68
566.481	0.68
566.822	0.69
567.164	0.69
567.506	0.69
567.847	0.69
568.189	0.69
568.53	0.69
568.872	0.69
569.213	0.69
569.554	0.69
569.895	0.69
570.237	0.69
570.578	0.69
570.919	0.69
571.26	0.69
571.601	0.69
571.942	0.69
572.283	0.7
572.624	0.69
572.965	0.69
573.306	0.69
573.646	0.69
573.987	0.69
574.328	0.69
574.668	0.7
575.009	0.69
575.349	0.69
575.69	0.69
576.03	0.69
576.37	0.69
576.711	0.68
577.051	0.69
577.391	0.69
577.731	0.7
578.072	0.69
578.412	0.7
578.752	0.7
579.092	0.7
579.431	0.68
579.771	0.66
580.111	0.64
580.451	0.65
580.791	0.68
581.13	0.7
581.47	0.7
581.81	0.7
582.149	0.7
582.489	0.71
582.828	0.7
583.167	0.67
583.507	0.64
583.846	0.62
584.185	0.63
584.525	0.66
584.864	0.69
585.203	0.71
585.542	0.72
585.881	0.73
586.22	0.73
586.559	0.72
586.898	0.71
587.236	0.7
587.575	0.69
587.914	0.7
588.252	0.72
588.591	0.74
588.93	0.74
589.268	0.74
589.607	0.74
589.945	0.74
590.283	0.75
590.622	0.75
590.96	0.76
591.298	0.76
591.636	0.77
591.974	0.77
592.313	0.77
592.651	0.78
592.989	0.79
593.326	0.79
593.664	0.79
594.002	0.8
594.34	0.79
594.678	0.8
595.015	0.79
595.353	0.78
595.691	0.79
596.028	0.8
596.366	0.8
596.703	0.81
597.04	0.82
597.378	0.82
597.715	0.83
598.052	0.83
598.389	0.83
598.726	0.84
599.064	0.84
599.401	0.83
599.738	0.84
600.074	0.84
600.411	0.84
600.748	0.84
601.085	0.83
601.422	0.83
601.758	0.83
602.095	0.83
602.432	0.83
602.768	0.84
603.105	0.84
603.441	0.85
603.777	0.85
604.114	0.84
604.45	0.85
604.786	0.85
605.122	0.85
605.459	0.84
605.795	0.84
606.131	0.84
606.467	0.84
606.803	0.85
607.139	0.84
607.474	0.84
607.81	0.84
608.146	0.84
608.482	0.84
608.817	0.84
609.153	0.83
609.488	0.83
609.824	0.83
610.159	0.83
610.495	0.83
610.83	0.83
611.165	0.83
611.5	0.82
611.836	0.82
612.171	0.82
612.506	0.82
612.841	0.82
613.176	0.81
613.511	0.82
613.845	0.81
614.18	0.81
614.515	0.81
614.85	0.81
615.184	0.8
615.519	0.8
615.854	0.8
616.188	0.8
616.523	0.79
616.857	0.79
617.191	0.79
617.526	0.78
617.86	0.78
618.194	0.78
618.528	0.78
618.862	0.78
619.196	0.78
619.53	0.77
619.864	0.77
620.198	0.77
620.532	0.77
620.866	0.77
621.2	0.76
621.533	0.76
621.867	0.76
622.201	0.76
622.534	0.75
622.868	0.75
623.201	0.76
623.534	0.75
623.868	0.74
624.201	0.74
624.534	0.74
624.868	0.74
625.201	0.73
625.534	0.73
625.867	0.73
626.2	0.72
626.533	0.72
626.865	0.72
627.198	0.71
627.531	0.71
627.864	0.7
628.196	0.7
628.529	0.7
628.862	0.7
629.194	0.69
629.527	0.69
629.859	0.69
630.191	0.68
630.524	0.68
630.856	0.67
631.188	0.67
631.52	0.67
631.852	0.66
632.184	0.66
632.516	0.66
632.848	0.65
633.18	0.65
633.512	0.64
633.844	0.64
634.175	0.63
634.507	0.63
634.839	0.62
635.17	0.62
635.502	0.61
635.833	0.6
636.165	0.6
636.496	0.59
636.827	0.59
637.159	0.59
637.49	0.58
637.821	0.57
638.152	0.57
638.483	0.57
638.814	0.57
639.145	0.56
639.476	0.56
639.807	0.55
640.137	0.55
640.468	0.54
640.799	0.54
641.129	0.53
641.46	0.53
641.791	0.52
642.121	0.52
642.451	0.52
642.782	0.52
643.112	0.51
643.442	0.51
643.773	0.51
644.103	0.5
644.433	0.5
644.763	0.5
645.093	0.49
645.423	0.49
645.753	0.49
646.082	0.48
646.412	0.48
646.742	0.48
647.072	0.48
647.401	0.48
647.731	0.48
648.06	0.47
648.39	0.47
648.719	0.47
649.048	0.47
649.378	0.47
649.707	0.46
650.036	0.46
650.365	0.46
650.694	0.46
651.023	0.45
651.352	0.45
651.681	0.45
652.01	0.45
652.339	0.45
652.668	0.45
652.996	0.45
653.325	0.45
653.654	0.45
653.982	0.45
654.311	0.45
654.639	0.45
654.967	0.45
655.296	0.45
655.624	0.45
655.952	0.45
656.28	0.44
656.609	0.45
656.937	0.44
657.265	0.44
657.593	0.38
657.92	0.24
658.248	0.18
658.576	0.16
658.904	0.24
659.231	0.33
659.559	0.41
659.887	0.44
660.214	0.44
660.542	0.44
660.869	0.44
661.196	0.44
661.524	0.44
661.851	0.44
662.178	0.44
662.505	0.44
662.832	0.44
663.159	0.44
663.486	0.44
663.813	0.44
664.14	0.44
664.467	0.43
664.794	0.43
665.12	0.43
665.447	0.43
665.774	0.43
666.1	0.42
666.427	0.42
666.753	0.42
667.079	0.42
667.406	0.42
667.732	0.42
668.058	0.41
668.384	0.42
668.71	0.42
669.036	0.41
669.362	0.41
669.688	0.41
670.014	0.41
670.34	0.41
670.666	0.41
670.991	0.41
671.317	0.41
671.643	0.41
671.968	0.41
672.294	0.4
672.619	0.4
672.945	0.4
673.27	0.4
673.595	0.39
673.92	0.39
674.246	0.38
674.571	0.38
674.896	0.38
675.221	0.38
675.546	0.38
675.87	0.38
676.195	0.37
676.52	0.37
676.845	0.37
677.169	0.36
677.494	0.36
677.819	0.35
678.143	0.35
678.468	0.35
678.792	0.35
679.116	0.35
679.44	0.35
679.765	0.34
680.089	0.34
680.413	0.33
680.737	0.33
681.061	0.33
681.385	0.32
681.709	0.32
682.033	0.32
682.356	0.31
682.68	0.31
683.004	0.31
683.327	0.31
683.651	0.3
683.974	0.3
684.298	0.3
684.621	0.3
684.944	0.29
685.268	0.29
685.591	0.29
685.914	0.28
686.237	0.28
686.56	0.27
686.883	0.27
687.206	0.26
687.529	0.26
687.852	0.25
688.175	0.25
688.497	0.25
688.82	0.25
689.142	0.25
689.465	0.25
689.787	0.24
690.11	0.24
690.432	0.24
690.755	0.24
691.077	0.24
691.399	0.23
691.721	0.23
692.043	0.22
692.365	0.22
692.687	0.22
693.009	0.21
693.331	0.21
693.653	0.21
693.974	0.21
694.296	0.2
694.618	0.2
694.939	0.2
695.261	0.19
695.582	0.19
695.904	0.19
696.225	0.2
696.546	0.2
696.868	0.19
697.189	0.19
697.51	0.19
697.831	0.18
698.152	0.18
698.473	0.18
698.794	0.17
699.114	0.16
699.435	0.15
699.756	0.15
700.077	0.15
700.397	0.16
700.718	0.16
701.038	0.16
701.359	0.16
701.679	0.16
701.999	0.16
702.32	0.16
702.64	0.16
702.96	0.16
703.28	0.16
703.6	0.16
703.92	0.15
704.24	0.15
704.56	0.14
704.879	0.14
705.199	0.14
705.519	0.14
705.838	0.14
706.158	0.14
706.478	0.14
706.797	0.14
707.116	0.14
707.436	0.14
707.755	0.14
708.074	0.14
708.393	0.13
708.712	0.13
709.031	0.11
709.35	0.11
709.669	0.11
709.988	0.11
710.307	0.11
710.626	0.11
710.944	0.12
711.263	0.12
711.582	0.13
711.9	0.13
712.219	0.12
712.537	0.13
712.855	0.13
713.174	0.12
713.492	0.12
713.81	0.13
714.128	0.12
714.446	0.13
714.764	0.12
715.082	0.12
715.4	0.12
715.718	0.12
716.035	0.12
716.353	0.12
716.671	0.12
716.988	0.12
717.306	0.12
717.623	0.13
717.941	0.13
718.258	0.13
718.575	0.14
718.893	0.14
719.21	0.13
719.527	0.14
719.844	0.14
720.161	0.14
720.478	0.14
720.795	0.14
721.112	0.14
721.428	0.14
721.745	0.14
722.062	0.14
722.378	0.15
722.695	0.15
723.011	0.14
723.328	0.14
723.644	0.15
723.96	0.15
724.276	0.15
724.593	0.15
724.909	0.15
725.225	0.15
725.541	0.15
725.857	0.15
726.173	0.15
726.488	0.16
726.804	0.15
727.12	0.15
727.435	0.15
727.751	0.15
728.067	0.15
728.382	0.15
728.697	0.15
729.013	0.15
729.328	0.15
729.643	0.15
729.958	0.15
730.273	0.15
730.588	0.15
730.903	0.15
731.218	0.15
731.533	0.15
731.848	0.15
732.163	0.15
732.477	0.15
732.792	0.15
733.107	0.13
733.421	0.14
733.736	0.14
734.05	0.15
734.364	0.15
734.678	0.15
734.993	0.15
735.307	0.15
735.621	0.15
735.935	0.15
736.249	0.14
736.563	0.14
736.877	0.15
737.19	0.15
737.504	0.15
737.818	0.15
738.131	0.15
738.445	0.15
738.758	0.15
739.072	0.15
739.385	0.15
739.698	0.14
740.012	0.14
740.325	0.14
740.638	0.14
740.951	0.14
741.264	0.14
741.577	0.14
741.89	0.14
742.203	0.15
742.515	0.14
742.828	0.14
743.141	0.14
743.453	0.14
743.766	0.14
744.078	0.14
744.391	0.14
744.703	0.13
745.015	0.13
745.327	0.13
745.639	0.13
745.952	0.12
746.264	0.13
746.575	0.13
746.887	0.13
747.199	0.13
747.511	0.13
747.823	0.13
748.134	0.12
748.446	0.12
748.757	0.12
749.069	0.12
749.38	0.12
749.692	0.12
750.003	0.11
750.314	0.11
750.625	0.11
750.936	0.11
751.248	0.1
751.559	0.1
751.869	0.1
752.18	0.1
752.491	0.09
752.802	0.09
753.112	0.1
753.423	0.1
753.734	0.1
754.044	0.1
754.355	0.1
754.665	0.09
754.975	0.09
755.285	0.09
755.596	0.09
755.906	0.08
756.216	0.08
756.526	0.08
756.836	0.08
757.146	0.08
757.455	0.08
757.765	0.08
758.075	0.07
758.385	0.08
758.694	0.07
759.004	0.07
759.313	0.07
759.622	0.07
759.932	0.07
760.241	0.07
760.55	0.07
760.859	0.06
761.168	0.06
761.477	0.06
761.786	0.06
762.095	0.05
762.404	0.06
762.713	0.06
763.021	0.06
763.33	0.05
763.639	0.05
763.947	0.05
764.256	0.05
764.564	0.05
764.872	0.05
765.181	0.05
765.489	0.05
765.797	0.05
766.105	0.05
766.413	0.05
766.721	0.04
767.029	0.05
767.337	0.04
767.644	0.04
767.952	0.04
768.26	0.05
768.567	0.05
768.875	0.05
769.182	0.05
769.49	0.05
769.797	0.05
770.104	0.05
770.411	0.05
770.718	0.05
771.026	0.05
771.333	0.05
771.639	0.05
771.946	0.05
772.253	0.05
772.56	0.04
772.867	0.05
773.173	0.04
773.48	0.04
773.786	0.04
774.093	0.04
774.399	0.04
774.705	0.04
775.012	0.04
775.318	0.04
775.624	0.03
775.93	0.03
776.236	0.03
776.542	0.03
776.848	0.03
777.154	0.03
777.459	0.04
777.765	0.04
778.071	0.04
778.376	0.04
778.682	0.04
778.987	0.04
779.292	0.04
779.598	0.04
779.903	0.04
780.208	0.04
780.513	0.04
780.818	0.04
781.123	0.04
781.428	0.04
781.733	0.04
782.038	0.04
782.343	0.04
782.647	0.04
782.952	0.04
783.256	0.04
783.561	0.04
783.865	0.04
784.17	0.04
784.474	0.04
784.778	0.04
785.082	0.04
785.386	0.03
785.69	0.04
785.994	0.04
786.298	0.04
786.602	0.04
786.906	0.04
787.209	0.04
787.513	0.04
787.817	0.04
788.12	0.04
788.424	0.04
788.727	0.04
789.03	0.04
789.333	0.04
789.637	0.04
789.94	0.04
790.243	0.04
790.546	0.04
790.849	0.04
791.152	0.04
791.454	0.04
791.757	0.04
792.06	0.04
792.362	0.04
792.665	0.04
792.967	0.04
793.27	0.04
793.572	0.04
793.874	0.04
794.177	0.04
794.479	0.04
794.781	0.04
795.083	0.04
795.385	0.04
795.687	0.03
795.989	0.04
796.29	0.04
796.592	0.04
796.894	0.04
797.195	0.05
797.497	0.05
797.798	0.04
798.1	0.04
798.401	0.04
798.702	0.05
799.003	0.04
799.304	0.05
799.605	0.05
799.906	0.05
800.207	0.04
800.508	0.04
800.809	0.04
801.11	0.04
801.41	0.04
801.711	0.04
802.011	0.04
802.312	0.04
802.612	0.03
802.913	0.03
803.213	0.04
803.513	0.03
803.813	0.04
804.113	0.04
804.413	0.04
804.713	0.04
805.013	0.04
805.313	0.04
805.613	0.04
805.912	0.04
806.212	0.04
806.511	0.04
806.811	0.04
807.11	0.04
807.41	0.04
807.709	0.04
808.008	0.04
808.307	0.05
808.606	0.05
808.905	0.05
809.204	0.05
809.503	0.05
809.802	0.04
810.101	0.04
810.399	0.04
810.698	0.04
810.997	0.05
811.295	0.05
811.593	0.05
811.892	0.04
812.19	0.04
812.488	0.05
812.786	0.05
813.084	0.05
813.383	0.05
813.68	0.05
813.978	0.06
814.276	0.06
814.574	0.05
814.872	0.05
815.169	0.05
815.467	0.05
815.764	0.05
816.062	0.05
816.359	0.05
816.656	0.05
816.954	0.05
817.251	0.05
817.548	0.06
817.845	0.06
818.142	0.06
818.439	0.06
818.735	0.06
819.032	0.05
819.329	0.05
819.626	0.05
819.922	0.05
820.219	0.05
820.515	0.05
820.811	0.06
821.108	0.05
821.404	0.05
821.7	0.05
821.996	0.05
822.292	0.05
822.588	0.05
822.884	0.06
823.18	0.06
823.475	0.05
823.771	0.05
824.067	0.06
824.362	0.05
824.658	0.06
824.953	0.06
825.249	0.05
825.544	0.05
825.839	0.05
826.134	0.06
826.429	0.06
826.724	0.06
827.019	0.06
827.314	0.06
827.609	0.05
827.904	0.05
828.198	0.05
828.493	0.05
828.787	0.05
829.082	0.05
829.376	0.05
829.671	0.05
829.965	0.06
830.259	0.05
830.553	0.06
830.847	0.06
831.141	0.06
831.435	0.06
831.729	0.06
832.023	0.06
832.317	0.07
832.61	0.07
832.904	0.07
833.197	0.06
833.491	0.06
833.784	0.07
834.077	0.07
834.371	0.07
834.664	0.05
834.957	0.07
835.25	0.07
835.543	0.07
835.836	0.06
836.129	0.06
836.421	0.06
836.714	0.06
837.007	0.06
837.299	0.06
837.592	0.06
837.884	0.06
838.177	0.06
838.469	0.05
838.761	0.06
839.053	0.06
839.345	0.06
839.637	0.06
839.929	0.06
840.221	0.07
840.513	0.07
840.805	0.07
841.096	0.07
841.388	0.08
841.68	0.07
841.971	0.07
842.262	0.07
842.554	0.07
842.845	0.08
843.136	0.08
843.427	0.08
843.718	0.07
844.009	0.06
844.3	0.07
844.591	0.06
844.882	0.07
845.173	0.07
845.463	0.07
845.754	0.06
846.044	0.06
846.335	0.07
846.625	0.07
846.915	0.07
847.206	0.06
847.496	0.08
847.786	0.07
848.076	0.07
848.366	0.07
848.656	0.07
848.945	0.07
849.235	0.07
849.525	0.07
849.814	0.06
850.104	0.06
850.393	0.06
850.683	0.07
850.972	0.06
851.261	0.06
851.551	0.07
851.84	0.07
852.129	0.06
852.418	0.06
852.707	0.07
852.995	0.06
853.284	0.07
853.573	0.07
853.862	0.06
854.15	0.08
854.439	0.08
854.727	0.07
855.015	0.06
855.304	0.07
855.592	0.06
855.88	0.05
856.168	0.06
856.456	0.07
856.744	0.07
857.032	0.07
857.32	0.06
857.607	0.08
857.895	0.05
858.183	0.07
858.47	0.07
858.757	0.07
859.045	0.07
859.332	0.06
859.619	0.05
859.907	0.07
860.194	0.06
860.481	0.07
860.768	0.07
861.054	0.08
861.341	0.08
861.628	0.06
861.915	0.07
862.201	0.07
862.488	0.07
862.774	0.06
863.061	0.07
863.347	0.05
863.633	0.07
863.919	0.05
864.205	0.05
864.491	0.05
864.777	0.07
865.063	0.05
865.349	0.07
865.635	0.06
865.92	0.06
866.206	0.05
866.492	0.04
866.777	0.05
867.062	0.07
867.348	0.09
867.633	0.06
867.918	0.04
868.203	0.05
868.488	0.06
868.773	0.04
869.058	0.06
869.343	0.04
869.628	0.07
869.912	0.03
870.197	0.04
870.482	0.05
870.766	0.03
871.05	0.04
871.335	0.06
871.619	0.05
871.903	0.04
872.187	0.06
872.471	0.06
872.755	0.02
873.039	0.03
873.323	0.03
873.607	0.02
873.89	0.05
874.174	-0
874.458	0.03
874.741	-0
875.024	0.06
875.308	0.01
875.591	-0
875.874	0.04
876.157	-0.02
876.44	-0.04
876.723	-0
877.006	0.03
877.289	-0.01
877.572	0.04
877.854	-0.01
878.137	0.02
878.42	0.02
878.702	0.01
878.984	0.04
879.267	-0.04
879.549	0.05
879.831	0.05
880.113	0.03
880.395	0.07
880.677	0.02
880.959	-0.03
