Data from Rubpy_EV_1800_EDTA_Buffered_Absorbance_15-40-02-598.txt Node
Date: Tue Jun 30 15:40:02 BST 2026
User: fpm-admin
Spectrometer: OFX00224
Trigger mode: 0
Integration Time (sec): 7.000000E-2
Scans to average: 3
Nonlinearity correction enabled: false
Boxcar width: 0
Storing dark spectrum: false
XAxis mode: Wavelengths
Number of Pixels in Spectrum: 2136
>>>>>Begin Spectral Data<<<<<
154.91	0.56
155.289	-0
155.669	1.2
156.048	-0
156.428	-0
156.807	-0.06
157.186	-0
157.566	-0
157.945	0.04
158.325	-0
158.704	-0.68
159.083	-0.53
159.462	0.1
159.842	-0.36
160.221	0.37
160.6	-0.43
160.979	-0.39
161.359	0.04
161.738	-0.23
162.117	-0.38
162.496	-0.01
162.875	-0.27
163.254	-0.2
163.633	-0
164.012	-0.11
164.391	0.16
164.77	1.08
165.149	-0.18
165.528	1.2
165.907	-1.19
166.286	0.17
166.665	-0.39
167.044	-1.22
167.423	-0
167.802	0.41
168.181	-0.06
168.559	-0
168.938	-0.27
169.317	0.1
169.696	0.36
170.074	-0
170.453	-0
170.832	-0.04
171.21	-0
171.589	-0
171.968	-0
172.346	0.18
172.725	-0.19
173.103	-0.4
173.482	-0.04
173.861	0.28
174.239	0.18
174.617	0.68
174.996	-0.54
175.374	-0
175.753	-0.29
176.131	0.2
176.51	1.49
176.888	-0
177.266	-0
177.645	-0.12
178.023	0.76
178.401	-0.35
178.779	-0.09
179.158	0.1
179.536	0.44
179.914	0.44
180.292	0.26
180.67	-0.15
181.048	-0
181.427	0.14
181.805	-0.23
182.183	0.4
182.561	-0
182.939	-0
183.317	-0.4
183.695	0.12
184.073	0.32
184.451	1.16
184.829	-0.19
185.206	0.22
185.584	-0.11
185.962	-0.42
186.34	-0.05
186.718	-0.3
187.096	0.24
187.473	-0
187.851	-0
188.229	0.02
188.607	0.14
188.984	0.16
189.362	0.15
189.74	0.21
190.117	0.25
190.495	0.19
190.872	0.1
191.25	0.13
191.627	0.15
192.005	-0
192.382	0.16
192.76	0.21
193.137	0.11
193.515	0.1
193.892	0.18
194.269	0.16
194.647	0.12
195.024	0.24
195.401	0.16
195.779	0.1
196.156	0.05
196.533	0.16
196.91	0.28
197.288	0.16
197.665	0.23
198.042	0.28
198.419	0.24
198.796	0.13
199.173	0.22
199.55	0.15
199.927	0.17
200.304	0.2
200.681	0.18
201.058	0.16
201.435	0.25
201.812	0.29
202.189	0.13
202.566	0.1
202.943	0.16
203.32	0.19
203.697	0.17
204.073	0.28
204.45	0.17
204.827	0.21
205.204	0.17
205.58	0.08
205.957	0.15
206.334	0.16
206.71	0.13
207.087	0.11
207.464	0.11
207.84	0.22
208.217	0.1
208.593	0.18
208.97	0.1
209.346	0.16
209.723	0.03
210.099	0.09
210.476	0.24
210.852	0.3
211.228	0.05
211.605	0.1
211.981	0.16
212.357	0.23
212.733	0.2
213.11	0.21
213.486	0.17
213.862	0.32
214.238	0.18
214.614	0.12
214.991	0.13
215.367	0.16
215.743	0.17
216.119	0.07
216.495	0.19
216.871	0.22
217.247	0.24
217.623	0.15
217.999	0.21
218.375	0.15
218.751	0.1
219.127	0.21
219.502	0.13
219.878	0.15
220.254	0.27
220.63	0.18
221.006	0.18
221.381	0.21
221.757	0.2
222.133	0.33
222.508	0.23
222.884	0.22
223.26	0.17
223.635	0.13
224.011	0.17
224.386	0.2
224.762	0.15
225.137	0.19
225.513	0.27
225.888	0.23
226.264	0.14
226.639	0.2
227.014	0.21
227.39	0.19
227.765	0.18
228.14	0.18
228.516	0.14
228.891	0.39
229.266	0.17
229.641	0.18
230.017	0.13
230.392	0.34
230.767	0.25
231.142	0.14
231.517	0.15
231.892	0.23
232.267	0.2
232.642	0.13
233.017	0.19
233.392	0.25
233.767	0.2
234.142	0.23
234.517	0.28
234.892	0.2
235.267	0.24
235.641	0.15
236.016	0.13
236.391	0.15
236.766	0.18
237.14	0.2
237.515	0.15
237.89	0.2
238.264	0.14
238.639	0.18
239.014	0.2
239.388	0.22
239.763	0.18
240.137	0.18
240.512	0.18
240.886	0.2
241.261	0.23
241.635	0.26
242.009	0.21
242.384	0.26
242.758	0.26
243.132	0.27
243.507	0.1
243.881	0.15
244.255	0.22
244.629	0.24
245.004	0.21
245.378	0.21
245.752	0.28
246.126	0.3
246.5	0.21
246.874	0.29
247.248	0.19
247.622	0.12
247.996	0.24
248.37	0.25
248.744	0.22
249.118	0.16
249.492	0.13
249.866	0.19
250.24	0.26
250.613	0.2
250.987	0.18
251.361	0.23
251.735	0.18
252.108	0.26
252.482	0.22
252.856	0.16
253.229	0.28
253.603	0.19
253.977	0.18
254.35	0.18
254.724	0.12
255.097	0.15
255.471	0.15
255.844	0.22
256.218	0.29
256.591	0.25
256.964	0.23
257.338	0.21
257.711	0.23
258.084	0.13
258.458	0.2
258.831	0.23
259.204	0.19
259.577	0.2
259.95	0.23
260.323	0.13
260.697	0.22
261.07	0.22
261.443	0.28
261.816	0.23
262.189	0.16
262.562	0.25
262.935	0.22
263.308	0.21
263.68	0.2
264.053	0.19
264.426	0.2
264.799	0.17
265.172	0.21
265.545	0.21
265.917	0.25
266.29	0.24
266.663	0.25
267.035	0.26
267.408	0.21
267.781	0.24
268.153	0.25
268.526	0.3
268.898	0.19
269.271	0.19
269.643	0.2
270.016	0.24
270.388	0.19
270.76	0.22
271.133	0.22
271.505	0.28
271.877	0.27
272.25	0.23
272.622	0.18
272.994	0.19
273.366	0.28
273.739	0.18
274.111	0.19
274.483	0.19
274.855	0.19
275.227	0.26
275.599	0.3
275.971	0.27
276.343	0.25
276.715	0.2
277.087	0.25
277.459	0.14
277.831	0.25
278.203	0.22
278.574	0.19
278.946	0.28
279.318	0.18
279.69	0.14
280.061	0.21
280.433	0.22
280.805	0.24
281.176	0.16
281.548	0.18
281.92	0.25
282.291	0.22
282.663	0.19
283.034	0.25
283.406	0.28
283.777	0.23
284.148	0.31
284.52	0.24
284.891	0.21
285.262	0.23
285.634	0.2
286.005	0.25
286.376	0.23
286.747	0.23
287.119	0.25
287.49	0.24
287.861	0.14
288.232	0.19
288.603	0.12
288.974	0.24
289.345	0.17
289.716	0.27
290.087	0.17
290.458	0.2
290.829	0.32
291.2	0.14
291.571	0.27
291.941	0.21
292.312	0.19
292.683	0.21
293.054	0.21
293.424	0.23
293.795	0.28
294.166	0.29
294.536	0.26
294.907	0.2
295.277	0.25
295.648	0.18
296.018	0.19
296.389	0.24
296.759	0.24
297.13	0.18
297.5	0.25
297.871	0.24
298.241	0.23
298.611	0.17
298.981	0.2
299.352	0.24
299.722	0.2
300.092	0.19
300.462	0.25
300.832	0.26
301.202	0.17
301.573	0.17
301.943	0.21
302.313	0.17
302.683	0.19
303.053	0.22
303.422	0.2
303.792	0.18
304.162	0.21
304.532	0.19
304.902	0.18
305.272	0.19
305.641	0.22
306.011	0.2
306.381	0.22
306.75	0.2
307.12	0.2
307.49	0.22
307.859	0.21
308.229	0.21
308.598	0.22
308.968	0.22
309.337	0.22
309.707	0.23
310.076	0.23
310.445	0.23
310.815	0.24
311.184	0.23
311.553	0.24
311.923	0.24
312.292	0.25
312.661	0.24
313.03	0.25
313.399	0.24
313.768	0.25
314.137	0.25
314.506	0.25
314.875	0.24
315.244	0.24
315.613	0.24
315.982	0.24
316.351	0.23
316.72	0.24
317.089	0.24
317.458	0.23
317.826	0.24
318.195	0.24
318.564	0.23
318.933	0.22
319.301	0.23
319.67	0.23
320.038	0.22
320.407	0.22
320.775	0.22
321.144	0.22
321.512	0.22
321.881	0.22
322.249	0.22
322.618	0.21
322.986	0.21
323.354	0.21
323.723	0.21
324.091	0.2
324.459	0.21
324.827	0.2
325.195	0.2
325.564	0.2
325.932	0.19
326.3	0.2
326.668	0.21
327.036	0.2
327.404	0.2
327.772	0.2
328.14	0.2
328.508	0.2
328.875	0.21
329.243	0.2
329.611	0.2
329.979	0.2
330.346	0.2
330.714	0.2
331.082	0.21
331.449	0.21
331.817	0.21
332.185	0.21
332.552	0.21
332.92	0.22
333.287	0.22
333.655	0.22
334.022	0.22
334.389	0.22
334.757	0.23
335.124	0.23
335.491	0.23
335.859	0.23
336.226	0.24
336.593	0.24
336.96	0.24
337.327	0.24
337.695	0.25
338.062	0.25
338.429	0.25
338.796	0.26
339.163	0.26
339.53	0.26
339.897	0.27
340.263	0.27
340.63	0.27
340.997	0.28
341.364	0.28
341.731	0.29
342.097	0.3
342.464	0.3
342.831	0.3
343.197	0.31
343.564	0.32
343.931	0.32
344.297	0.33
344.664	0.33
345.03	0.33
345.396	0.34
345.763	0.35
346.129	0.35
346.496	0.35
346.862	0.36
347.228	0.36
347.594	0.37
347.961	0.38
348.327	0.38
348.693	0.39
349.059	0.39
349.425	0.4
349.791	0.41
350.157	0.42
350.523	0.42
350.889	0.43
351.255	0.43
351.621	0.45
351.987	0.45
352.353	0.46
352.719	0.47
353.084	0.48
353.45	0.48
353.816	0.5
354.181	0.51
354.547	0.51
354.913	0.53
355.278	0.53
355.644	0.54
356.009	0.56
356.375	0.56
356.74	0.58
357.106	0.59
357.471	0.6
357.836	0.62
358.202	0.63
358.567	0.64
358.932	0.65
359.297	0.66
359.663	0.67
360.028	0.68
360.393	0.69
360.758	0.7
361.123	0.7
361.488	0.71
361.853	0.72
362.218	0.72
362.583	0.74
362.948	0.75
363.312	0.76
363.677	0.77
364.042	0.78
364.407	0.78
364.772	0.8
365.136	0.82
365.501	0.84
365.865	0.85
366.23	0.86
366.595	0.88
366.959	0.9
367.324	0.9
367.688	0.92
368.052	0.94
368.417	0.95
368.781	0.96
369.145	0.98
369.51	0.98
369.874	0.98
370.238	0.99
370.602	0.99
370.967	0.97
371.331	0.98
371.695	0.97
372.059	0.97
372.423	0.97
372.787	0.96
373.151	0.95
373.515	0.95
373.878	0.95
374.242	0.94
374.606	0.96
374.97	0.95
375.334	0.96
375.697	0.96
376.061	0.95
376.425	0.97
376.788	0.97
377.152	0.97
377.515	0.99
377.879	0.98
378.242	1
378.606	1
378.969	1.03
379.333	1.03
379.696	1.04
380.059	1.04
380.422	1.08
380.786	1.08
381.149	1.11
381.512	1.13
381.875	1.14
382.238	1.16
382.601	1.21
382.964	1.23
383.327	1.26
383.69	1.29
384.053	1.31
384.416	1.34
384.779	1.37
385.142	1.4
385.504	1.41
385.867	1.43
386.23	1.43
386.593	1.45
386.955	1.47
387.318	1.47
387.68	1.45
388.043	1.45
388.405	1.46
388.768	1.41
389.13	1.41
389.493	1.41
389.855	1.4
390.217	1.4
390.58	1.39
390.942	1.4
391.304	1.41
391.666	1.42
392.028	1.44
392.391	1.47
392.753	1.5
393.115	1.52
393.477	1.57
393.839	1.63
394.201	1.68
394.563	1.73
394.924	1.78
395.286	1.82
395.648	1.85
396.01	1.91
396.371	1.87
396.733	1.91
397.095	1.92
397.456	1.92
397.818	1.91
398.18	1.9
398.541	1.88
398.903	1.86
399.264	1.86
399.625	1.83
399.987	1.8
400.348	1.73
400.709	1.68
401.071	1.62
401.432	1.51
401.793	1.46
402.154	1.36
402.515	1.29
402.876	1.21
403.238	1.12
403.599	1.06
403.96	0.98
404.32	0.9
404.681	0.84
405.042	0.79
405.403	0.73
405.764	0.69
406.125	0.63
406.485	0.6
406.846	0.56
407.207	0.52
407.567	0.49
407.928	0.47
408.288	0.44
408.649	0.41
409.009	0.39
409.37	0.37
409.73	0.35
410.091	0.33
410.451	0.32
410.811	0.31
411.171	0.3
411.532	0.28
411.892	0.27
412.252	0.26
412.612	0.25
412.972	0.24
413.332	0.23
413.692	0.22
414.052	0.21
414.412	0.21
414.772	0.2
415.132	0.19
415.492	0.19
415.851	0.19
416.211	0.17
416.571	0.18
416.931	0.16
417.29	0.16
417.65	0.16
418.009	0.16
418.369	0.15
418.728	0.15
419.088	0.15
419.447	0.15
419.807	0.13
420.166	0.14
420.525	0.14
420.884	0.13
421.244	0.13
421.603	0.13
421.962	0.13
422.321	0.12
422.68	0.12
423.039	0.12
423.398	0.12
423.757	0.12
424.116	0.11
424.475	0.11
424.834	0.11
425.193	0.11
425.551	0.11
425.91	0.11
426.269	0.11
426.628	0.1
426.986	0.11
427.345	0.11
427.703	0.1
428.062	0.1
428.42	0.1
428.779	0.1
429.137	0.1
429.496	0.09
429.854	0.09
430.212	0.09
430.57	0.1
430.929	0.08
431.287	0.09
431.645	0.09
432.003	0.08
432.361	0.09
432.719	0.09
433.077	0.09
433.435	0.09
433.793	0.09
434.151	0.09
434.509	0.08
434.866	0.08
435.224	0.08
435.582	0.08
435.94	0.08
436.297	0.08
436.655	0.08
437.012	0.09
437.37	0.08
437.727	0.08
438.085	0.07
438.442	0.08
438.8	0.07
439.157	0.08
439.514	0.08
439.872	0.07
440.229	0.08
440.586	0.07
440.943	0.08
441.3	0.07
441.657	0.07
442.014	0.07
442.371	0.07
442.728	0.07
443.085	0.06
443.442	0.07
443.799	0.06
444.156	0.07
444.513	0.07
444.869	0.06
445.226	0.06
445.583	0.06
445.939	0.06
446.296	0.06
446.652	0.06
447.009	0.06
447.365	0.06
447.722	0.06
448.078	0.06
448.434	0.05
448.791	0.05
449.147	0.05
449.503	0.06
449.859	0.06
450.215	0.06
450.571	0.05
450.928	0.05
451.284	0.05
451.64	0.05
451.995	0.04
452.351	0.05
452.707	0.05
453.063	0.05
453.419	0.04
453.775	0.04
454.13	0.04
454.486	0.05
454.842	0.04
455.197	0.04
455.553	0.03
455.908	0.04
456.264	0.03
456.619	0.03
456.975	0.03
457.33	0.03
457.685	0.03
458.04	0.02
458.396	0.03
458.751	0.03
459.106	0.01
459.461	0.02
459.816	0.02
460.171	0.02
460.526	0.02
460.881	0
461.236	0.01
461.591	0.01
461.946	0
462.301	-0
462.655	-0.01
463.01	0
463.365	-0.01
463.719	-0.01
464.074	-0.01
464.428	-0.01
464.783	-0.02
465.137	-0.01
465.492	-0.02
465.846	-0.02
466.201	-0.02
466.555	-0.02
466.909	-0.02
467.263	-0.02
467.618	-0.01
467.972	-0.01
468.326	-0.01
468.68	-0.02
469.034	-0.02
469.388	-0.02
469.742	-0.02
470.096	-0.02
470.45	-0.02
470.804	-0.02
471.157	-0.02
471.511	-0.02
471.865	-0.01
472.218	-0.01
472.572	-0.01
472.926	-0.01
473.279	-0
473.633	-0
473.986	0
474.34	0.01
474.693	0.01
475.046	0.02
475.4	0.02
475.753	0.02
476.106	0.02
476.459	0.03
476.812	0.03
477.165	0.04
477.519	0.04
477.872	0.04
478.224	0.04
478.577	0.04
478.93	0.05
479.283	0.05
479.636	0.05
479.989	0.06
480.341	0.06
480.694	0.06
481.047	0.06
481.399	0.07
481.752	0.07
482.104	0.07
482.457	0.07
482.809	0.08
483.162	0.08
483.514	0.09
483.866	0.09
484.219	0.09
484.571	0.09
484.923	0.09
485.275	0.09
485.627	0.1
485.979	0.09
486.331	0.1
486.683	0.1
487.035	0.1
487.387	0.1
487.739	0.1
488.091	0.1
488.443	0.11
488.794	0.11
489.146	0.11
489.498	0.11
489.849	0.11
490.201	0.11
490.552	0.11
490.904	0.12
491.255	0.12
491.607	0.12
491.958	0.12
492.309	0.12
492.661	0.13
493.012	0.13
493.363	0.13
493.714	0.13
494.065	0.13
494.416	0.13
494.767	0.14
495.118	0.14
495.469	0.14
495.82	0.14
496.171	0.14
496.522	0.14
496.872	0.15
497.223	0.15
497.574	0.15
497.924	0.16
498.275	0.15
498.626	0.16
498.976	0.16
499.327	0.16
499.677	0.16
500.027	0.16
500.378	0.17
500.728	0.17
501.078	0.17
501.428	0.17
501.779	0.18
502.129	0.17
502.479	0.18
502.829	0.18
503.179	0.18
503.529	0.18
503.879	0.18
504.229	0.19
504.578	0.18
504.928	0.19
505.278	0.19
505.628	0.2
505.977	0.19
506.327	0.2
506.676	0.2
507.026	0.2
507.375	0.21
507.725	0.21
508.074	0.21
508.424	0.21
508.773	0.21
509.122	0.22
509.471	0.22
509.82	0.22
510.17	0.23
510.519	0.22
510.868	0.23
511.217	0.23
511.566	0.23
511.915	0.23
512.263	0.23
512.612	0.24
512.961	0.24
513.31	0.24
513.659	0.24
514.007	0.24
514.356	0.24
514.704	0.24
515.053	0.24
515.401	0.25
515.75	0.25
516.098	0.26
516.447	0.26
516.795	0.26
517.143	0.26
517.491	0.26
517.839	0.27
518.188	0.27
518.536	0.27
518.884	0.27
519.232	0.28
519.58	0.28
519.928	0.28
520.275	0.28
520.623	0.28
520.971	0.28
521.319	0.29
521.666	0.29
522.014	0.29
522.362	0.29
522.709	0.3
523.057	0.3
523.404	0.3
523.752	0.3
524.099	0.31
524.446	0.31
524.794	0.31
525.141	0.31
525.488	0.31
525.835	0.31
526.182	0.32
526.529	0.32
526.876	0.32
527.223	0.32
527.57	0.32
527.917	0.33
528.264	0.33
528.611	0.33
528.958	0.33
529.304	0.34
529.651	0.34
529.998	0.34
530.344	0.34
530.691	0.34
531.037	0.35
531.384	0.35
531.73	0.35
532.076	0.36
532.423	0.35
532.769	0.36
533.115	0.36
533.461	0.37
533.807	0.37
534.154	0.37
534.5	0.37
534.846	0.38
535.192	0.38
535.537	0.38
535.883	0.38
536.229	0.39
536.575	0.38
536.921	0.39
537.266	0.39
537.612	0.39
537.957	0.4
538.303	0.4
538.649	0.41
538.994	0.4
539.339	0.41
539.685	0.41
540.03	0.42
540.375	0.42
540.721	0.43
541.066	0.42
541.411	0.43
541.756	0.43
542.101	0.44
542.446	0.43
542.791	0.44
543.136	0.45
543.481	0.45
543.825	0.45
544.17	0.45
544.515	0.45
544.86	0.46
545.204	0.46
545.549	0.46
545.893	0.47
546.238	0.47
546.582	0.47
546.927	0.47
547.271	0.48
547.615	0.48
547.96	0.49
548.304	0.49
548.648	0.49
548.992	0.49
549.336	0.49
549.68	0.49
550.024	0.5
550.368	0.5
550.712	0.5
551.056	0.51
551.4	0.5
551.743	0.51
552.087	0.51
552.431	0.52
552.774	0.52
553.118	0.52
553.462	0.52
553.805	0.52
554.148	0.52
554.492	0.53
554.835	0.53
555.178	0.54
555.522	0.54
555.865	0.54
556.208	0.54
556.551	0.54
556.894	0.55
557.237	0.54
557.58	0.54
557.923	0.54
558.266	0.55
558.609	0.55
558.952	0.55
559.294	0.55
559.637	0.55
559.98	0.56
560.322	0.56
560.665	0.56
561.007	0.55
561.35	0.56
561.692	0.56
562.034	0.56
562.377	0.56
562.719	0.56
563.061	0.56
563.403	0.56
563.745	0.56
564.088	0.57
564.43	0.57
564.772	0.57
565.113	0.57
565.455	0.58
565.797	0.58
566.139	0.57
566.481	0.58
566.822	0.58
567.164	0.58
567.506	0.58
567.847	0.59
568.189	0.58
568.53	0.58
568.872	0.59
569.213	0.59
569.554	0.59
569.895	0.58
570.237	0.59
570.578	0.59
570.919	0.59
571.26	0.59
571.601	0.59
571.942	0.58
572.283	0.59
572.624	0.58
572.965	0.58
573.306	0.58
573.646	0.58
573.987	0.58
574.328	0.58
574.668	0.59
575.009	0.58
575.349	0.59
575.69	0.58
576.03	0.59
576.37	0.58
576.711	0.58
577.051	0.58
577.391	0.58
577.731	0.59
578.072	0.59
578.412	0.59
578.752	0.59
579.092	0.59
579.431	0.58
579.771	0.56
580.111	0.54
580.451	0.54
580.791	0.57
581.13	0.59
581.47	0.59
581.81	0.59
582.149	0.59
582.489	0.6
582.828	0.59
583.167	0.57
583.507	0.52
583.846	0.5
584.185	0.52
584.525	0.55
584.864	0.57
585.203	0.6
585.542	0.61
585.881	0.61
586.22	0.62
586.559	0.61
586.898	0.6
587.236	0.59
587.575	0.58
587.914	0.59
588.252	0.6
588.591	0.62
588.93	0.63
589.268	0.62
589.607	0.63
589.945	0.63
590.283	0.63
590.622	0.63
590.96	0.64
591.298	0.65
591.636	0.65
591.974	0.65
592.313	0.65
592.651	0.66
592.989	0.66
593.326	0.67
593.664	0.67
594.002	0.67
594.34	0.67
594.678	0.67
595.015	0.67
595.353	0.65
595.691	0.66
596.028	0.67
596.366	0.68
596.703	0.69
597.04	0.69
597.378	0.7
597.715	0.7
598.052	0.7
598.389	0.7
598.726	0.71
599.064	0.71
599.401	0.71
599.738	0.71
600.074	0.71
600.411	0.72
600.748	0.71
601.085	0.7
601.422	0.7
601.758	0.7
602.095	0.71
602.432	0.71
602.768	0.71
603.105	0.72
603.441	0.71
603.777	0.72
604.114	0.72
604.45	0.72
604.786	0.72
605.122	0.72
605.459	0.71
605.795	0.72
606.131	0.71
606.467	0.72
606.803	0.72
607.139	0.72
607.474	0.72
607.81	0.71
608.146	0.71
608.482	0.71
608.817	0.71
609.153	0.7
609.488	0.7
609.824	0.7
610.159	0.7
610.495	0.7
610.83	0.7
611.165	0.7
611.5	0.7
611.836	0.7
612.171	0.7
612.506	0.69
612.841	0.7
613.176	0.7
613.511	0.69
613.845	0.69
614.18	0.69
614.515	0.69
614.85	0.69
615.184	0.68
615.519	0.68
615.854	0.68
616.188	0.68
616.523	0.68
616.857	0.67
617.191	0.67
617.526	0.67
617.86	0.67
618.194	0.66
618.528	0.67
618.862	0.66
619.196	0.66
619.53	0.66
619.864	0.65
620.198	0.66
620.532	0.66
620.866	0.65
621.2	0.66
621.533	0.65
621.867	0.65
622.201	0.65
622.534	0.64
622.868	0.64
623.201	0.64
623.534	0.64
623.868	0.63
624.201	0.63
624.534	0.63
624.868	0.63
625.201	0.62
625.534	0.62
625.867	0.62
626.2	0.62
626.533	0.61
626.865	0.61
627.198	0.61
627.531	0.6
627.864	0.6
628.196	0.6
628.529	0.6
628.862	0.59
629.194	0.59
629.527	0.58
629.859	0.59
630.191	0.58
630.524	0.58
630.856	0.57
631.188	0.57
631.52	0.57
631.852	0.56
632.184	0.56
632.516	0.56
632.848	0.55
633.18	0.55
633.512	0.55
633.844	0.54
634.175	0.54
634.507	0.54
634.839	0.53
635.17	0.52
635.502	0.52
635.833	0.51
636.165	0.51
636.496	0.51
636.827	0.5
637.159	0.5
637.49	0.5
637.821	0.49
638.152	0.49
638.483	0.48
638.814	0.48
639.145	0.48
639.476	0.47
639.807	0.47
640.137	0.46
640.468	0.46
640.799	0.45
641.129	0.45
641.46	0.45
641.791	0.45
642.121	0.44
642.451	0.44
642.782	0.44
643.112	0.44
643.442	0.44
643.773	0.43
644.103	0.43
644.433	0.43
644.763	0.42
645.093	0.42
645.423	0.42
645.753	0.41
646.082	0.41
646.412	0.41
646.742	0.41
647.072	0.41
647.401	0.41
647.731	0.41
648.06	0.4
648.39	0.4
648.719	0.4
649.048	0.4
649.378	0.4
649.707	0.39
650.036	0.39
650.365	0.39
650.694	0.39
651.023	0.38
651.352	0.38
651.681	0.38
652.01	0.39
652.339	0.39
652.668	0.38
652.996	0.38
653.325	0.38
653.654	0.38
653.982	0.38
654.311	0.38
654.639	0.38
654.967	0.38
655.296	0.38
655.624	0.38
655.952	0.38
656.28	0.38
656.609	0.37
656.937	0.38
657.265	0.38
657.593	0.32
657.92	0.18
658.248	0.12
658.576	0.1
658.904	0.17
659.231	0.26
659.559	0.34
659.887	0.37
660.214	0.37
660.542	0.37
660.869	0.37
661.196	0.38
661.524	0.38
661.851	0.38
662.178	0.37
662.505	0.37
662.832	0.38
663.159	0.37
663.486	0.37
663.813	0.37
664.14	0.37
664.467	0.37
664.794	0.37
665.12	0.37
665.447	0.36
665.774	0.36
666.1	0.36
666.427	0.36
666.753	0.36
667.079	0.35
667.406	0.35
667.732	0.35
668.058	0.35
668.384	0.35
668.71	0.36
669.036	0.35
669.362	0.35
669.688	0.35
670.014	0.35
670.34	0.35
670.666	0.35
670.991	0.35
671.317	0.35
671.643	0.34
671.968	0.35
672.294	0.34
672.619	0.34
672.945	0.34
673.27	0.34
673.595	0.33
673.92	0.33
674.246	0.33
674.571	0.32
674.896	0.32
675.221	0.32
675.546	0.32
675.87	0.32
676.195	0.32
676.52	0.32
676.845	0.31
677.169	0.31
677.494	0.31
677.819	0.3
678.143	0.3
678.468	0.3
678.792	0.29
679.116	0.3
679.44	0.29
679.765	0.29
680.089	0.29
680.413	0.28
680.737	0.28
681.061	0.27
681.385	0.27
681.709	0.27
682.033	0.27
682.356	0.26
682.68	0.27
683.004	0.26
683.327	0.26
683.651	0.25
683.974	0.25
684.298	0.25
684.621	0.25
684.944	0.24
685.268	0.24
685.591	0.24
685.914	0.24
686.237	0.23
686.56	0.23
686.883	0.22
687.206	0.22
687.529	0.22
687.852	0.21
688.175	0.21
688.497	0.21
688.82	0.21
689.142	0.21
689.465	0.21
689.787	0.21
690.11	0.21
690.432	0.2
690.755	0.2
691.077	0.2
691.399	0.19
691.721	0.19
692.043	0.19
692.365	0.19
692.687	0.18
693.009	0.18
693.331	0.18
693.653	0.17
693.974	0.17
694.296	0.17
694.618	0.17
694.939	0.17
695.261	0.16
695.582	0.16
695.904	0.16
696.225	0.16
696.546	0.16
696.868	0.16
697.189	0.16
697.51	0.16
697.831	0.15
698.152	0.15
698.473	0.15
698.794	0.14
699.114	0.14
699.435	0.12
699.756	0.12
700.077	0.13
700.397	0.13
700.718	0.13
701.038	0.14
701.359	0.13
701.679	0.13
701.999	0.13
702.32	0.13
702.64	0.13
702.96	0.13
703.28	0.13
703.6	0.13
703.92	0.13
704.24	0.12
704.56	0.12
704.879	0.11
705.199	0.12
705.519	0.12
705.838	0.12
706.158	0.12
706.478	0.11
706.797	0.12
707.116	0.12
707.436	0.12
707.755	0.12
708.074	0.12
708.393	0.11
708.712	0.11
709.031	0.09
709.35	0.09
709.669	0.09
709.988	0.09
710.307	0.09
710.626	0.09
710.944	0.1
711.263	0.1
711.582	0.11
711.9	0.11
712.219	0.1
712.537	0.11
712.855	0.11
713.174	0.1
713.492	0.1
713.81	0.11
714.128	0.11
714.446	0.11
714.764	0.1
715.082	0.1
715.4	0.1
715.718	0.1
716.035	0.09
716.353	0.1
716.671	0.1
716.988	0.1
717.306	0.09
717.623	0.1
717.941	0.11
718.258	0.11
718.575	0.11
718.893	0.11
719.21	0.11
719.527	0.11
719.844	0.11
720.161	0.11
720.478	0.11
720.795	0.12
721.112	0.12
721.428	0.12
721.745	0.12
722.062	0.12
722.378	0.12
722.695	0.12
723.011	0.12
723.328	0.12
723.644	0.12
723.96	0.12
724.276	0.12
724.593	0.12
724.909	0.13
725.225	0.12
725.541	0.13
725.857	0.13
726.173	0.13
726.488	0.13
726.804	0.13
727.12	0.13
727.435	0.13
727.751	0.13
728.067	0.12
728.382	0.13
728.697	0.12
729.013	0.13
729.328	0.12
729.643	0.13
729.958	0.12
730.273	0.13
730.588	0.12
730.903	0.13
731.218	0.13
731.533	0.13
731.848	0.12
732.163	0.13
732.477	0.12
732.792	0.12
733.107	0.11
733.421	0.12
733.736	0.12
734.05	0.12
734.364	0.12
734.678	0.12
734.993	0.12
735.307	0.12
735.621	0.12
735.935	0.12
736.249	0.12
736.563	0.12
736.877	0.12
737.19	0.13
737.504	0.13
737.818	0.13
738.131	0.12
738.445	0.13
738.758	0.13
739.072	0.12
739.385	0.12
739.698	0.12
740.012	0.12
740.325	0.12
740.638	0.12
740.951	0.12
741.264	0.12
741.577	0.12
741.89	0.12
742.203	0.12
742.515	0.12
742.828	0.12
743.141	0.12
743.453	0.12
743.766	0.11
744.078	0.11
744.391	0.11
744.703	0.11
745.015	0.11
745.327	0.11
745.639	0.11
745.952	0.1
746.264	0.11
746.575	0.11
746.887	0.11
747.199	0.11
747.511	0.11
747.823	0.11
748.134	0.1
748.446	0.1
748.757	0.1
749.069	0.1
749.38	0.1
749.692	0.1
750.003	0.09
750.314	0.09
750.625	0.09
750.936	0.09
751.248	0.09
751.559	0.09
751.869	0.08
752.18	0.08
752.491	0.08
752.802	0.08
753.112	0.08
753.423	0.08
753.734	0.08
754.044	0.08
754.355	0.08
754.665	0.08
754.975	0.08
755.285	0.08
755.596	0.07
755.906	0.07
756.216	0.07
756.526	0.07
756.836	0.07
757.146	0.07
757.455	0.07
757.765	0.07
758.075	0.06
758.385	0.06
758.694	0.06
759.004	0.06
759.313	0.06
759.622	0.06
759.932	0.06
760.241	0.06
760.55	0.06
760.859	0.05
761.168	0.05
761.477	0.05
761.786	0.04
762.095	0.04
762.404	0.04
762.713	0.04
763.021	0.05
763.33	0.04
763.639	0.04
763.947	0.04
764.256	0.04
764.564	0.04
764.872	0.04
765.181	0.04
765.489	0.04
765.797	0.04
766.105	0.04
766.413	0.04
766.721	0.04
767.029	0.04
767.337	0.03
767.644	0.03
767.952	0.04
768.26	0.04
768.567	0.04
768.875	0.04
769.182	0.04
769.49	0.04
769.797	0.04
770.104	0.04
770.411	0.04
770.718	0.04
771.026	0.04
771.333	0.04
771.639	0.04
771.946	0.04
772.253	0.04
772.56	0.04
772.867	0.04
773.173	0.04
773.48	0.04
773.786	0.03
774.093	0.03
774.399	0.03
774.705	0.03
775.012	0.03
775.318	0.03
775.624	0.03
775.93	0.03
776.236	0.02
776.542	0.03
776.848	0.03
777.154	0.03
777.459	0.03
777.765	0.03
778.071	0.03
778.376	0.03
778.682	0.03
778.987	0.03
779.292	0.03
779.598	0.03
779.903	0.03
780.208	0.04
780.513	0.04
780.818	0.03
781.123	0.03
781.428	0.04
781.733	0.04
782.038	0.04
782.343	0.04
782.647	0.04
782.952	0.04
783.256	0.03
783.561	0.03
783.865	0.04
784.17	0.03
784.474	0.03
784.778	0.03
785.082	0.03
785.386	0.03
785.69	0.03
785.994	0.03
786.298	0.03
786.602	0.03
786.906	0.03
787.209	0.03
787.513	0.03
787.817	0.04
788.12	0.03
788.424	0.03
788.727	0.03
789.03	0.03
789.333	0.03
789.637	0.03
789.94	0.03
790.243	0.03
790.546	0.03
790.849	0.03
791.152	0.03
791.454	0.03
791.757	0.03
792.06	0.03
792.362	0.03
792.665	0.03
792.967	0.03
793.27	0.03
793.572	0.03
793.874	0.03
794.177	0.03
794.479	0.03
794.781	0.03
795.083	0.03
795.385	0.03
795.687	0.02
795.989	0.03
796.29	0.03
796.592	0.04
796.894	0.04
797.195	0.04
797.497	0.04
797.798	0.04
798.1	0.04
798.401	0.04
798.702	0.04
799.003	0.04
799.304	0.04
799.605	0.04
799.906	0.04
800.207	0.04
800.508	0.04
800.809	0.04
801.11	0.04
801.41	0.03
801.711	0.03
802.011	0.03
802.312	0.03
802.612	0.02
802.913	0.03
803.213	0.03
803.513	0.03
803.813	0.03
804.113	0.03
804.413	0.04
804.713	0.04
805.013	0.04
805.313	0.04
805.613	0.03
805.912	0.04
806.212	0.03
806.511	0.03
806.811	0.04
807.11	0.03
807.41	0.03
807.709	0.04
808.008	0.04
808.307	0.04
808.606	0.04
808.905	0.04
809.204	0.04
809.503	0.04
809.802	0.03
810.101	0.03
810.399	0.03
810.698	0.04
810.997	0.04
811.295	0.04
811.593	0.04
811.892	0.04
812.19	0.04
812.488	0.04
812.786	0.04
813.084	0.04
813.383	0.04
813.68	0.05
813.978	0.05
814.276	0.05
814.574	0.04
814.872	0.05
815.169	0.04
815.467	0.04
815.764	0.04
816.062	0.04
816.359	0.04
816.656	0.04
816.954	0.04
817.251	0.04
817.548	0.05
817.845	0.05
818.142	0.05
818.439	0.05
818.735	0.05
819.032	0.05
819.329	0.05
819.626	0.05
819.922	0.04
820.219	0.05
820.515	0.05
820.811	0.05
821.108	0.05
821.404	0.04
821.7	0.04
821.996	0.04
822.292	0.04
822.588	0.04
822.884	0.05
823.18	0.05
823.475	0.05
823.771	0.05
824.067	0.05
824.362	0.05
824.658	0.05
824.953	0.05
825.249	0.05
825.544	0.04
825.839	0.05
826.134	0.05
826.429	0.06
826.724	0.05
827.019	0.05
827.314	0.05
827.609	0.05
827.904	0.04
828.198	0.04
828.493	0.05
828.787	0.04
829.082	0.04
829.376	0.04
829.671	0.05
829.965	0.04
830.259	0.04
830.553	0.04
830.847	0.06
831.141	0.06
831.435	0.05
831.729	0.05
832.023	0.06
832.317	0.05
832.61	0.06
832.904	0.06
833.197	0.06
833.491	0.05
833.784	0.06
834.077	0.05
834.371	0.05
834.664	0.05
834.957	0.05
835.25	0.06
835.543	0.06
835.836	0.05
836.129	0.06
836.421	0.06
836.714	0.06
837.007	0.05
837.299	0.05
837.592	0.05
837.884	0.06
838.177	0.05
838.469	0.05
838.761	0.05
839.053	0.05
839.345	0.06
839.637	0.05
839.929	0.06
840.221	0.06
840.513	0.06
840.805	0.06
841.096	0.06
841.388	0.07
841.68	0.06
841.971	0.06
842.262	0.07
842.554	0.06
842.845	0.06
843.136	0.07
843.427	0.06
843.718	0.06
844.009	0.06
844.3	0.06
844.591	0.05
844.882	0.05
845.173	0.05
845.463	0.05
845.754	0.05
846.044	0.06
846.335	0.06
846.625	0.06
846.915	0.06
847.206	0.07
847.496	0.07
847.786	0.06
848.076	0.06
848.366	0.06
848.656	0.06
848.945	0.06
849.235	0.06
849.525	0.06
849.814	0.06
850.104	0.05
850.393	0.05
850.683	0.06
850.972	0.06
851.261	0.05
851.551	0.06
851.84	0.05
852.129	0.06
852.418	0.06
852.707	0.06
852.995	0.06
853.284	0.05
853.573	0.06
853.862	0.06
854.15	0.07
854.439	0.08
854.727	0.06
855.015	0.06
855.304	0.06
855.592	0.05
855.88	0.04
856.168	0.05
856.456	0.06
856.744	0.07
857.032	0.07
857.32	0.06
857.607	0.08
857.895	0.05
858.183	0.05
858.47	0.05
858.757	0.05
859.045	0.06
859.332	0.06
859.619	0.05
859.907	0.06
860.194	0.06
860.481	0.07
860.768	0.07
861.054	0.08
861.341	0.07
861.628	0.04
861.915	0.06
862.201	0.06
862.488	0.06
862.774	0.07
863.061	0.06
863.347	0.06
863.633	0.07
863.919	0.04
864.205	0.05
864.491	0.05
864.777	0.04
865.063	0.03
865.349	0.05
865.635	0.06
865.92	0.05
866.206	0.05
866.492	0.05
866.777	0.06
867.062	0.08
867.348	0.06
867.633	0.05
867.918	0.01
868.203	0.04
868.488	0.05
868.773	0.02
869.058	0.05
869.343	0.02
869.628	0.05
869.912	0.03
870.197	0.05
870.482	0.07
870.766	0.04
871.05	0.04
871.335	0.05
871.619	0.07
871.903	0.03
872.187	0.04
872.471	0.05
872.755	0.04
873.039	0.03
873.323	0.07
873.607	0.06
873.89	0.02
874.174	0.04
874.458	0.01
874.741	0.02
875.024	0.06
875.308	0.02
875.591	-0.01
875.874	0.05
876.157	0.06
876.44	0.01
876.723	0.04
877.006	0.05
877.289	0.02
877.572	0.06
877.854	0.03
878.137	0.03
878.42	0.03
878.702	0
878.984	0.02
879.267	0
879.549	0.03
879.831	0.04
880.113	0.05
880.395	0.02
880.677	0.08
880.959	0.02
