Data from Rubpy_EV_1800_EDTA_Buffered_Absorbance_15-38-54-591.txt Node
Date: Tue Jun 30 15:38:54 BST 2026
User: fpm-admin
Spectrometer: OFX00224
Trigger mode: 0
Integration Time (sec): 7.000000E-2
Scans to average: 3
Nonlinearity correction enabled: false
Boxcar width: 0
Storing dark spectrum: false
XAxis mode: Wavelengths
Number of Pixels in Spectrum: 2136
>>>>>Begin Spectral Data<<<<<
154.91	-0
155.289	-0
155.669	-0
156.048	-0
156.428	-0
156.807	-0
157.186	-0
157.566	-0.06
157.945	0.41
158.325	-0
158.704	-0.35
159.083	-0.2
159.462	0.18
159.842	-0.48
160.221	0.33
160.6	-0.66
160.979	-0.43
161.359	-0.05
161.738	-0.03
162.117	-0
162.496	0.18
162.875	0.73
163.254	-0
163.633	0.43
164.012	0.02
164.391	0.21
164.77	1.38
165.149	-0.16
165.528	-0
165.907	-0.78
166.286	-0.16
166.665	-0.28
167.044	-0.99
167.423	-0
167.802	0.09
168.181	0.58
168.559	-0.48
168.938	-0.05
169.317	-0.3
169.696	-0
170.074	-0
170.453	-0
170.832	0.24
171.21	0.26
171.589	-0
171.968	-0
172.346	0.3
172.725	0.04
173.103	0.03
173.482	0.23
173.861	0.67
174.239	0.65
174.617	0.14
174.996	-0.5
175.374	-0.24
175.753	-0.17
176.131	1.34
176.51	-0
176.888	-0
177.266	-0
177.645	-0.23
178.023	0.55
178.401	-0.18
178.779	0.48
179.158	0.15
179.536	-0.02
179.914	-0
180.292	0.74
180.67	-0.63
181.048	-0
181.427	0.52
181.805	-0.25
182.183	-0.05
182.561	0.2
182.939	-0.41
183.317	-0
183.695	-0
184.073	0.56
184.451	-0.24
184.829	1.46
185.206	-0.79
185.584	-0.2
185.962	-0
186.34	0.16
186.718	-0
187.096	0.75
187.473	-0
187.851	-0
188.229	1.1
188.607	0.16
188.984	0.1
189.362	0.16
189.74	0.19
190.117	0.28
190.495	0.27
190.872	0.06
191.25	0.01
191.627	0.06
192.005	0.11
192.382	0.16
192.76	0.09
193.137	0.14
193.515	0.01
193.892	0.18
194.269	0.22
194.647	0.1
195.024	0.14
195.401	0.14
195.779	0.11
196.156	0.12
196.533	0.13
196.91	0.31
197.288	0.15
197.665	0.13
198.042	0.11
198.419	0.19
198.796	0.2
199.173	0.21
199.55	0.25
199.927	0.18
200.304	0.17
200.681	0.25
201.058	0.09
201.435	0.15
201.812	0.12
202.189	0.2
202.566	0.14
202.943	0.18
203.32	0.22
203.697	0.18
204.073	0.28
204.45	0.15
204.827	0.23
205.204	0.11
205.58	0.13
205.957	0.05
206.334	0.19
206.71	0.12
207.087	0.16
207.464	0.14
207.84	0.15
208.217	0.16
208.593	0.17
208.97	0.05
209.346	0.18
209.723	0.08
210.099	0.09
210.476	0.13
210.852	0.32
211.228	0.15
211.605	0.2
211.981	0.12
212.357	0.28
212.733	0.23
213.11	0.16
213.486	0.15
213.862	0.18
214.238	0.17
214.614	0.07
214.991	0.14
215.367	0.19
215.743	0.17
216.119	0.1
216.495	0.15
216.871	0.15
217.247	0.13
217.623	0.07
217.999	0.32
218.375	0.11
218.751	0.15
219.127	0.2
219.502	0.16
219.878	0.12
220.254	0.19
220.63	0.18
221.006	0.18
221.381	0.22
221.757	0.15
222.133	0.22
222.508	0.27
222.884	0.14
223.26	0.13
223.635	0.16
224.011	0.18
224.386	0.14
224.762	0.17
225.137	0.2
225.513	0.17
225.888	0.24
226.264	0.16
226.639	0.16
227.014	0.16
227.39	0.17
227.765	0.18
228.14	0.19
228.516	0.11
228.891	0.2
229.266	0.21
229.641	0.14
230.017	0.28
230.392	0.22
230.767	0.21
231.142	0.12
231.517	0.13
231.892	0.16
232.267	0.23
232.642	0.19
233.017	0.2
233.392	0.21
233.767	0.19
234.142	0.18
234.517	0.21
234.892	0.15
235.267	0.21
235.641	0.22
236.016	0.14
236.391	0.14
236.766	0.16
237.14	0.08
237.515	0.11
237.89	0.12
238.264	0.15
238.639	0.22
239.014	0.16
239.388	0.15
239.763	0.15
240.137	0.17
240.512	0.19
240.886	0.11
241.261	0.18
241.635	0.26
242.009	0.16
242.384	0.15
242.758	0.33
243.132	0.23
243.507	0.09
243.881	0.14
244.255	0.16
244.629	0.19
245.004	0.23
245.378	0.12
245.752	0.2
246.126	0.17
246.5	0.15
246.874	0.09
247.248	0.07
247.622	0.08
247.996	0.16
248.37	0.16
248.744	0.2
249.118	0.15
249.492	0.2
249.866	0.14
250.24	0.17
250.613	0.18
250.987	0.22
251.361	0.25
251.735	0.13
252.108	0.18
252.482	0.2
252.856	0.1
253.229	0.12
253.603	0.17
253.977	0.16
254.35	0.19
254.724	0.13
255.097	0.14
255.471	0.21
255.844	0.24
256.218	0.18
256.591	0.15
256.964	0.15
257.338	0.11
257.711	0.15
258.084	0.18
258.458	0.16
258.831	0.22
259.204	0.25
259.577	0.08
259.95	0.24
260.323	0.19
260.697	0.15
261.07	0.19
261.443	0.19
261.816	0.15
262.189	0.17
262.562	0.2
262.935	0.08
263.308	0.19
263.68	0.24
264.053	0.19
264.426	0.21
264.799	0.18
265.172	0.22
265.545	0.14
265.917	0.29
266.29	0.2
266.663	0.21
267.035	0.17
267.408	0.17
267.781	0.21
268.153	0.27
268.526	0.21
268.898	0.21
269.271	0.23
269.643	0.23
270.016	0.2
270.388	0.23
270.76	0.25
271.133	0.15
271.505	0.26
271.877	0.19
272.25	0.16
272.622	0.1
272.994	0.16
273.366	0.16
273.739	0.23
274.111	0.21
274.483	0.18
274.855	0.15
275.227	0.21
275.599	0.27
275.971	0.24
276.343	0.22
276.715	0.29
277.087	0.23
277.459	0.25
277.831	0.2
278.203	0.24
278.574	0.24
278.946	0.23
279.318	0.18
279.69	0.12
280.061	0.17
280.433	0.16
280.805	0.21
281.176	0.22
281.548	0.13
281.92	0.22
282.291	0.17
282.663	0.21
283.034	0.2
283.406	0.2
283.777	0.26
284.148	0.2
284.52	0.2
284.891	0.12
285.262	0.22
285.634	0.24
286.005	0.17
286.376	0.14
286.747	0.2
287.119	0.15
287.49	0.17
287.861	0.19
288.232	0.14
288.603	0.15
288.974	0.18
289.345	0.11
289.716	0.19
290.087	0.16
290.458	0.21
290.829	0.17
291.2	0.22
291.571	0.14
291.941	0.2
292.312	0.13
292.683	0.23
293.054	0.23
293.424	0.21
293.795	0.28
294.166	0.24
294.536	0.2
294.907	0.24
295.277	0.21
295.648	0.21
296.018	0.18
296.389	0.22
296.759	0.22
297.13	0.18
297.5	0.25
297.871	0.23
298.241	0.2
298.611	0.21
298.981	0.18
299.352	0.22
299.722	0.17
300.092	0.2
300.462	0.19
300.832	0.21
301.202	0.2
301.573	0.21
301.943	0.18
302.313	0.16
302.683	0.19
303.053	0.15
303.422	0.18
303.792	0.17
304.162	0.2
304.532	0.2
304.902	0.18
305.272	0.2
305.641	0.2
306.011	0.19
306.381	0.19
306.75	0.19
307.12	0.19
307.49	0.2
307.859	0.2
308.229	0.2
308.598	0.19
308.968	0.2
309.337	0.21
309.707	0.21
310.076	0.21
310.445	0.22
310.815	0.23
311.184	0.22
311.553	0.22
311.923	0.23
312.292	0.23
312.661	0.23
313.03	0.23
313.399	0.23
313.768	0.24
314.137	0.24
314.506	0.23
314.875	0.22
315.244	0.23
315.613	0.23
315.982	0.23
316.351	0.22
316.72	0.22
317.089	0.22
317.458	0.21
317.826	0.22
318.195	0.22
318.564	0.21
318.933	0.21
319.301	0.21
319.67	0.21
320.038	0.2
320.407	0.21
320.775	0.21
321.144	0.2
321.512	0.2
321.881	0.2
322.249	0.2
322.618	0.2
322.986	0.2
323.354	0.19
323.723	0.2
324.091	0.19
324.459	0.19
324.827	0.19
325.195	0.19
325.564	0.18
325.932	0.18
326.3	0.19
326.668	0.19
327.036	0.18
327.404	0.18
327.772	0.18
328.14	0.19
328.508	0.18
328.875	0.19
329.243	0.19
329.611	0.19
329.979	0.19
330.346	0.19
330.714	0.18
331.082	0.19
331.449	0.19
331.817	0.19
332.185	0.19
332.552	0.19
332.92	0.2
333.287	0.2
333.655	0.2
334.022	0.21
334.389	0.21
334.757	0.21
335.124	0.21
335.491	0.22
335.859	0.22
336.226	0.22
336.593	0.22
336.96	0.22
337.327	0.23
337.695	0.23
338.062	0.23
338.429	0.24
338.796	0.24
339.163	0.24
339.53	0.24
339.897	0.25
340.263	0.25
340.63	0.26
340.997	0.26
341.364	0.27
341.731	0.27
342.097	0.28
342.464	0.28
342.831	0.28
343.197	0.29
343.564	0.29
343.931	0.3
344.297	0.3
344.664	0.3
345.03	0.31
345.396	0.32
345.763	0.32
346.129	0.32
346.496	0.33
346.862	0.34
347.228	0.34
347.594	0.34
347.961	0.35
348.327	0.35
348.693	0.36
349.059	0.36
349.425	0.38
349.791	0.38
350.157	0.39
350.523	0.39
350.889	0.4
351.255	0.4
351.621	0.42
351.987	0.42
352.353	0.43
352.719	0.44
353.084	0.45
353.45	0.45
353.816	0.46
354.181	0.47
354.547	0.48
354.913	0.49
355.278	0.5
355.644	0.51
356.009	0.52
356.375	0.53
356.74	0.54
357.106	0.55
357.471	0.56
357.836	0.57
358.202	0.58
358.567	0.6
358.932	0.6
359.297	0.62
359.663	0.62
360.028	0.63
360.393	0.65
360.758	0.65
361.123	0.66
361.488	0.67
361.853	0.67
362.218	0.68
362.583	0.69
362.948	0.69
363.312	0.71
363.677	0.71
364.042	0.72
364.407	0.73
364.772	0.74
365.136	0.76
365.501	0.77
365.865	0.79
366.23	0.81
366.595	0.82
366.959	0.85
367.324	0.85
367.688	0.86
368.052	0.88
368.417	0.88
368.781	0.9
369.145	0.91
369.51	0.92
369.874	0.92
370.238	0.92
370.602	0.92
370.967	0.91
371.331	0.92
371.695	0.92
372.059	0.91
372.423	0.9
372.787	0.9
373.151	0.89
373.515	0.9
373.878	0.89
374.242	0.89
374.606	0.89
374.97	0.9
375.334	0.89
375.697	0.89
376.061	0.9
376.425	0.9
376.788	0.9
377.152	0.91
377.515	0.91
377.879	0.92
378.242	0.93
378.606	0.94
378.969	0.95
379.333	0.97
379.696	0.98
380.059	0.99
380.422	1.01
380.786	1.02
381.149	1.04
381.512	1.05
381.875	1.08
382.238	1.1
382.601	1.12
382.964	1.15
383.327	1.17
383.69	1.21
384.053	1.24
384.416	1.26
384.779	1.29
385.142	1.29
385.504	1.32
385.867	1.34
386.23	1.35
386.593	1.36
386.955	1.38
387.318	1.38
387.68	1.37
388.043	1.37
388.405	1.36
388.768	1.34
389.13	1.34
389.493	1.33
389.855	1.33
390.217	1.32
390.58	1.33
390.942	1.32
391.304	1.32
391.666	1.34
392.028	1.35
392.391	1.39
392.753	1.4
393.115	1.45
393.477	1.49
393.839	1.54
394.201	1.59
394.563	1.64
394.924	1.71
395.286	1.71
395.648	1.76
396.01	1.8
396.371	1.81
396.733	1.82
397.095	1.87
397.456	1.85
397.818	1.86
398.18	1.84
398.541	1.83
398.903	1.81
399.264	1.76
399.625	1.73
399.987	1.69
400.348	1.65
400.709	1.59
401.071	1.53
401.432	1.45
401.793	1.37
402.154	1.3
402.515	1.21
402.876	1.14
403.238	1.05
403.599	0.99
403.96	0.92
404.32	0.85
404.681	0.8
405.042	0.74
405.403	0.7
405.764	0.64
406.125	0.59
406.485	0.56
406.846	0.53
407.207	0.49
407.567	0.46
407.928	0.44
408.288	0.41
408.649	0.39
409.009	0.37
409.37	0.34
409.73	0.33
410.091	0.31
410.451	0.3
410.811	0.29
411.171	0.27
411.532	0.26
411.892	0.25
412.252	0.24
412.612	0.23
412.972	0.22
413.332	0.21
413.692	0.21
414.052	0.2
414.412	0.19
414.772	0.19
415.132	0.18
415.492	0.18
415.851	0.17
416.211	0.16
416.571	0.16
416.931	0.16
417.29	0.16
417.65	0.15
418.009	0.15
418.369	0.14
418.728	0.14
419.088	0.14
419.447	0.13
419.807	0.12
420.166	0.12
420.525	0.13
420.884	0.13
421.244	0.12
421.603	0.12
421.962	0.12
422.321	0.11
422.68	0.12
423.039	0.12
423.398	0.12
423.757	0.11
424.116	0.1
424.475	0.1
424.834	0.1
425.193	0.11
425.551	0.1
425.91	0.1
426.269	0.1
426.628	0.09
426.986	0.1
427.345	0.1
427.703	0.09
428.062	0.09
428.42	0.09
428.779	0.09
429.137	0.1
429.496	0.08
429.854	0.09
430.212	0.09
430.57	0.09
430.929	0.08
431.287	0.09
431.645	0.08
432.003	0.08
432.361	0.08
432.719	0.08
433.077	0.08
433.435	0.08
433.793	0.08
434.151	0.08
434.509	0.08
434.866	0.08
435.224	0.08
435.582	0.07
435.94	0.08
436.297	0.08
436.655	0.08
437.012	0.08
437.37	0.08
437.727	0.08
438.085	0.07
438.442	0.07
438.8	0.07
439.157	0.06
439.514	0.07
439.872	0.07
440.229	0.07
440.586	0.07
440.943	0.07
441.3	0.06
441.657	0.07
442.014	0.07
442.371	0.06
442.728	0.07
443.085	0.06
443.442	0.07
443.799	0.05
444.156	0.06
444.513	0.06
444.869	0.06
445.226	0.06
445.583	0.06
445.939	0.06
446.296	0.06
446.652	0.06
447.009	0.06
447.365	0.05
447.722	0.05
448.078	0.05
448.434	0.05
448.791	0.06
449.147	0.05
449.503	0.05
449.859	0.05
450.215	0.05
450.571	0.05
450.928	0.04
451.284	0.04
451.64	0.05
451.995	0.05
452.351	0.04
452.707	0.04
453.063	0.04
453.419	0.03
453.775	0.04
454.13	0.04
454.486	0.05
454.842	0.03
455.197	0.03
455.553	0.03
455.908	0.03
456.264	0.02
456.619	0.02
456.975	0.02
457.33	0.02
457.685	0.02
458.04	0.02
458.396	0.02
458.751	0.02
459.106	0.01
459.461	0.01
459.816	0
460.171	0.02
460.526	0.01
460.881	-0
461.236	0.01
461.591	0.01
461.946	-0
462.301	-0
462.655	-0
463.01	-0.01
463.365	-0.01
463.719	-0.01
464.074	-0.01
464.428	-0.02
464.783	-0.02
465.137	-0.01
465.492	-0.02
465.846	-0.02
466.201	-0.02
466.555	-0.02
466.909	-0.02
467.263	-0.02
467.618	-0.01
467.972	-0.01
468.326	-0.02
468.68	-0.02
469.034	-0.03
469.388	-0.03
469.742	-0.02
470.096	-0.02
470.45	-0.02
470.804	-0.03
471.157	-0.02
471.511	-0.02
471.865	-0.01
472.218	-0.01
472.572	-0.01
472.926	-0.02
473.279	-0.01
473.633	-0.01
473.986	-0
474.34	-0
474.693	0.01
475.046	0.01
475.4	0.01
475.753	0.01
476.106	0.02
476.459	0.02
476.812	0.03
477.165	0.03
477.519	0.04
477.872	0.04
478.224	0.04
478.577	0.04
478.93	0.04
479.283	0.05
479.636	0.05
479.989	0.05
480.341	0.06
480.694	0.05
481.047	0.06
481.399	0.06
481.752	0.06
482.104	0.07
482.457	0.07
482.809	0.07
483.162	0.07
483.514	0.08
483.866	0.08
484.219	0.08
484.571	0.08
484.923	0.08
485.275	0.08
485.627	0.09
485.979	0.09
486.331	0.09
486.683	0.09
487.035	0.1
487.387	0.1
487.739	0.1
488.091	0.1
488.443	0.1
488.794	0.1
489.146	0.1
489.498	0.1
489.849	0.1
490.201	0.1
490.552	0.11
490.904	0.11
491.255	0.11
491.607	0.11
491.958	0.11
492.309	0.11
492.661	0.12
493.012	0.12
493.363	0.12
493.714	0.12
494.065	0.12
494.416	0.12
494.767	0.13
495.118	0.13
495.469	0.13
495.82	0.13
496.171	0.13
496.522	0.14
496.872	0.14
497.223	0.14
497.574	0.14
497.924	0.15
498.275	0.14
498.626	0.15
498.976	0.15
499.327	0.15
499.677	0.15
500.027	0.15
500.378	0.16
500.728	0.15
501.078	0.16
501.428	0.16
501.779	0.16
502.129	0.16
502.479	0.16
502.829	0.16
503.179	0.16
503.529	0.17
503.879	0.17
504.229	0.17
504.578	0.17
504.928	0.18
505.278	0.18
505.628	0.18
505.977	0.18
506.327	0.19
506.676	0.19
507.026	0.19
507.375	0.19
507.725	0.19
508.074	0.2
508.424	0.2
508.773	0.2
509.122	0.2
509.471	0.2
509.82	0.2
510.17	0.21
510.519	0.21
510.868	0.21
511.217	0.21
511.566	0.21
511.915	0.21
512.263	0.22
512.612	0.22
512.961	0.22
513.31	0.22
513.659	0.23
514.007	0.22
514.356	0.22
514.704	0.23
515.053	0.23
515.401	0.24
515.75	0.24
516.098	0.24
516.447	0.24
516.795	0.24
517.143	0.24
517.491	0.24
517.839	0.24
518.188	0.25
518.536	0.25
518.884	0.25
519.232	0.26
519.58	0.26
519.928	0.26
520.275	0.26
520.623	0.26
520.971	0.27
521.319	0.27
521.666	0.27
522.014	0.27
522.362	0.27
522.709	0.27
523.057	0.27
523.404	0.28
523.752	0.28
524.099	0.28
524.446	0.29
524.794	0.28
525.141	0.29
525.488	0.29
525.835	0.3
526.182	0.29
526.529	0.3
526.876	0.3
527.223	0.3
527.57	0.3
527.917	0.3
528.264	0.31
528.611	0.31
528.958	0.31
529.304	0.32
529.651	0.32
529.998	0.32
530.344	0.32
530.691	0.32
531.037	0.33
531.384	0.33
531.73	0.33
532.076	0.33
532.423	0.33
532.769	0.33
533.115	0.34
533.461	0.34
533.807	0.34
534.154	0.34
534.5	0.35
534.846	0.35
535.192	0.35
535.537	0.35
535.883	0.36
536.229	0.36
536.575	0.36
536.921	0.36
537.266	0.37
537.612	0.37
537.957	0.37
538.303	0.37
538.649	0.38
538.994	0.38
539.339	0.38
539.685	0.39
540.03	0.39
540.375	0.39
540.721	0.39
541.066	0.39
541.411	0.4
541.756	0.4
542.101	0.41
542.446	0.41
542.791	0.41
543.136	0.41
543.481	0.41
543.825	0.42
544.17	0.42
544.515	0.43
544.86	0.43
545.204	0.43
545.549	0.43
545.893	0.44
546.238	0.44
546.582	0.44
546.927	0.45
547.271	0.45
547.615	0.45
547.96	0.45
548.304	0.46
548.648	0.46
548.992	0.46
549.336	0.46
549.68	0.46
550.024	0.47
550.368	0.47
550.712	0.47
551.056	0.47
551.4	0.48
551.743	0.48
552.087	0.48
552.431	0.48
552.774	0.48
553.118	0.48
553.462	0.48
553.805	0.49
554.148	0.49
554.492	0.49
554.835	0.5
555.178	0.5
555.522	0.5
555.865	0.5
556.208	0.5
556.551	0.5
556.894	0.51
557.237	0.51
557.58	0.51
557.923	0.51
558.266	0.51
558.609	0.51
558.952	0.51
559.294	0.51
559.637	0.51
559.98	0.52
560.322	0.52
560.665	0.52
561.007	0.52
561.35	0.52
561.692	0.52
562.034	0.52
562.377	0.53
562.719	0.52
563.061	0.53
563.403	0.53
563.745	0.53
564.088	0.52
564.43	0.53
564.772	0.53
565.113	0.54
565.455	0.53
565.797	0.54
566.139	0.54
566.481	0.54
566.822	0.54
567.164	0.54
567.506	0.54
567.847	0.55
568.189	0.55
568.53	0.54
568.872	0.54
569.213	0.55
569.554	0.55
569.895	0.55
570.237	0.55
570.578	0.55
570.919	0.55
571.26	0.55
571.601	0.55
571.942	0.54
572.283	0.55
572.624	0.54
572.965	0.55
573.306	0.54
573.646	0.54
573.987	0.54
574.328	0.54
574.668	0.55
575.009	0.55
575.349	0.54
575.69	0.54
576.03	0.54
576.37	0.54
576.711	0.54
577.051	0.54
577.391	0.54
577.731	0.55
578.072	0.55
578.412	0.55
578.752	0.55
579.092	0.55
579.431	0.53
579.771	0.52
580.111	0.5
580.451	0.5
580.791	0.53
581.13	0.55
581.47	0.55
581.81	0.56
582.149	0.55
582.489	0.56
582.828	0.55
583.167	0.53
583.507	0.48
583.846	0.46
584.185	0.48
584.525	0.5
584.864	0.53
585.203	0.56
585.542	0.57
585.881	0.57
586.22	0.57
586.559	0.57
586.898	0.56
587.236	0.55
587.575	0.54
587.914	0.55
588.252	0.57
588.591	0.58
588.93	0.58
589.268	0.58
589.607	0.58
589.945	0.59
590.283	0.59
590.622	0.59
590.96	0.6
591.298	0.6
591.636	0.6
591.974	0.61
592.313	0.61
592.651	0.62
592.989	0.62
593.326	0.62
593.664	0.63
594.002	0.63
594.34	0.63
594.678	0.63
595.015	0.63
595.353	0.61
595.691	0.61
596.028	0.63
596.366	0.63
596.703	0.64
597.04	0.65
597.378	0.65
597.715	0.65
598.052	0.65
598.389	0.66
598.726	0.66
599.064	0.66
599.401	0.66
599.738	0.66
600.074	0.66
600.411	0.67
600.748	0.66
601.085	0.66
601.422	0.65
601.758	0.65
602.095	0.66
602.432	0.66
602.768	0.66
603.105	0.66
603.441	0.67
603.777	0.67
604.114	0.67
604.45	0.67
604.786	0.67
605.122	0.67
605.459	0.67
605.795	0.67
606.131	0.67
606.467	0.67
606.803	0.67
607.139	0.67
607.474	0.67
607.81	0.66
608.146	0.66
608.482	0.66
608.817	0.66
609.153	0.66
609.488	0.66
609.824	0.65
610.159	0.65
610.495	0.65
610.83	0.65
611.165	0.65
611.5	0.65
611.836	0.65
612.171	0.65
612.506	0.65
612.841	0.65
613.176	0.65
613.511	0.65
613.845	0.65
614.18	0.64
614.515	0.65
614.85	0.64
615.184	0.64
615.519	0.64
615.854	0.64
616.188	0.63
616.523	0.63
616.857	0.63
617.191	0.63
617.526	0.63
617.86	0.62
618.194	0.62
618.528	0.62
618.862	0.62
619.196	0.61
619.53	0.62
619.864	0.61
620.198	0.61
620.532	0.61
620.866	0.61
621.2	0.61
621.533	0.61
621.867	0.61
622.201	0.61
622.534	0.6
622.868	0.6
623.201	0.6
623.534	0.6
623.868	0.59
624.201	0.59
624.534	0.59
624.868	0.59
625.201	0.58
625.534	0.58
625.867	0.58
626.2	0.58
626.533	0.57
626.865	0.57
627.198	0.57
627.531	0.56
627.864	0.56
628.196	0.56
628.529	0.56
628.862	0.55
629.194	0.55
629.527	0.55
629.859	0.55
630.191	0.54
630.524	0.54
630.856	0.54
631.188	0.53
631.52	0.53
631.852	0.53
632.184	0.52
632.516	0.52
632.848	0.52
633.18	0.52
633.512	0.51
633.844	0.51
634.175	0.5
634.507	0.5
634.839	0.5
635.17	0.49
635.502	0.49
635.833	0.48
636.165	0.47
636.496	0.47
636.827	0.47
637.159	0.47
637.49	0.46
637.821	0.46
638.152	0.45
638.483	0.45
638.814	0.45
639.145	0.44
639.476	0.44
639.807	0.44
640.137	0.43
640.468	0.43
640.799	0.43
641.129	0.42
641.46	0.42
641.791	0.41
642.121	0.41
642.451	0.41
642.782	0.41
643.112	0.41
643.442	0.41
643.773	0.4
644.103	0.4
644.433	0.4
644.763	0.4
645.093	0.39
645.423	0.39
645.753	0.39
646.082	0.39
646.412	0.38
646.742	0.38
647.072	0.38
647.401	0.38
647.731	0.38
648.06	0.37
648.39	0.37
648.719	0.37
649.048	0.37
649.378	0.37
649.707	0.37
650.036	0.37
650.365	0.36
650.694	0.36
651.023	0.36
651.352	0.36
651.681	0.36
652.01	0.36
652.339	0.36
652.668	0.36
652.996	0.36
653.325	0.36
653.654	0.35
653.982	0.36
654.311	0.36
654.639	0.36
654.967	0.36
655.296	0.35
655.624	0.36
655.952	0.36
656.28	0.35
656.609	0.35
656.937	0.35
657.265	0.35
657.593	0.3
657.92	0.15
658.248	0.09
658.576	0.07
658.904	0.15
659.231	0.23
659.559	0.31
659.887	0.34
660.214	0.35
660.542	0.35
660.869	0.35
661.196	0.35
661.524	0.35
661.851	0.35
662.178	0.35
662.505	0.35
662.832	0.35
663.159	0.35
663.486	0.35
663.813	0.35
664.14	0.34
664.467	0.35
664.794	0.34
665.12	0.34
665.447	0.34
665.774	0.34
666.1	0.33
666.427	0.33
666.753	0.33
667.079	0.33
667.406	0.33
667.732	0.33
668.058	0.33
668.384	0.33
668.71	0.33
669.036	0.33
669.362	0.33
669.688	0.33
670.014	0.32
670.34	0.33
670.666	0.32
670.991	0.32
671.317	0.33
671.643	0.33
671.968	0.32
672.294	0.32
672.619	0.32
672.945	0.32
673.27	0.31
673.595	0.31
673.92	0.31
674.246	0.3
674.571	0.3
674.896	0.3
675.221	0.3
675.546	0.3
675.87	0.3
676.195	0.29
676.52	0.3
676.845	0.29
677.169	0.29
677.494	0.28
677.819	0.28
678.143	0.28
678.468	0.28
678.792	0.27
679.116	0.28
679.44	0.27
679.765	0.27
680.089	0.27
680.413	0.26
680.737	0.26
681.061	0.26
681.385	0.26
681.709	0.25
682.033	0.25
682.356	0.25
682.68	0.25
683.004	0.25
683.327	0.24
683.651	0.24
683.974	0.23
684.298	0.24
684.621	0.24
684.944	0.23
685.268	0.23
685.591	0.23
685.914	0.22
686.237	0.22
686.56	0.21
686.883	0.21
687.206	0.2
687.529	0.2
687.852	0.2
688.175	0.19
688.497	0.2
688.82	0.2
689.142	0.2
689.465	0.19
689.787	0.19
690.11	0.19
690.432	0.19
690.755	0.19
691.077	0.19
691.399	0.18
691.721	0.18
692.043	0.17
692.365	0.17
692.687	0.17
693.009	0.17
693.331	0.16
693.653	0.16
693.974	0.16
694.296	0.16
694.618	0.16
694.939	0.15
695.261	0.15
695.582	0.15
695.904	0.15
696.225	0.15
696.546	0.15
696.868	0.15
697.189	0.15
697.51	0.14
697.831	0.14
698.152	0.14
698.473	0.14
698.794	0.13
699.114	0.13
699.435	0.11
699.756	0.11
700.077	0.12
700.397	0.12
700.718	0.12
701.038	0.12
701.359	0.12
701.679	0.12
701.999	0.13
702.32	0.12
702.64	0.12
702.96	0.12
703.28	0.12
703.6	0.12
703.92	0.12
704.24	0.11
704.56	0.11
704.879	0.11
705.199	0.11
705.519	0.11
705.838	0.11
706.158	0.11
706.478	0.1
706.797	0.11
707.116	0.11
707.436	0.11
707.755	0.11
708.074	0.11
708.393	0.1
708.712	0.1
709.031	0.08
709.35	0.08
709.669	0.08
709.988	0.08
710.307	0.08
710.626	0.09
710.944	0.09
711.263	0.09
711.582	0.1
711.9	0.1
712.219	0.09
712.537	0.1
712.855	0.1
713.174	0.09
713.492	0.09
713.81	0.1
714.128	0.1
714.446	0.1
714.764	0.09
715.082	0.09
715.4	0.09
715.718	0.09
716.035	0.09
716.353	0.09
716.671	0.09
716.988	0.09
717.306	0.09
717.623	0.09
717.941	0.1
718.258	0.1
718.575	0.1
718.893	0.1
719.21	0.1
719.527	0.1
719.844	0.1
720.161	0.11
720.478	0.1
720.795	0.11
721.112	0.11
721.428	0.11
721.745	0.11
722.062	0.11
722.378	0.12
722.695	0.11
723.011	0.11
723.328	0.11
723.644	0.11
723.96	0.11
724.276	0.11
724.593	0.11
724.909	0.12
725.225	0.11
725.541	0.12
725.857	0.12
726.173	0.12
726.488	0.12
726.804	0.12
727.12	0.12
727.435	0.12
727.751	0.12
728.067	0.11
728.382	0.12
728.697	0.11
729.013	0.12
729.328	0.11
729.643	0.12
729.958	0.12
730.273	0.12
730.588	0.11
730.903	0.12
731.218	0.12
731.533	0.12
731.848	0.11
732.163	0.12
732.477	0.11
732.792	0.11
733.107	0.1
733.421	0.11
733.736	0.11
734.05	0.11
734.364	0.11
734.678	0.11
734.993	0.11
735.307	0.12
735.621	0.11
735.935	0.11
736.249	0.11
736.563	0.11
736.877	0.12
737.19	0.12
737.504	0.12
737.818	0.12
738.131	0.11
738.445	0.12
738.758	0.11
739.072	0.11
739.385	0.11
739.698	0.11
740.012	0.11
740.325	0.11
740.638	0.11
740.951	0.11
741.264	0.11
741.577	0.11
741.89	0.11
742.203	0.11
742.515	0.11
742.828	0.11
743.141	0.11
743.453	0.11
743.766	0.11
744.078	0.11
744.391	0.11
744.703	0.1
745.015	0.1
745.327	0.1
745.639	0.1
745.952	0.1
746.264	0.1
746.575	0.1
746.887	0.1
747.199	0.1
747.511	0.1
747.823	0.1
748.134	0.09
748.446	0.09
748.757	0.09
749.069	0.09
749.38	0.09
749.692	0.09
750.003	0.09
750.314	0.09
750.625	0.09
750.936	0.08
751.248	0.08
751.559	0.08
751.869	0.08
752.18	0.07
752.491	0.07
752.802	0.07
753.112	0.07
753.423	0.07
753.734	0.08
754.044	0.08
754.355	0.08
754.665	0.07
754.975	0.07
755.285	0.07
755.596	0.07
755.906	0.07
756.216	0.06
756.526	0.07
756.836	0.06
757.146	0.06
757.455	0.06
757.765	0.06
758.075	0.06
758.385	0.06
758.694	0.06
759.004	0.06
759.313	0.05
759.622	0.05
759.932	0.05
760.241	0.05
760.55	0.05
760.859	0.05
761.168	0.05
761.477	0.04
761.786	0.04
762.095	0.04
762.404	0.04
762.713	0.04
763.021	0.04
763.33	0.04
763.639	0.04
763.947	0.04
764.256	0.04
764.564	0.04
764.872	0.04
765.181	0.04
765.489	0.04
765.797	0.04
766.105	0.04
766.413	0.03
766.721	0.03
767.029	0.03
767.337	0.03
767.644	0.03
767.952	0.03
768.26	0.03
768.567	0.04
768.875	0.04
769.182	0.04
769.49	0.04
769.797	0.04
770.104	0.04
770.411	0.04
770.718	0.04
771.026	0.04
771.333	0.04
771.639	0.04
771.946	0.04
772.253	0.04
772.56	0.03
772.867	0.03
773.173	0.03
773.48	0.03
773.786	0.03
774.093	0.03
774.399	0.03
774.705	0.03
775.012	0.02
775.318	0.02
775.624	0.02
775.93	0.02
776.236	0.02
776.542	0.03
776.848	0.03
777.154	0.02
777.459	0.03
777.765	0.03
778.071	0.03
778.376	0.03
778.682	0.03
778.987	0.03
779.292	0.03
779.598	0.03
779.903	0.03
780.208	0.03
780.513	0.03
780.818	0.03
781.123	0.03
781.428	0.03
781.733	0.03
782.038	0.03
782.343	0.03
782.647	0.03
782.952	0.03
783.256	0.03
783.561	0.03
783.865	0.03
784.17	0.03
784.474	0.03
784.778	0.03
785.082	0.03
785.386	0.03
785.69	0.03
785.994	0.03
786.298	0.03
786.602	0.03
786.906	0.03
787.209	0.03
787.513	0.03
787.817	0.03
788.12	0.03
788.424	0.03
788.727	0.03
789.03	0.03
789.333	0.03
789.637	0.03
789.94	0.03
790.243	0.03
790.546	0.03
790.849	0.03
791.152	0.03
791.454	0.03
791.757	0.03
792.06	0.03
792.362	0.03
792.665	0.03
792.967	0.03
793.27	0.03
793.572	0.03
793.874	0.03
794.177	0.03
794.479	0.03
794.781	0.03
795.083	0.02
795.385	0.02
795.687	0.02
795.989	0.03
796.29	0.03
796.592	0.03
796.894	0.04
797.195	0.04
797.497	0.04
797.798	0.04
798.1	0.04
798.401	0.04
798.702	0.04
799.003	0.03
799.304	0.04
799.605	0.04
799.906	0.04
800.207	0.04
800.508	0.03
800.809	0.04
801.11	0.03
801.41	0.03
801.711	0.03
802.011	0.03
802.312	0.03
802.612	0.02
802.913	0.02
803.213	0.03
803.513	0.02
803.813	0.03
804.113	0.03
804.413	0.03
804.713	0.03
805.013	0.03
805.313	0.03
805.613	0.03
805.912	0.03
806.212	0.04
806.511	0.03
806.811	0.03
807.11	0.03
807.41	0.03
807.709	0.04
808.008	0.03
808.307	0.04
808.606	0.04
808.905	0.03
809.204	0.03
809.503	0.04
809.802	0.03
810.101	0.03
810.399	0.03
810.698	0.03
810.997	0.04
811.295	0.04
811.593	0.03
811.892	0.03
812.19	0.03
812.488	0.04
812.786	0.04
813.084	0.04
813.383	0.04
813.68	0.04
813.978	0.04
814.276	0.05
814.574	0.04
814.872	0.04
815.169	0.04
815.467	0.04
815.764	0.04
816.062	0.04
816.359	0.04
816.656	0.04
816.954	0.04
817.251	0.04
817.548	0.05
817.845	0.05
818.142	0.05
818.439	0.05
818.735	0.05
819.032	0.04
819.329	0.04
819.626	0.04
819.922	0.04
820.219	0.05
820.515	0.04
820.811	0.05
821.108	0.05
821.404	0.04
821.7	0.04
821.996	0.04
822.292	0.04
822.588	0.03
822.884	0.04
823.18	0.04
823.475	0.04
823.771	0.04
824.067	0.04
824.362	0.05
824.658	0.05
824.953	0.05
825.249	0.05
825.544	0.04
825.839	0.05
826.134	0.04
826.429	0.05
826.724	0.05
827.019	0.05
827.314	0.05
827.609	0.04
827.904	0.03
828.198	0.04
828.493	0.04
828.787	0.04
829.082	0.04
829.376	0.03
829.671	0.04
829.965	0.04
830.259	0.05
830.553	0.05
830.847	0.05
831.141	0.05
831.435	0.05
831.729	0.05
832.023	0.05
832.317	0.05
832.61	0.05
832.904	0.06
833.197	0.05
833.491	0.06
833.784	0.06
834.077	0.05
834.371	0.06
834.664	0.05
834.957	0.05
835.25	0.05
835.543	0.06
835.836	0.05
836.129	0.05
836.421	0.05
836.714	0.05
837.007	0.05
837.299	0.05
837.592	0.05
837.884	0.05
838.177	0.05
838.469	0.05
838.761	0.05
839.053	0.06
839.345	0.06
839.637	0.05
839.929	0.05
840.221	0.06
840.513	0.06
840.805	0.06
841.096	0.06
841.388	0.06
841.68	0.06
841.971	0.06
842.262	0.07
842.554	0.06
842.845	0.05
843.136	0.06
843.427	0.06
843.718	0.06
844.009	0.06
844.3	0.06
844.591	0.05
844.882	0.06
845.173	0.05
845.463	0.05
845.754	0.06
846.044	0.05
846.335	0.05
846.625	0.06
846.915	0.06
847.206	0.06
847.496	0.08
847.786	0.06
848.076	0.06
848.366	0.06
848.656	0.05
848.945	0.06
849.235	0.07
849.525	0.06
849.814	0.05
850.104	0.05
850.393	0.04
850.683	0.05
850.972	0.05
851.261	0.05
851.551	0.06
851.84	0.06
852.129	0.06
852.418	0.06
852.707	0.07
852.995	0.06
853.284	0.06
853.573	0.06
853.862	0.06
854.15	0.06
854.439	0.06
854.727	0.06
855.015	0.05
855.304	0.07
855.592	0.05
855.88	0.05
856.168	0.05
856.456	0.06
856.744	0.06
857.032	0.06
857.32	0.06
857.607	0.06
857.895	0.05
858.183	0.06
858.47	0.05
858.757	0.05
859.045	0.05
859.332	0.06
859.619	0.06
859.907	0.05
860.194	0.05
860.481	0.06
860.768	0.08
861.054	0.07
861.341	0.06
861.628	0.06
861.915	0.05
862.201	0.05
862.488	0.06
862.774	0.05
863.061	0.05
863.347	0.05
863.633	0.04
863.919	0.04
864.205	0.05
864.491	0.03
864.777	0.03
865.063	0.04
865.349	0.05
865.635	0.07
865.92	0.05
866.206	0.05
866.492	0.05
866.777	0.06
867.062	0.06
867.348	0.07
867.633	0.04
867.918	0.04
868.203	0.05
868.488	0.06
868.773	0.04
869.058	0.06
869.343	0.03
869.628	0.04
869.912	0.02
870.197	0.05
870.482	0.04
870.766	0.04
871.05	0.04
871.335	0.04
871.619	0.05
871.903	0
872.187	0.06
872.471	0.05
872.755	0.02
873.039	0.04
873.323	0.05
873.607	0.03
873.89	0.01
874.174	-0.01
874.458	-0.01
874.741	0.04
875.024	0.03
875.308	0.01
875.591	-0.02
875.874	0.02
876.157	0.04
876.44	0.01
876.723	-0.01
877.006	-0.01
877.289	0.03
877.572	0.01
877.854	-0.01
878.137	-0.02
878.42	0.01
878.702	0.05
878.984	-0.05
879.267	0.02
879.549	0.07
879.831	0.08
880.113	0.04
880.395	0.07
880.677	0.01
880.959	-0.03
