Data from Rubpy_EV_1800_EDTA_Buffered_Absorbance_15-24-41-756.txt Node
Date: Tue Jun 30 15:24:41 BST 2026
User: fpm-admin
Spectrometer: OFX00224
Trigger mode: 0
Integration Time (sec): 7.000000E-2
Scans to average: 3
Nonlinearity correction enabled: false
Boxcar width: 0
Storing dark spectrum: false
XAxis mode: Wavelengths
Number of Pixels in Spectrum: 2136
>>>>>Begin Spectral Data<<<<<
154.91	-0.21
155.289	-0.3
155.669	-0.55
156.048	-0
156.428	0.07
156.807	-0
157.186	-0
157.566	0.41
157.945	-0
158.325	-0.05
158.704	-0.72
159.083	-0
159.462	-0
159.842	-0
160.221	1.05
160.6	-0
160.979	-0.36
161.359	-0
161.738	0.15
162.117	-0.12
162.496	0.32
162.875	0.09
163.254	-0
163.633	0.04
164.012	-0
164.391	0.65
164.77	-0.14
165.149	0.64
165.528	-0
165.907	-0.78
166.286	0.17
166.665	-0.09
167.044	-0
167.423	-0
167.802	-0
168.181	0.33
168.559	-0
168.938	-0.1
169.317	-0.36
169.696	1.36
170.074	-0.2
170.453	-0
170.832	0.24
171.21	-0.21
171.589	-0.06
171.968	-0
172.346	-0.12
172.725	0.92
173.103	1.14
173.482	0.18
173.861	-0
174.239	0.95
174.617	0.14
174.996	-0.06
175.374	-0
175.753	-0
176.131	-0
176.51	-0.09
176.888	-0
177.266	-0
177.645	-0.33
178.023	1.66
178.401	-0.23
178.779	-0
179.158	-0.02
179.536	0.12
179.914	0.44
180.292	-0.44
180.67	-0.11
181.048	-0
181.427	0.04
181.805	0.26
182.183	-0.03
182.561	-0.18
182.939	-0.23
183.317	-0.48
183.695	-0
184.073	-0.08
184.451	0.56
184.829	-0.21
185.206	-0
185.584	-0.04
185.962	-0
186.34	-0.05
186.718	-0
187.096	0.21
187.473	-0
187.851	-0.46
188.229	0.47
188.607	0.16
188.984	0.09
189.362	0.09
189.74	0.15
190.117	0.26
190.495	0.14
190.872	-0.07
191.25	0.01
191.627	0.07
192.005	-0.03
192.382	0.09
192.76	0.07
193.137	0.15
193.515	0.09
193.892	0.14
194.269	0.16
194.647	0.14
195.024	0.07
195.401	0.14
195.779	0.03
196.156	0.02
196.533	0.05
196.91	0.2
197.288	0.2
197.665	0.25
198.042	0.31
198.419	0.18
198.796	0.15
199.173	0.17
199.55	0.12
199.927	0.1
200.304	0.15
200.681	0.2
201.058	0.09
201.435	0.21
201.812	0.23
202.189	0.14
202.566	0.18
202.943	0.16
203.32	0.17
203.697	0.07
204.073	0.1
204.45	0.15
204.827	0.28
205.204	0.16
205.58	0.08
205.957	0.1
206.334	0.11
206.71	0.09
207.087	0.13
207.464	0.15
207.84	0.12
208.217	0.16
208.593	0.14
208.97	0.05
209.346	0.12
209.723	0.02
210.099	0.14
210.476	0.18
210.852	0.09
211.228	0.13
211.605	0.13
211.981	0.12
212.357	0.13
212.733	0.19
213.11	0.15
213.486	0.19
213.862	0.16
214.238	0.19
214.614	0.18
214.991	0.07
215.367	0.05
215.743	0.19
216.119	0.07
216.495	0.17
216.871	0.12
217.247	0.2
217.623	0.1
217.999	0.25
218.375	0.16
218.751	0.12
219.127	0.15
219.502	0.13
219.878	0.16
220.254	0.24
220.63	0.13
221.006	0.25
221.381	0.13
221.757	0.1
222.133	0.13
222.508	0.2
222.884	0.11
223.26	0.14
223.635	0.17
224.011	0.15
224.386	0.12
224.762	0.13
225.137	0.12
225.513	0.07
225.888	0.25
226.264	0.09
226.639	0.13
227.014	0.19
227.39	0.11
227.765	0.2
228.14	0.14
228.516	0.17
228.891	0.24
229.266	0.09
229.641	0.13
230.017	0.17
230.392	0.15
230.767	0.21
231.142	0.08
231.517	0.17
231.892	0.16
232.267	0.15
232.642	0.12
233.017	0.2
233.392	0.15
233.767	0.15
234.142	0.14
234.517	0.13
234.892	0.13
235.267	0.16
235.641	0.1
236.016	0.16
236.391	0.11
236.766	0.17
237.14	0.1
237.515	0.09
237.89	0.18
238.264	0.18
238.639	0.11
239.014	0.17
239.388	0.08
239.763	0.13
240.137	0.15
240.512	0.16
240.886	0.15
241.261	0.17
241.635	0.19
242.009	0.06
242.384	0.11
242.758	0.28
243.132	0.22
243.507	0.1
243.881	0.11
244.255	0.14
244.629	0.21
245.004	0.16
245.378	0.09
245.752	0.11
246.126	0.12
246.5	0.19
246.874	0.11
247.248	0.1
247.622	0.13
247.996	0.17
248.37	0.17
248.744	0.16
249.118	0.2
249.492	0.07
249.866	0.13
250.24	0.13
250.613	0.11
250.987	0.12
251.361	0.22
251.735	0.14
252.108	0.05
252.482	0.17
252.856	0.08
253.229	0.14
253.603	0.09
253.977	0.12
254.35	0.18
254.724	0.05
255.097	0.08
255.471	0.12
255.844	0.22
256.218	0.22
256.591	0.05
256.964	0.17
257.338	0.05
257.711	0.14
258.084	0.2
258.458	0.19
258.831	0.19
259.204	0.09
259.577	0.12
259.95	0.23
260.323	0.1
260.697	0.16
261.07	0.18
261.443	0.16
261.816	0.19
262.189	0.24
262.562	0.16
262.935	0.11
263.308	0.13
263.68	0.16
264.053	0.11
264.426	0.12
264.799	0.18
265.172	0.24
265.545	0.17
265.917	0.22
266.29	0.2
266.663	0.18
267.035	0.18
267.408	0.24
267.781	0.14
268.153	0.27
268.526	0.19
268.898	0.12
269.271	0.19
269.643	0.13
270.016	0.1
270.388	0.11
270.76	0.2
271.133	0.15
271.505	0.25
271.877	0.18
272.25	0.12
272.622	0.13
272.994	0.14
273.366	0.14
273.739	0.15
274.111	0.16
274.483	0.1
274.855	0.19
275.227	0.16
275.599	0.19
275.971	0.15
276.343	0.15
276.715	0.16
277.087	0.14
277.459	0.14
277.831	0.17
278.203	0.2
278.574	0.18
278.946	0.18
279.318	0.15
279.69	0.1
280.061	0.17
280.433	0.2
280.805	0.07
281.176	0.2
281.548	0.15
281.92	0.12
282.291	0.17
282.663	0.15
283.034	0.13
283.406	0.18
283.777	0.14
284.148	0.14
284.52	0.16
284.891	0.1
285.262	0.16
285.634	0.18
286.005	0.12
286.376	0.12
286.747	0.18
287.119	0.12
287.49	0.14
287.861	0.14
288.232	0.15
288.603	0.11
288.974	0.11
289.345	0.09
289.716	0.17
290.087	0.15
290.458	0.17
290.829	0.16
291.2	0.12
291.571	0.14
291.941	0.15
292.312	0.12
292.683	0.15
293.054	0.18
293.424	0.12
293.795	0.18
294.166	0.18
294.536	0.18
294.907	0.15
295.277	0.18
295.648	0.12
296.018	0.13
296.389	0.13
296.759	0.16
297.13	0.1
297.5	0.18
297.871	0.17
298.241	0.15
298.611	0.16
298.981	0.13
299.352	0.2
299.722	0.16
300.092	0.12
300.462	0.2
300.832	0.13
301.202	0.15
301.573	0.1
301.943	0.11
302.313	0.13
302.683	0.16
303.053	0.14
303.422	0.13
303.792	0.12
304.162	0.13
304.532	0.14
304.902	0.12
305.272	0.14
305.641	0.14
306.011	0.13
306.381	0.13
306.75	0.13
307.12	0.13
307.49	0.14
307.859	0.15
308.229	0.13
308.598	0.12
308.968	0.13
309.337	0.14
309.707	0.14
310.076	0.14
310.445	0.14
310.815	0.14
311.184	0.15
311.553	0.16
311.923	0.15
312.292	0.15
312.661	0.15
313.03	0.14
313.399	0.14
313.768	0.16
314.137	0.15
314.506	0.15
314.875	0.15
315.244	0.15
315.613	0.14
315.982	0.15
316.351	0.15
316.72	0.14
317.089	0.15
317.458	0.14
317.826	0.15
318.195	0.14
318.564	0.14
318.933	0.14
319.301	0.14
319.67	0.14
320.038	0.14
320.407	0.13
320.775	0.14
321.144	0.14
321.512	0.13
321.881	0.13
322.249	0.14
322.618	0.14
322.986	0.13
323.354	0.13
323.723	0.13
324.091	0.13
324.459	0.13
324.827	0.13
325.195	0.13
325.564	0.12
325.932	0.12
326.3	0.13
326.668	0.13
327.036	0.12
327.404	0.12
327.772	0.12
328.14	0.12
328.508	0.12
328.875	0.12
329.243	0.12
329.611	0.12
329.979	0.12
330.346	0.12
330.714	0.12
331.082	0.12
331.449	0.13
331.817	0.13
332.185	0.13
332.552	0.13
332.92	0.13
333.287	0.13
333.655	0.13
334.022	0.13
334.389	0.13
334.757	0.14
335.124	0.14
335.491	0.14
335.859	0.14
336.226	0.14
336.593	0.14
336.96	0.15
337.327	0.15
337.695	0.15
338.062	0.15
338.429	0.15
338.796	0.16
339.163	0.15
339.53	0.16
339.897	0.16
340.263	0.16
340.63	0.17
340.997	0.17
341.364	0.17
341.731	0.18
342.097	0.18
342.464	0.18
342.831	0.18
343.197	0.19
343.564	0.19
343.931	0.19
344.297	0.2
344.664	0.2
345.03	0.21
345.396	0.2
345.763	0.21
346.129	0.21
346.496	0.21
346.862	0.22
347.228	0.21
347.594	0.22
347.961	0.23
348.327	0.23
348.693	0.24
349.059	0.24
349.425	0.24
349.791	0.24
350.157	0.25
350.523	0.25
350.889	0.26
351.255	0.26
351.621	0.27
351.987	0.27
352.353	0.28
352.719	0.28
353.084	0.29
353.45	0.29
353.816	0.31
354.181	0.31
354.547	0.31
354.913	0.32
355.278	0.33
355.644	0.33
356.009	0.34
356.375	0.35
356.74	0.35
357.106	0.36
357.471	0.37
357.836	0.38
358.202	0.38
358.567	0.39
358.932	0.39
359.297	0.41
359.663	0.41
360.028	0.41
360.393	0.42
360.758	0.43
361.123	0.43
361.488	0.44
361.853	0.44
362.218	0.45
362.583	0.45
362.948	0.46
363.312	0.46
363.677	0.47
364.042	0.48
364.407	0.48
364.772	0.49
365.136	0.5
365.501	0.51
365.865	0.53
366.23	0.54
366.595	0.55
366.959	0.56
367.324	0.56
367.688	0.57
368.052	0.59
368.417	0.59
368.781	0.6
369.145	0.61
369.51	0.61
369.874	0.62
370.238	0.62
370.602	0.61
370.967	0.61
371.331	0.61
371.695	0.61
372.059	0.61
372.423	0.6
372.787	0.6
373.151	0.6
373.515	0.6
373.878	0.6
374.242	0.59
374.606	0.6
374.97	0.59
375.334	0.59
375.697	0.6
376.061	0.61
376.425	0.61
376.788	0.61
377.152	0.61
377.515	0.62
377.879	0.62
378.242	0.63
378.606	0.63
378.969	0.65
379.333	0.65
379.696	0.67
380.059	0.67
380.422	0.68
380.786	0.69
381.149	0.7
381.512	0.72
381.875	0.73
382.238	0.75
382.601	0.77
382.964	0.78
383.327	0.8
383.69	0.83
384.053	0.84
384.416	0.87
384.779	0.9
385.142	0.91
385.504	0.92
385.867	0.94
386.23	0.95
386.593	0.95
386.955	0.96
387.318	0.96
387.68	0.95
388.043	0.95
388.405	0.94
388.768	0.93
389.13	0.93
389.493	0.92
389.855	0.91
390.217	0.91
390.58	0.91
390.942	0.91
391.304	0.92
391.666	0.93
392.028	0.93
392.391	0.97
392.753	0.98
393.115	1.02
393.477	1.05
393.839	1.09
394.201	1.13
394.563	1.18
394.924	1.22
395.286	1.26
395.648	1.32
396.01	1.34
396.371	1.36
396.733	1.39
397.095	1.42
397.456	1.44
397.818	1.42
398.18	1.41
398.541	1.4
398.903	1.38
399.264	1.34
399.625	1.29
399.987	1.26
400.348	1.2
400.709	1.15
401.071	1.09
401.432	1.03
401.793	0.97
402.154	0.9
402.515	0.84
402.876	0.79
403.238	0.73
403.599	0.68
403.96	0.63
404.32	0.58
404.681	0.54
405.042	0.51
405.403	0.47
405.764	0.44
406.125	0.41
406.485	0.38
406.846	0.36
407.207	0.33
407.567	0.31
407.928	0.29
408.288	0.28
408.649	0.26
409.009	0.24
409.37	0.23
409.73	0.22
410.091	0.21
410.451	0.2
410.811	0.2
411.171	0.19
411.532	0.18
411.892	0.16
412.252	0.16
412.612	0.15
412.972	0.15
413.332	0.14
413.692	0.14
414.052	0.14
414.412	0.13
414.772	0.13
415.132	0.12
415.492	0.12
415.851	0.11
416.211	0.11
416.571	0.11
416.931	0.1
417.29	0.11
417.65	0.1
418.009	0.1
418.369	0.1
418.728	0.1
419.088	0.1
419.447	0.09
419.807	0.08
420.166	0.09
420.525	0.09
420.884	0.08
421.244	0.08
421.603	0.08
421.962	0.09
422.321	0.08
422.68	0.08
423.039	0.08
423.398	0.08
423.757	0.08
424.116	0.07
424.475	0.07
424.834	0.07
425.193	0.07
425.551	0.07
425.91	0.07
426.269	0.07
426.628	0.07
426.986	0.07
427.345	0.07
427.703	0.06
428.062	0.06
428.42	0.06
428.779	0.06
429.137	0.07
429.496	0.05
429.854	0.06
430.212	0.06
430.57	0.07
430.929	0.05
431.287	0.06
431.645	0.05
432.003	0.06
432.361	0.06
432.719	0.05
433.077	0.06
433.435	0.06
433.793	0.06
434.151	0.06
434.509	0.05
434.866	0.05
435.224	0.05
435.582	0.05
435.94	0.05
436.297	0.05
436.655	0.05
437.012	0.05
437.37	0.05
437.727	0.06
438.085	0.05
438.442	0.05
438.8	0.05
439.157	0.04
439.514	0.05
439.872	0.05
440.229	0.05
440.586	0.05
440.943	0.05
441.3	0.04
441.657	0.05
442.014	0.05
442.371	0.04
442.728	0.05
443.085	0.04
443.442	0.04
443.799	0.04
444.156	0.04
444.513	0.04
444.869	0.04
445.226	0.04
445.583	0.03
445.939	0.03
446.296	0.04
446.652	0.04
447.009	0.03
447.365	0.03
447.722	0.04
448.078	0.04
448.434	0.03
448.791	0.03
449.147	0.03
449.503	0.04
449.859	0.03
450.215	0.03
450.571	0.03
450.928	0.03
451.284	0.03
451.64	0.03
451.995	0.03
452.351	0.02
452.707	0.02
453.063	0.03
453.419	0.02
453.775	0.02
454.13	0.02
454.486	0.03
454.842	0.02
455.197	0.02
455.553	0.01
455.908	0.02
456.264	0.01
456.619	0
456.975	0.01
457.33	0.01
457.685	0.01
458.04	-0
458.396	0.01
458.751	0
459.106	-0.01
459.461	-0
459.816	-0
460.171	-0.01
460.526	-0
460.881	-0.02
461.236	-0.01
461.591	-0.01
461.946	-0.02
462.301	-0.02
462.655	-0.03
463.01	-0.02
463.365	-0.02
463.719	-0.03
464.074	-0.04
464.428	-0.04
464.783	-0.04
465.137	-0.03
465.492	-0.04
465.846	-0.04
466.201	-0.04
466.555	-0.04
466.909	-0.04
467.263	-0.04
467.618	-0.03
467.972	-0.03
468.326	-0.04
468.68	-0.04
469.034	-0.05
469.388	-0.04
469.742	-0.04
470.096	-0.04
470.45	-0.05
470.804	-0.04
471.157	-0.04
471.511	-0.05
471.865	-0.03
472.218	-0.04
472.572	-0.04
472.926	-0.03
473.279	-0.03
473.633	-0.03
473.986	-0.03
474.34	-0.02
474.693	-0.02
475.046	-0.02
475.4	-0.01
475.753	-0.01
476.106	-0.01
476.459	-0
476.812	0
477.165	0
477.519	0.01
477.872	0.01
478.224	0.01
478.577	0.01
478.93	0.02
479.283	0.01
479.636	0.02
479.989	0.02
480.341	0.02
480.694	0.03
481.047	0.03
481.399	0.03
481.752	0.03
482.104	0.03
482.457	0.03
482.809	0.04
483.162	0.04
483.514	0.04
483.866	0.04
484.219	0.05
484.571	0.05
484.923	0.04
485.275	0.05
485.627	0.05
485.979	0.05
486.331	0.05
486.683	0.05
487.035	0.05
487.387	0.06
487.739	0.06
488.091	0.06
488.443	0.06
488.794	0.06
489.146	0.06
489.498	0.06
489.849	0.06
490.201	0.06
490.552	0.07
490.904	0.07
491.255	0.07
491.607	0.07
491.958	0.07
492.309	0.07
492.661	0.07
493.012	0.07
493.363	0.07
493.714	0.07
494.065	0.07
494.416	0.07
494.767	0.07
495.118	0.08
495.469	0.08
495.82	0.08
496.171	0.09
496.522	0.09
496.872	0.09
497.223	0.09
497.574	0.09
497.924	0.1
498.275	0.09
498.626	0.1
498.976	0.1
499.327	0.1
499.677	0.1
500.027	0.1
500.378	0.1
500.728	0.1
501.078	0.1
501.428	0.1
501.779	0.1
502.129	0.11
502.479	0.11
502.829	0.11
503.179	0.1
503.529	0.11
503.879	0.11
504.229	0.11
504.578	0.11
504.928	0.11
505.278	0.11
505.628	0.12
505.977	0.12
506.327	0.12
506.676	0.12
507.026	0.12
507.375	0.13
507.725	0.13
508.074	0.13
508.424	0.13
508.773	0.13
509.122	0.13
509.471	0.13
509.82	0.13
510.17	0.13
510.519	0.14
510.868	0.14
511.217	0.14
511.566	0.14
511.915	0.14
512.263	0.14
512.612	0.14
512.961	0.14
513.31	0.15
513.659	0.15
514.007	0.15
514.356	0.14
514.704	0.15
515.053	0.15
515.401	0.15
515.75	0.16
516.098	0.15
516.447	0.16
516.795	0.16
517.143	0.16
517.491	0.16
517.839	0.16
518.188	0.17
518.536	0.17
518.884	0.16
519.232	0.17
519.58	0.17
519.928	0.17
520.275	0.17
520.623	0.17
520.971	0.18
521.319	0.18
521.666	0.18
522.014	0.18
522.362	0.18
522.709	0.18
523.057	0.18
523.404	0.18
523.752	0.18
524.099	0.19
524.446	0.19
524.794	0.19
525.141	0.19
525.488	0.19
525.835	0.19
526.182	0.19
526.529	0.2
526.876	0.2
527.223	0.2
527.57	0.2
527.917	0.2
528.264	0.2
528.611	0.2
528.958	0.2
529.304	0.21
529.651	0.21
529.998	0.21
530.344	0.21
530.691	0.21
531.037	0.21
531.384	0.22
531.73	0.22
532.076	0.23
532.423	0.22
532.769	0.22
533.115	0.22
533.461	0.22
533.807	0.23
534.154	0.23
534.5	0.23
534.846	0.23
535.192	0.24
535.537	0.23
535.883	0.24
536.229	0.24
536.575	0.24
536.921	0.24
537.266	0.25
537.612	0.25
537.957	0.25
538.303	0.25
538.649	0.25
538.994	0.25
539.339	0.26
539.685	0.26
540.03	0.26
540.375	0.26
540.721	0.26
541.066	0.26
541.411	0.27
541.756	0.27
542.101	0.27
542.446	0.27
542.791	0.27
543.136	0.27
543.481	0.28
543.825	0.28
544.17	0.28
544.515	0.28
544.86	0.29
545.204	0.29
545.549	0.29
545.893	0.29
546.238	0.29
546.582	0.29
546.927	0.3
547.271	0.3
547.615	0.3
547.96	0.3
548.304	0.3
548.648	0.31
548.992	0.31
549.336	0.31
549.68	0.31
550.024	0.31
550.368	0.32
550.712	0.31
551.056	0.32
551.4	0.32
551.743	0.32
552.087	0.32
552.431	0.32
552.774	0.32
553.118	0.33
553.462	0.32
553.805	0.33
554.148	0.33
554.492	0.33
554.835	0.34
555.178	0.34
555.522	0.34
555.865	0.34
556.208	0.34
556.551	0.34
556.894	0.34
557.237	0.34
557.58	0.34
557.923	0.34
558.266	0.34
558.609	0.35
558.952	0.34
559.294	0.35
559.637	0.34
559.98	0.34
560.322	0.35
560.665	0.35
561.007	0.35
561.35	0.35
561.692	0.35
562.034	0.35
562.377	0.36
562.719	0.35
563.061	0.35
563.403	0.36
563.745	0.36
564.088	0.35
564.43	0.36
564.772	0.36
565.113	0.36
565.455	0.36
565.797	0.36
566.139	0.36
566.481	0.37
566.822	0.37
567.164	0.37
567.506	0.37
567.847	0.37
568.189	0.37
568.53	0.37
568.872	0.37
569.213	0.37
569.554	0.37
569.895	0.37
570.237	0.37
570.578	0.37
570.919	0.37
571.26	0.37
571.601	0.37
571.942	0.37
572.283	0.37
572.624	0.37
572.965	0.36
573.306	0.37
573.646	0.36
573.987	0.36
574.328	0.36
574.668	0.37
575.009	0.37
575.349	0.37
575.69	0.36
576.03	0.36
576.37	0.36
576.711	0.36
577.051	0.36
577.391	0.36
577.731	0.36
578.072	0.36
578.412	0.36
578.752	0.37
579.092	0.36
579.431	0.35
579.771	0.33
580.111	0.32
580.451	0.32
580.791	0.35
581.13	0.36
581.47	0.37
581.81	0.37
582.149	0.36
582.489	0.37
582.828	0.36
583.167	0.34
583.507	0.3
583.846	0.28
584.185	0.29
584.525	0.32
584.864	0.35
585.203	0.37
585.542	0.38
585.881	0.38
586.22	0.38
586.559	0.38
586.898	0.36
587.236	0.36
587.575	0.35
587.914	0.35
588.252	0.37
588.591	0.38
588.93	0.39
589.268	0.39
589.607	0.39
589.945	0.39
590.283	0.39
590.622	0.39
590.96	0.4
591.298	0.4
591.636	0.4
591.974	0.41
592.313	0.41
592.651	0.42
592.989	0.42
593.326	0.42
593.664	0.42
594.002	0.42
594.34	0.42
594.678	0.42
595.015	0.41
595.353	0.4
595.691	0.4
596.028	0.42
596.366	0.42
596.703	0.43
597.04	0.44
597.378	0.44
597.715	0.44
598.052	0.44
598.389	0.45
598.726	0.45
599.064	0.45
599.401	0.45
599.738	0.45
600.074	0.45
600.411	0.45
600.748	0.44
601.085	0.44
601.422	0.43
601.758	0.44
602.095	0.44
602.432	0.44
602.768	0.44
603.105	0.45
603.441	0.45
603.777	0.45
604.114	0.46
604.45	0.46
604.786	0.45
605.122	0.45
605.459	0.45
605.795	0.45
606.131	0.45
606.467	0.45
606.803	0.45
607.139	0.45
607.474	0.45
607.81	0.44
608.146	0.45
608.482	0.45
608.817	0.44
609.153	0.44
609.488	0.44
609.824	0.44
610.159	0.44
610.495	0.44
610.83	0.44
611.165	0.44
611.5	0.44
611.836	0.44
612.171	0.44
612.506	0.44
612.841	0.44
613.176	0.44
613.511	0.44
613.845	0.44
614.18	0.43
614.515	0.44
614.85	0.43
615.184	0.43
615.519	0.43
615.854	0.43
616.188	0.43
616.523	0.42
616.857	0.42
617.191	0.42
617.526	0.42
617.86	0.42
618.194	0.42
618.528	0.42
618.862	0.42
619.196	0.42
619.53	0.42
619.864	0.42
620.198	0.42
620.532	0.41
620.866	0.41
621.2	0.42
621.533	0.41
621.867	0.41
622.201	0.41
622.534	0.41
622.868	0.41
623.201	0.41
623.534	0.41
623.868	0.4
624.201	0.4
624.534	0.4
624.868	0.4
625.201	0.4
625.534	0.39
625.867	0.39
626.2	0.39
626.533	0.39
626.865	0.39
627.198	0.38
627.531	0.38
627.864	0.38
628.196	0.38
628.529	0.38
628.862	0.38
629.194	0.37
629.527	0.37
629.859	0.37
630.191	0.37
630.524	0.36
630.856	0.36
631.188	0.36
631.52	0.36
631.852	0.35
632.184	0.36
632.516	0.35
632.848	0.35
633.18	0.35
633.512	0.35
633.844	0.34
634.175	0.34
634.507	0.34
634.839	0.33
635.17	0.33
635.502	0.33
635.833	0.32
636.165	0.32
636.496	0.32
636.827	0.31
637.159	0.31
637.49	0.31
637.821	0.31
638.152	0.31
638.483	0.31
638.814	0.3
639.145	0.3
639.476	0.3
639.807	0.29
640.137	0.29
640.468	0.29
640.799	0.29
641.129	0.28
641.46	0.28
641.791	0.28
642.121	0.28
642.451	0.28
642.782	0.28
643.112	0.28
643.442	0.27
643.773	0.27
644.103	0.27
644.433	0.27
644.763	0.26
645.093	0.26
645.423	0.26
645.753	0.26
646.082	0.26
646.412	0.26
646.742	0.26
647.072	0.25
647.401	0.25
647.731	0.25
648.06	0.25
648.39	0.25
648.719	0.25
649.048	0.25
649.378	0.25
649.707	0.24
650.036	0.24
650.365	0.24
650.694	0.24
651.023	0.24
651.352	0.24
651.681	0.24
652.01	0.24
652.339	0.24
652.668	0.24
652.996	0.24
653.325	0.24
653.654	0.24
653.982	0.24
654.311	0.24
654.639	0.24
654.967	0.24
655.296	0.24
655.624	0.24
655.952	0.24
656.28	0.24
656.609	0.23
656.937	0.24
657.265	0.23
657.593	0.18
657.92	0.05
658.248	0.01
658.576	0
658.904	0.05
659.231	0.13
659.559	0.2
659.887	0.23
660.214	0.24
660.542	0.24
660.869	0.24
661.196	0.24
661.524	0.24
661.851	0.24
662.178	0.24
662.505	0.24
662.832	0.24
663.159	0.24
663.486	0.23
663.813	0.24
664.14	0.23
664.467	0.23
664.794	0.23
665.12	0.23
665.447	0.23
665.774	0.23
666.1	0.23
666.427	0.23
666.753	0.22
667.079	0.22
667.406	0.22
667.732	0.22
668.058	0.22
668.384	0.22
668.71	0.22
669.036	0.22
669.362	0.22
669.688	0.22
670.014	0.22
670.34	0.22
670.666	0.22
670.991	0.22
671.317	0.22
671.643	0.22
671.968	0.22
672.294	0.22
672.619	0.22
672.945	0.21
673.27	0.22
673.595	0.21
673.92	0.21
674.246	0.21
674.571	0.2
674.896	0.2
675.221	0.2
675.546	0.21
675.87	0.21
676.195	0.2
676.52	0.2
676.845	0.2
677.169	0.2
677.494	0.2
677.819	0.19
678.143	0.19
678.468	0.19
678.792	0.19
679.116	0.19
679.44	0.19
679.765	0.18
680.089	0.18
680.413	0.18
680.737	0.17
681.061	0.17
681.385	0.17
681.709	0.17
682.033	0.17
682.356	0.17
682.68	0.17
683.004	0.17
683.327	0.16
683.651	0.16
683.974	0.16
684.298	0.16
684.621	0.16
684.944	0.15
685.268	0.15
685.591	0.15
685.914	0.15
686.237	0.14
686.56	0.14
686.883	0.13
687.206	0.13
687.529	0.13
687.852	0.13
688.175	0.13
688.497	0.13
688.82	0.13
689.142	0.13
689.465	0.13
689.787	0.13
690.11	0.13
690.432	0.13
690.755	0.13
691.077	0.13
691.399	0.12
691.721	0.12
692.043	0.12
692.365	0.12
692.687	0.11
693.009	0.11
693.331	0.11
693.653	0.1
693.974	0.11
694.296	0.1
694.618	0.1
694.939	0.1
695.261	0.1
695.582	0.1
695.904	0.1
696.225	0.1
696.546	0.1
696.868	0.1
697.189	0.1
697.51	0.1
697.831	0.09
698.152	0.09
698.473	0.09
698.794	0.08
699.114	0.08
699.435	0.07
699.756	0.07
700.077	0.07
700.397	0.08
700.718	0.08
701.038	0.08
701.359	0.08
701.679	0.08
701.999	0.08
702.32	0.08
702.64	0.08
702.96	0.08
703.28	0.08
703.6	0.08
703.92	0.07
704.24	0.07
704.56	0.07
704.879	0.07
705.199	0.07
705.519	0.07
705.838	0.07
706.158	0.07
706.478	0.07
706.797	0.07
707.116	0.07
707.436	0.07
707.755	0.07
708.074	0.07
708.393	0.07
708.712	0.06
709.031	0.05
709.35	0.04
709.669	0.04
709.988	0.04
710.307	0.05
710.626	0.05
710.944	0.06
711.263	0.06
711.582	0.06
711.9	0.07
712.219	0.06
712.537	0.06
712.855	0.06
713.174	0.06
713.492	0.06
713.81	0.06
714.128	0.06
714.446	0.06
714.764	0.06
715.082	0.05
715.4	0.06
715.718	0.06
716.035	0.05
716.353	0.06
716.671	0.06
716.988	0.06
717.306	0.05
717.623	0.06
717.941	0.06
718.258	0.06
718.575	0.07
718.893	0.07
719.21	0.07
719.527	0.07
719.844	0.07
720.161	0.07
720.478	0.07
720.795	0.07
721.112	0.07
721.428	0.07
721.745	0.07
722.062	0.07
722.378	0.08
722.695	0.08
723.011	0.08
723.328	0.07
723.644	0.08
723.96	0.08
724.276	0.08
724.593	0.08
724.909	0.08
725.225	0.07
725.541	0.08
725.857	0.08
726.173	0.08
726.488	0.08
726.804	0.08
727.12	0.08
727.435	0.08
727.751	0.08
728.067	0.08
728.382	0.08
728.697	0.07
729.013	0.08
729.328	0.07
729.643	0.07
729.958	0.07
730.273	0.07
730.588	0.07
730.903	0.08
731.218	0.08
731.533	0.08
731.848	0.07
732.163	0.08
732.477	0.08
732.792	0.07
733.107	0.07
733.421	0.07
733.736	0.07
734.05	0.08
734.364	0.07
734.678	0.07
734.993	0.07
735.307	0.07
735.621	0.07
735.935	0.07
736.249	0.07
736.563	0.07
736.877	0.08
737.19	0.08
737.504	0.08
737.818	0.08
738.131	0.08
738.445	0.08
738.758	0.08
739.072	0.07
739.385	0.07
739.698	0.07
740.012	0.08
740.325	0.07
740.638	0.07
740.951	0.07
741.264	0.07
741.577	0.07
741.89	0.07
742.203	0.07
742.515	0.07
742.828	0.07
743.141	0.07
743.453	0.07
743.766	0.07
744.078	0.07
744.391	0.07
744.703	0.07
745.015	0.07
745.327	0.07
745.639	0.07
745.952	0.07
746.264	0.06
746.575	0.06
746.887	0.06
747.199	0.06
747.511	0.06
747.823	0.06
748.134	0.06
748.446	0.06
748.757	0.06
749.069	0.06
749.38	0.06
749.692	0.06
750.003	0.06
750.314	0.06
750.625	0.06
750.936	0.06
751.248	0.06
751.559	0.06
751.869	0.05
752.18	0.06
752.491	0.05
752.802	0.05
753.112	0.05
753.423	0.05
753.734	0.05
754.044	0.05
754.355	0.05
754.665	0.05
754.975	0.05
755.285	0.05
755.596	0.04
755.906	0.04
756.216	0.04
756.526	0.04
756.836	0.04
757.146	0.04
757.455	0.04
757.765	0.04
758.075	0.04
758.385	0.04
758.694	0.04
759.004	0.04
759.313	0.04
759.622	0.04
759.932	0.03
760.241	0.04
760.55	0.04
760.859	0.03
761.168	0.03
761.477	0.03
761.786	0.03
762.095	0.03
762.404	0.03
762.713	0.03
763.021	0.03
763.33	0.03
763.639	0.03
763.947	0.03
764.256	0.02
764.564	0.02
764.872	0.03
765.181	0.02
765.489	0.03
765.797	0.02
766.105	0.02
766.413	0.02
766.721	0.02
767.029	0.02
767.337	0.02
767.644	0.02
767.952	0.02
768.26	0.02
768.567	0.02
768.875	0.02
769.182	0.02
769.49	0.02
769.797	0.02
770.104	0.02
770.411	0.02
770.718	0.03
771.026	0.03
771.333	0.03
771.639	0.03
771.946	0.02
772.253	0.02
772.56	0.02
772.867	0.02
773.173	0.02
773.48	0.02
773.786	0.02
774.093	0.02
774.399	0.01
774.705	0.01
775.012	0.01
775.318	0.01
775.624	0.01
775.93	0.01
776.236	0.01
776.542	0.01
776.848	0.02
777.154	0.01
777.459	0.01
777.765	0.02
778.071	0.02
778.376	0.02
778.682	0.02
778.987	0.02
779.292	0.01
779.598	0.02
779.903	0.02
780.208	0.02
780.513	0.02
780.818	0.02
781.123	0.02
781.428	0.02
781.733	0.02
782.038	0.02
782.343	0.02
782.647	0.02
782.952	0.02
783.256	0.02
783.561	0.02
783.865	0.03
784.17	0.02
784.474	0.02
784.778	0.02
785.082	0.02
785.386	0.02
785.69	0.02
785.994	0.02
786.298	0.02
786.602	0.02
786.906	0.02
787.209	0.03
787.513	0.02
787.817	0.03
788.12	0.03
788.424	0.03
788.727	0.02
789.03	0.02
789.333	0.02
789.637	0.02
789.94	0.02
790.243	0.02
790.546	0.02
790.849	0.02
791.152	0.02
791.454	0.02
791.757	0.02
792.06	0.02
792.362	0.02
792.665	0.02
792.967	0.02
793.27	0.02
793.572	0.02
793.874	0.02
794.177	0.02
794.479	0.02
794.781	0.02
795.083	0.01
795.385	0.01
795.687	0.01
795.989	0.01
796.29	0.02
796.592	0.02
796.894	0.02
797.195	0.02
797.497	0.03
797.798	0.02
798.1	0.02
798.401	0.02
798.702	0.03
799.003	0.02
799.304	0.03
799.605	0.03
799.906	0.03
800.207	0.03
800.508	0.02
800.809	0.02
801.11	0.02
801.41	0.02
801.711	0.01
802.011	0.01
802.312	0.01
802.612	0.01
802.913	0.01
803.213	0.02
803.513	0.01
803.813	0.01
804.113	0.01
804.413	0.02
804.713	0.02
805.013	0.02
805.313	0.02
805.613	0.02
805.912	0.02
806.212	0.02
806.511	0.02
806.811	0.02
807.11	0.02
807.41	0.02
807.709	0.02
808.008	0.02
808.307	0.02
808.606	0.02
808.905	0.02
809.204	0.02
809.503	0.02
809.802	0.02
810.101	0.02
810.399	0.02
810.698	0.02
810.997	0.03
811.295	0.02
811.593	0.03
811.892	0.02
812.19	0.02
812.488	0.02
812.786	0.02
813.084	0.02
813.383	0.02
813.68	0.03
813.978	0.03
814.276	0.03
814.574	0.03
814.872	0.02
815.169	0.02
815.467	0.02
815.764	0.03
816.062	0.02
816.359	0.03
816.656	0.03
816.954	0.03
817.251	0.03
817.548	0.03
817.845	0.03
818.142	0.03
818.439	0.03
818.735	0.04
819.032	0.03
819.329	0.03
819.626	0.03
819.922	0.03
820.219	0.03
820.515	0.03
820.811	0.03
821.108	0.03
821.404	0.03
821.7	0.03
821.996	0.04
822.292	0.03
822.588	0.03
822.884	0.03
823.18	0.03
823.475	0.03
823.771	0.03
824.067	0.03
824.362	0.03
824.658	0.04
824.953	0.04
825.249	0.04
825.544	0.03
825.839	0.04
826.134	0.03
826.429	0.04
826.724	0.04
827.019	0.04
827.314	0.03
827.609	0.03
827.904	0.02
828.198	0.03
828.493	0.03
828.787	0.03
829.082	0.02
829.376	0.03
829.671	0.03
829.965	0.03
830.259	0.03
830.553	0.04
830.847	0.04
831.141	0.04
831.435	0.04
831.729	0.04
832.023	0.04
832.317	0.04
832.61	0.04
832.904	0.04
833.197	0.04
833.491	0.04
833.784	0.04
834.077	0.04
834.371	0.04
834.664	0.03
834.957	0.04
835.25	0.04
835.543	0.05
835.836	0.04
836.129	0.04
836.421	0.05
836.714	0.04
837.007	0.04
837.299	0.04
837.592	0.04
837.884	0.04
838.177	0.04
838.469	0.04
838.761	0.04
839.053	0.04
839.345	0.04
839.637	0.04
839.929	0.05
840.221	0.06
840.513	0.05
840.805	0.05
841.096	0.05
841.388	0.05
841.68	0.04
841.971	0.04
842.262	0.04
842.554	0.04
842.845	0.04
843.136	0.05
843.427	0.05
843.718	0.03
844.009	0.04
844.3	0.04
844.591	0.04
844.882	0.04
845.173	0.04
845.463	0.04
845.754	0.04
846.044	0.03
846.335	0.04
846.625	0.04
846.915	0.04
847.206	0.04
847.496	0.05
847.786	0.04
848.076	0.04
848.366	0.05
848.656	0.05
848.945	0.04
849.235	0.05
849.525	0.05
849.814	0.04
850.104	0.04
850.393	0.03
850.683	0.04
850.972	0.04
851.261	0.04
851.551	0.05
851.84	0.04
852.129	0.05
852.418	0.04
852.707	0.05
852.995	0.04
853.284	0.05
853.573	0.04
853.862	0.04
854.15	0.04
854.439	0.05
854.727	0.05
855.015	0.04
855.304	0.04
855.592	0.03
855.88	0.02
856.168	0.03
856.456	0.05
856.744	0.04
857.032	0.03
857.32	0.04
857.607	0.05
857.895	0.03
858.183	0.06
858.47	0.04
858.757	0.04
859.045	0.04
859.332	0.04
859.619	0.03
859.907	0.05
860.194	0.05
860.481	0.05
860.768	0.05
861.054	0.05
861.341	0.05
861.628	0.04
861.915	0.04
862.201	0.04
862.488	0.03
862.774	0.04
863.061	0.04
863.347	0.04
863.633	0.03
863.919	0.05
864.205	0.04
864.491	0.02
864.777	0.03
865.063	0.02
865.349	0.04
865.635	0.05
865.92	0.03
866.206	0.03
866.492	0
866.777	0.03
867.062	0.04
867.348	0.04
867.633	0.02
867.918	0.01
868.203	0.03
868.488	0.04
868.773	-0
869.058	0.05
869.343	0.02
869.628	-0
869.912	0.01
870.197	0.02
870.482	0.04
870.766	0.06
871.05	0.01
871.335	0.03
871.619	0.02
871.903	0.02
872.187	0.03
872.471	0.06
872.755	0.02
873.039	0.03
873.323	0.05
873.607	0.02
873.89	0.06
874.174	0.02
874.458	0.03
874.741	0.02
875.024	0.04
875.308	0.04
875.591	-0.01
875.874	-0.01
876.157	0.03
876.44	0
876.723	-0.02
877.006	0.01
877.289	-0
877.572	-0.01
877.854	0.03
878.137	0.03
878.42	0.02
878.702	0.01
878.984	0.01
879.267	-0.03
879.549	0.08
879.831	0.04
880.113	0.07
880.395	-0.01
880.677	0.04
880.959	-0.07
