Data from Rubpy_EV_1800_EDTA_Buffered_Absorbance_15-25-23-645.txt Node
Date: Tue Jun 30 15:25:23 BST 2026
User: fpm-admin
Spectrometer: OFX00224
Trigger mode: 0
Integration Time (sec): 7.000000E-2
Scans to average: 3
Nonlinearity correction enabled: false
Boxcar width: 0
Storing dark spectrum: false
XAxis mode: Wavelengths
Number of Pixels in Spectrum: 2136
>>>>>Begin Spectral Data<<<<<
154.91	-0.16
155.289	-0
155.669	-0
156.048	-0
156.428	-0.27
156.807	1.15
157.186	0.3
157.566	-0.44
157.945	0.21
158.325	-0
158.704	-0
159.083	-0.4
159.462	-0.03
159.842	-0.52
160.221	0.03
160.6	-0.44
160.979	-0
161.359	-0.2
161.738	-0.2
162.117	-0.16
162.496	-0.16
162.875	-0
163.254	-0
163.633	-0
164.012	-0.34
164.391	0.39
164.77	-0
165.149	1.24
165.528	0.09
165.907	-0.7
166.286	0.15
166.665	-0.23
167.044	-0.64
167.423	-0.42
167.802	0.24
168.181	0.58
168.559	-0
168.938	-0
169.317	0.1
169.696	-0.22
170.074	-0
170.453	0.3
170.832	0.05
171.21	-0
171.589	-0.46
171.968	-0
172.346	-0.3
172.725	-0.25
173.103	0.14
173.482	0.1
173.861	0.42
174.239	-0
174.617	0.26
174.996	-0.09
175.374	-0
175.753	-0.32
176.131	0.56
176.51	0.79
176.888	-0
177.266	-0
177.645	-0.27
178.023	1.18
178.401	-0.21
178.779	0.27
179.158	0.15
179.536	1.08
179.914	-0
180.292	-0
180.67	-0.36
181.048	-0
181.427	0.48
181.805	-0.19
182.183	-0.27
182.561	-0
182.939	-0.23
183.317	-0
183.695	-0
184.073	0.3
184.451	0.62
184.829	-0.09
185.206	0.1
185.584	-0.11
185.962	-0
186.34	-0.03
186.718	-0
187.096	0.18
187.473	-0
187.851	-0
188.229	-0.05
188.607	0.14
188.984	0.13
189.362	0.16
189.74	0.09
190.117	0.21
190.495	0.12
190.872	0.16
191.25	0.11
191.627	0.1
192.005	0.14
192.382	0.2
192.76	0.05
193.137	0.06
193.515	0.09
193.892	0.24
194.269	0.12
194.647	0.24
195.024	0.1
195.401	0.13
195.779	0.05
196.156	0.06
196.533	0.19
196.91	0.18
197.288	0.17
197.665	0.21
198.042	0.12
198.419	0.13
198.796	0.05
199.173	0.22
199.55	0.09
199.927	0.04
200.304	0.05
200.681	0.11
201.058	0.13
201.435	0.14
201.812	0.21
202.189	0.17
202.566	0.06
202.943	0.13
203.32	0.19
203.697	0.14
204.073	0.24
204.45	0.1
204.827	0.12
205.204	0.08
205.58	0.05
205.957	0.05
206.334	0.16
206.71	0.1
207.087	0.04
207.464	0.09
207.84	0.22
208.217	0.12
208.593	0.19
208.97	0.09
209.346	0.18
209.723	-0.01
210.099	0.13
210.476	0.15
210.852	0.15
211.228	0.14
211.605	0.07
211.981	0.12
212.357	0.18
212.733	0.14
213.11	0.11
213.486	0.1
213.862	0.21
214.238	0.12
214.614	0.12
214.991	0.14
215.367	0.03
215.743	0.12
216.119	0.09
216.495	0.12
216.871	0.14
217.247	0.11
217.623	0.04
217.999	0.22
218.375	0.12
218.751	0.13
219.127	0.12
219.502	0.13
219.878	0.07
220.254	0.22
220.63	0.16
221.006	0.16
221.381	0.17
221.757	0.09
222.133	0.2
222.508	0.19
222.884	0.16
223.26	0.19
223.635	0.14
224.011	0.15
224.386	0.21
224.762	0.21
225.137	0.13
225.513	0.14
225.888	0.09
226.264	0.2
226.639	0.19
227.014	0.18
227.39	0.08
227.765	0.24
228.14	0.08
228.516	0.25
228.891	0.19
229.266	0.15
229.641	0.15
230.017	0.24
230.392	0.19
230.767	0.11
231.142	0.11
231.517	0.14
231.892	0.19
232.267	0.22
232.642	0.12
233.017	0.15
233.392	0.2
233.767	0.17
234.142	0.11
234.517	0.15
234.892	0.15
235.267	0.23
235.641	0.12
236.016	0.08
236.391	0.08
236.766	0.12
237.14	0.17
237.515	0.06
237.89	0.09
238.264	0.07
238.639	0.06
239.014	0.15
239.388	0.11
239.763	0.12
240.137	0.11
240.512	0.18
240.886	0.12
241.261	0.14
241.635	0.18
242.009	0.09
242.384	0.22
242.758	0.2
243.132	0.16
243.507	0.14
243.881	0.13
244.255	0.11
244.629	0.18
245.004	0.15
245.378	0.06
245.752	0.2
246.126	0.14
246.5	0.11
246.874	0.14
247.248	0.04
247.622	0.15
247.996	0.17
248.37	0.11
248.744	0.13
249.118	0.13
249.492	0.09
249.866	0.1
250.24	0.17
250.613	0.13
250.987	0.16
251.361	0.23
251.735	0.11
252.108	0.07
252.482	0.17
252.856	0.11
253.229	0.1
253.603	0.16
253.977	0.12
254.35	0.12
254.724	0.12
255.097	0.1
255.471	0.12
255.844	0.16
256.218	0.17
256.591	0.13
256.964	0.17
257.338	0.11
257.711	0.12
258.084	0.18
258.458	0.16
258.831	0.17
259.204	0.15
259.577	0.14
259.95	0.16
260.323	0.12
260.697	0.14
261.07	0.2
261.443	0.16
261.816	0.14
262.189	0.19
262.562	0.12
262.935	0.09
263.308	0.09
263.68	0.2
264.053	0.13
264.426	0.15
264.799	0.13
265.172	0.15
265.545	0.23
265.917	0.17
266.29	0.19
266.663	0.11
267.035	0.23
267.408	0.07
267.781	0.13
268.153	0.2
268.526	0.23
268.898	0.16
269.271	0.13
269.643	0.14
270.016	0.14
270.388	0.18
270.76	0.13
271.133	0.17
271.505	0.24
271.877	0.09
272.25	0.14
272.622	0.05
272.994	0.2
273.366	0.13
273.739	0.16
274.111	0.17
274.483	0.16
274.855	0.15
275.227	0.22
275.599	0.15
275.971	0.12
276.343	0.11
276.715	0.21
277.087	0.13
277.459	0.14
277.831	0.16
278.203	0.24
278.574	0.19
278.946	0.18
279.318	0.13
279.69	0.15
280.061	0.18
280.433	0.13
280.805	0.16
281.176	0.12
281.548	0.14
281.92	0.16
282.291	0.13
282.663	0.11
283.034	0.15
283.406	0.15
283.777	0.13
284.148	0.16
284.52	0.12
284.891	0.2
285.262	0.23
285.634	0.18
286.005	0.14
286.376	0.15
286.747	0.16
287.119	0.17
287.49	0.16
287.861	0.14
288.232	0.15
288.603	0.11
288.974	0.16
289.345	0.12
289.716	0.15
290.087	0.16
290.458	0.14
290.829	0.2
291.2	0.16
291.571	0.22
291.941	0.08
292.312	0.17
292.683	0.16
293.054	0.18
293.424	0.18
293.795	0.22
294.166	0.22
294.536	0.17
294.907	0.16
295.277	0.21
295.648	0.14
296.018	0.13
296.389	0.15
296.759	0.2
297.13	0.14
297.5	0.15
297.871	0.17
298.241	0.17
298.611	0.15
298.981	0.15
299.352	0.19
299.722	0.15
300.092	0.11
300.462	0.19
300.832	0.16
301.202	0.16
301.573	0.11
301.943	0.14
302.313	0.11
302.683	0.12
303.053	0.16
303.422	0.12
303.792	0.13
304.162	0.15
304.532	0.15
304.902	0.13
305.272	0.14
305.641	0.15
306.011	0.13
306.381	0.15
306.75	0.14
307.12	0.14
307.49	0.15
307.859	0.15
308.229	0.14
308.598	0.14
308.968	0.15
309.337	0.15
309.707	0.14
310.076	0.15
310.445	0.16
310.815	0.16
311.184	0.16
311.553	0.16
311.923	0.16
312.292	0.16
312.661	0.16
313.03	0.16
313.399	0.16
313.768	0.17
314.137	0.17
314.506	0.17
314.875	0.16
315.244	0.16
315.613	0.15
315.982	0.16
316.351	0.16
316.72	0.16
317.089	0.15
317.458	0.15
317.826	0.15
318.195	0.16
318.564	0.15
318.933	0.15
319.301	0.15
319.67	0.15
320.038	0.14
320.407	0.15
320.775	0.14
321.144	0.14
321.512	0.14
321.881	0.14
322.249	0.14
322.618	0.14
322.986	0.14
323.354	0.14
323.723	0.14
324.091	0.12
324.459	0.14
324.827	0.14
325.195	0.13
325.564	0.13
325.932	0.13
326.3	0.13
326.668	0.14
327.036	0.13
327.404	0.13
327.772	0.13
328.14	0.13
328.508	0.13
328.875	0.14
329.243	0.13
329.611	0.13
329.979	0.13
330.346	0.13
330.714	0.13
331.082	0.14
331.449	0.13
331.817	0.13
332.185	0.14
332.552	0.14
332.92	0.14
333.287	0.14
333.655	0.14
334.022	0.14
334.389	0.14
334.757	0.14
335.124	0.15
335.491	0.15
335.859	0.15
336.226	0.15
336.593	0.15
336.96	0.16
337.327	0.15
337.695	0.16
338.062	0.16
338.429	0.16
338.796	0.17
339.163	0.17
339.53	0.17
339.897	0.17
340.263	0.17
340.63	0.18
340.997	0.18
341.364	0.19
341.731	0.19
342.097	0.19
342.464	0.19
342.831	0.2
343.197	0.2
343.564	0.2
343.931	0.21
344.297	0.21
344.664	0.21
345.03	0.21
345.396	0.22
345.763	0.22
346.129	0.23
346.496	0.23
346.862	0.23
347.228	0.23
347.594	0.24
347.961	0.25
348.327	0.25
348.693	0.25
349.059	0.26
349.425	0.26
349.791	0.26
350.157	0.26
350.523	0.27
350.889	0.28
351.255	0.28
351.621	0.29
351.987	0.29
352.353	0.3
352.719	0.31
353.084	0.31
353.45	0.32
353.816	0.33
354.181	0.33
354.547	0.33
354.913	0.34
355.278	0.35
355.644	0.35
356.009	0.36
356.375	0.37
356.74	0.38
357.106	0.39
357.471	0.39
357.836	0.4
358.202	0.4
358.567	0.42
358.932	0.43
359.297	0.44
359.663	0.44
360.028	0.45
360.393	0.45
360.758	0.46
361.123	0.46
361.488	0.47
361.853	0.47
362.218	0.47
362.583	0.49
362.948	0.49
363.312	0.5
363.677	0.51
364.042	0.51
364.407	0.52
364.772	0.53
365.136	0.54
365.501	0.55
365.865	0.57
366.23	0.57
366.595	0.59
366.959	0.59
367.324	0.6
367.688	0.61
368.052	0.63
368.417	0.64
368.781	0.64
369.145	0.65
369.51	0.65
369.874	0.66
370.238	0.66
370.602	0.66
370.967	0.65
371.331	0.65
371.695	0.65
372.059	0.64
372.423	0.65
372.787	0.64
373.151	0.63
373.515	0.64
373.878	0.63
374.242	0.64
374.606	0.64
374.97	0.64
375.334	0.64
375.697	0.64
376.061	0.64
376.425	0.65
376.788	0.64
377.152	0.65
377.515	0.66
377.879	0.67
378.242	0.67
378.606	0.67
378.969	0.68
379.333	0.69
379.696	0.71
380.059	0.72
380.422	0.73
380.786	0.73
381.149	0.75
381.512	0.77
381.875	0.78
382.238	0.8
382.601	0.82
382.964	0.84
383.327	0.86
383.69	0.88
384.053	0.9
384.416	0.92
384.779	0.95
385.142	0.96
385.504	0.98
385.867	0.99
386.23	1
386.593	1.01
386.955	1.01
387.318	1.02
387.68	1
388.043	1.01
388.405	1
388.768	0.98
389.13	0.98
389.493	0.97
389.855	0.97
390.217	0.96
390.58	0.97
390.942	0.97
391.304	0.98
391.666	0.98
392.028	1
392.391	1.02
392.753	1.05
393.115	1.07
393.477	1.11
393.839	1.16
394.201	1.19
394.563	1.24
394.924	1.28
395.286	1.33
395.648	1.37
396.01	1.39
396.371	1.43
396.733	1.45
397.095	1.49
397.456	1.49
397.818	1.51
398.18	1.49
398.541	1.45
398.903	1.43
399.264	1.39
399.625	1.37
399.987	1.31
400.348	1.26
400.709	1.21
401.071	1.16
401.432	1.09
401.793	1.02
402.154	0.96
402.515	0.89
402.876	0.83
403.238	0.77
403.599	0.72
403.96	0.66
404.32	0.62
404.681	0.58
405.042	0.54
405.403	0.5
405.764	0.47
406.125	0.44
406.485	0.4
406.846	0.38
407.207	0.35
407.567	0.33
407.928	0.32
408.288	0.29
408.649	0.28
409.009	0.26
409.37	0.25
409.73	0.24
410.091	0.22
410.451	0.21
410.811	0.21
411.171	0.19
411.532	0.19
411.892	0.18
412.252	0.18
412.612	0.17
412.972	0.16
413.332	0.15
413.692	0.15
414.052	0.14
414.412	0.14
414.772	0.14
415.132	0.13
415.492	0.13
415.851	0.12
416.211	0.12
416.571	0.12
416.931	0.11
417.29	0.11
417.65	0.11
418.009	0.11
418.369	0.1
418.728	0.1
419.088	0.1
419.447	0.1
419.807	0.09
420.166	0.09
420.525	0.09
420.884	0.09
421.244	0.09
421.603	0.08
421.962	0.09
422.321	0.08
422.68	0.08
423.039	0.08
423.398	0.09
423.757	0.08
424.116	0.07
424.475	0.08
424.834	0.07
425.193	0.08
425.551	0.07
425.91	0.08
426.269	0.07
426.628	0.07
426.986	0.07
427.345	0.07
427.703	0.07
428.062	0.07
428.42	0.07
428.779	0.06
429.137	0.07
429.496	0.06
429.854	0.06
430.212	0.06
430.57	0.06
430.929	0.06
431.287	0.06
431.645	0.06
432.003	0.05
432.361	0.06
432.719	0.06
433.077	0.06
433.435	0.05
433.793	0.06
434.151	0.06
434.509	0.05
434.866	0.06
435.224	0.05
435.582	0.05
435.94	0.06
436.297	0.06
436.655	0.06
437.012	0.05
437.37	0.06
437.727	0.06
438.085	0.04
438.442	0.05
438.8	0.04
439.157	0.04
439.514	0.06
439.872	0.05
440.229	0.06
440.586	0.05
440.943	0.05
441.3	0.05
441.657	0.05
442.014	0.04
442.371	0.04
442.728	0.05
443.085	0.04
443.442	0.05
443.799	0.04
444.156	0.04
444.513	0.05
444.869	0.04
445.226	0.04
445.583	0.05
445.939	0.04
446.296	0.04
446.652	0.04
447.009	0.04
447.365	0.04
447.722	0.04
448.078	0.03
448.434	0.03
448.791	0.04
449.147	0.03
449.503	0.04
449.859	0.03
450.215	0.03
450.571	0.03
450.928	0.03
451.284	0.03
451.64	0.02
451.995	0.03
452.351	0.03
452.707	0.03
453.063	0.03
453.419	0.02
453.775	0.02
454.13	0.03
454.486	0.02
454.842	0.02
455.197	0.01
455.553	0
455.908	0.01
456.264	0.01
456.619	0.01
456.975	0.01
457.33	0.01
457.685	0
458.04	0
458.396	0.01
458.751	0.01
459.106	-0.01
459.461	0
459.816	-0.01
460.171	-0
460.526	-0
460.881	-0.02
461.236	-0
461.591	-0.01
461.946	-0.01
462.301	-0.02
462.655	-0.02
463.01	-0.02
463.365	-0.02
463.719	-0.02
464.074	-0.03
464.428	-0.04
464.783	-0.04
465.137	-0.03
465.492	-0.04
465.846	-0.04
466.201	-0.04
466.555	-0.04
466.909	-0.03
467.263	-0.03
467.618	-0.03
467.972	-0.03
468.326	-0.03
468.68	-0.05
469.034	-0.04
469.388	-0.04
469.742	-0.04
470.096	-0.04
470.45	-0.04
470.804	-0.04
471.157	-0.04
471.511	-0.04
471.865	-0.03
472.218	-0.04
472.572	-0.03
472.926	-0.04
473.279	-0.03
473.633	-0.03
473.986	-0.02
474.34	-0.02
474.693	-0.02
475.046	-0.01
475.4	-0.01
475.753	-0
476.106	-0
476.459	-0
476.812	0
477.165	0.01
477.519	0.01
477.872	0.01
478.224	0.01
478.577	0.01
478.93	0.02
479.283	0.02
479.636	0.02
479.989	0.03
480.341	0.03
480.694	0.03
481.047	0.03
481.399	0.03
481.752	0.04
482.104	0.04
482.457	0.04
482.809	0.04
483.162	0.05
483.514	0.05
483.866	0.05
484.219	0.05
484.571	0.05
484.923	0.05
485.275	0.05
485.627	0.06
485.979	0.05
486.331	0.06
486.683	0.06
487.035	0.06
487.387	0.06
487.739	0.06
488.091	0.07
488.443	0.07
488.794	0.07
489.146	0.07
489.498	0.06
489.849	0.07
490.201	0.06
490.552	0.07
490.904	0.07
491.255	0.08
491.607	0.07
491.958	0.07
492.309	0.08
492.661	0.08
493.012	0.08
493.363	0.08
493.714	0.08
494.065	0.08
494.416	0.08
494.767	0.08
495.118	0.09
495.469	0.09
495.82	0.09
496.171	0.09
496.522	0.09
496.872	0.09
497.223	0.1
497.574	0.1
497.924	0.1
498.275	0.1
498.626	0.1
498.976	0.1
499.327	0.1
499.677	0.1
500.027	0.1
500.378	0.1
500.728	0.11
501.078	0.11
501.428	0.11
501.779	0.11
502.129	0.11
502.479	0.11
502.829	0.11
503.179	0.11
503.529	0.12
503.879	0.12
504.229	0.12
504.578	0.12
504.928	0.13
505.278	0.13
505.628	0.12
505.977	0.13
506.327	0.13
506.676	0.13
507.026	0.13
507.375	0.13
507.725	0.13
508.074	0.13
508.424	0.14
508.773	0.14
509.122	0.14
509.471	0.14
509.82	0.14
510.17	0.15
510.519	0.15
510.868	0.15
511.217	0.15
511.566	0.15
511.915	0.15
512.263	0.15
512.612	0.15
512.961	0.16
513.31	0.16
513.659	0.16
514.007	0.16
514.356	0.15
514.704	0.16
515.053	0.16
515.401	0.17
515.75	0.17
516.098	0.17
516.447	0.17
516.795	0.17
517.143	0.17
517.491	0.18
517.839	0.17
518.188	0.18
518.536	0.18
518.884	0.17
519.232	0.18
519.58	0.18
519.928	0.18
520.275	0.18
520.623	0.18
520.971	0.19
521.319	0.19
521.666	0.19
522.014	0.19
522.362	0.2
522.709	0.19
523.057	0.2
523.404	0.19
523.752	0.19
524.099	0.19
524.446	0.2
524.794	0.2
525.141	0.21
525.488	0.21
525.835	0.2
526.182	0.21
526.529	0.21
526.876	0.21
527.223	0.21
527.57	0.22
527.917	0.22
528.264	0.22
528.611	0.22
528.958	0.22
529.304	0.22
529.651	0.22
529.998	0.23
530.344	0.23
530.691	0.23
531.037	0.23
531.384	0.23
531.73	0.23
532.076	0.24
532.423	0.24
532.769	0.24
533.115	0.24
533.461	0.24
533.807	0.25
534.154	0.24
534.5	0.24
534.846	0.24
535.192	0.25
535.537	0.25
535.883	0.26
536.229	0.26
536.575	0.26
536.921	0.26
537.266	0.26
537.612	0.26
537.957	0.26
538.303	0.26
538.649	0.27
538.994	0.27
539.339	0.28
539.685	0.28
540.03	0.28
540.375	0.28
540.721	0.28
541.066	0.28
541.411	0.28
541.756	0.28
542.101	0.29
542.446	0.29
542.791	0.29
543.136	0.3
543.481	0.29
543.825	0.29
544.17	0.3
544.515	0.3
544.86	0.3
545.204	0.3
545.549	0.31
545.893	0.31
546.238	0.31
546.582	0.32
546.927	0.32
547.271	0.32
547.615	0.32
547.96	0.32
548.304	0.32
548.648	0.33
548.992	0.33
549.336	0.33
549.68	0.33
550.024	0.33
550.368	0.33
550.712	0.34
551.056	0.34
551.4	0.34
551.743	0.34
552.087	0.34
552.431	0.34
552.774	0.34
553.118	0.35
553.462	0.35
553.805	0.35
554.148	0.35
554.492	0.35
554.835	0.35
555.178	0.36
555.522	0.36
555.865	0.36
556.208	0.36
556.551	0.36
556.894	0.36
557.237	0.36
557.58	0.36
557.923	0.36
558.266	0.36
558.609	0.36
558.952	0.37
559.294	0.37
559.637	0.37
559.98	0.37
560.322	0.37
560.665	0.37
561.007	0.37
561.35	0.37
561.692	0.38
562.034	0.38
562.377	0.38
562.719	0.38
563.061	0.38
563.403	0.38
563.745	0.38
564.088	0.38
564.43	0.38
564.772	0.38
565.113	0.38
565.455	0.38
565.797	0.39
566.139	0.38
566.481	0.39
566.822	0.39
567.164	0.39
567.506	0.39
567.847	0.39
568.189	0.4
568.53	0.39
568.872	0.39
569.213	0.39
569.554	0.39
569.895	0.39
570.237	0.39
570.578	0.39
570.919	0.39
571.26	0.39
571.601	0.39
571.942	0.39
572.283	0.39
572.624	0.39
572.965	0.39
573.306	0.39
573.646	0.39
573.987	0.39
574.328	0.39
574.668	0.39
575.009	0.39
575.349	0.39
575.69	0.39
576.03	0.39
576.37	0.38
576.711	0.38
577.051	0.38
577.391	0.38
577.731	0.39
578.072	0.39
578.412	0.39
578.752	0.39
579.092	0.39
579.431	0.38
579.771	0.36
580.111	0.34
580.451	0.34
580.791	0.37
581.13	0.39
581.47	0.39
581.81	0.39
582.149	0.39
582.489	0.39
582.828	0.39
583.167	0.36
583.507	0.32
583.846	0.3
584.185	0.31
584.525	0.34
584.864	0.37
585.203	0.4
585.542	0.41
585.881	0.41
586.22	0.41
586.559	0.41
586.898	0.39
587.236	0.38
587.575	0.37
587.914	0.38
588.252	0.4
588.591	0.41
588.93	0.42
589.268	0.41
589.607	0.41
589.945	0.42
590.283	0.42
590.622	0.42
590.96	0.42
591.298	0.43
591.636	0.43
591.974	0.43
592.313	0.44
592.651	0.44
592.989	0.44
593.326	0.45
593.664	0.45
594.002	0.45
594.34	0.45
594.678	0.45
595.015	0.44
595.353	0.43
595.691	0.43
596.028	0.44
596.366	0.45
596.703	0.46
597.04	0.46
597.378	0.46
597.715	0.47
598.052	0.47
598.389	0.47
598.726	0.48
599.064	0.48
599.401	0.47
599.738	0.47
600.074	0.48
600.411	0.48
600.748	0.47
601.085	0.47
601.422	0.46
601.758	0.46
602.095	0.46
602.432	0.47
602.768	0.47
603.105	0.47
603.441	0.47
603.777	0.48
604.114	0.48
604.45	0.48
604.786	0.48
605.122	0.48
605.459	0.48
605.795	0.48
606.131	0.47
606.467	0.48
606.803	0.48
607.139	0.48
607.474	0.48
607.81	0.47
608.146	0.47
608.482	0.48
608.817	0.47
609.153	0.47
609.488	0.47
609.824	0.47
610.159	0.47
610.495	0.46
610.83	0.47
611.165	0.47
611.5	0.46
611.836	0.47
612.171	0.46
612.506	0.47
612.841	0.47
613.176	0.47
613.511	0.46
613.845	0.46
614.18	0.46
614.515	0.47
614.85	0.46
615.184	0.46
615.519	0.46
615.854	0.46
616.188	0.45
616.523	0.45
616.857	0.45
617.191	0.45
617.526	0.45
617.86	0.45
618.194	0.44
618.528	0.45
618.862	0.44
619.196	0.44
619.53	0.45
619.864	0.44
620.198	0.44
620.532	0.44
620.866	0.44
621.2	0.44
621.533	0.44
621.867	0.44
622.201	0.44
622.534	0.43
622.868	0.43
623.201	0.43
623.534	0.43
623.868	0.42
624.201	0.42
624.534	0.42
624.868	0.42
625.201	0.42
625.534	0.42
625.867	0.42
626.2	0.41
626.533	0.41
626.865	0.41
627.198	0.41
627.531	0.4
627.864	0.4
628.196	0.4
628.529	0.4
628.862	0.4
629.194	0.4
629.527	0.39
629.859	0.39
630.191	0.39
630.524	0.39
630.856	0.39
631.188	0.38
631.52	0.38
631.852	0.38
632.184	0.38
632.516	0.37
632.848	0.37
633.18	0.37
633.512	0.37
633.844	0.36
634.175	0.36
634.507	0.36
634.839	0.35
635.17	0.35
635.502	0.35
635.833	0.34
636.165	0.34
636.496	0.34
636.827	0.34
637.159	0.33
637.49	0.33
637.821	0.33
638.152	0.32
638.483	0.32
638.814	0.32
639.145	0.32
639.476	0.32
639.807	0.31
640.137	0.31
640.468	0.31
640.799	0.3
641.129	0.3
641.46	0.3
641.791	0.3
642.121	0.3
642.451	0.3
642.782	0.3
643.112	0.29
643.442	0.29
643.773	0.29
644.103	0.29
644.433	0.28
644.763	0.28
645.093	0.28
645.423	0.28
645.753	0.27
646.082	0.27
646.412	0.27
646.742	0.27
647.072	0.27
647.401	0.27
647.731	0.27
648.06	0.27
648.39	0.27
648.719	0.27
649.048	0.26
649.378	0.26
649.707	0.26
650.036	0.26
650.365	0.26
650.694	0.26
651.023	0.25
651.352	0.25
651.681	0.25
652.01	0.26
652.339	0.25
652.668	0.25
652.996	0.25
653.325	0.25
653.654	0.25
653.982	0.25
654.311	0.25
654.639	0.26
654.967	0.26
655.296	0.26
655.624	0.26
655.952	0.25
656.28	0.25
656.609	0.25
656.937	0.25
657.265	0.25
657.593	0.2
657.92	0.06
658.248	0.01
658.576	0.01
658.904	0.06
659.231	0.14
659.559	0.22
659.887	0.25
660.214	0.25
660.542	0.25
660.869	0.25
661.196	0.25
661.524	0.25
661.851	0.25
662.178	0.26
662.505	0.25
662.832	0.25
663.159	0.25
663.486	0.25
663.813	0.25
664.14	0.25
664.467	0.25
664.794	0.25
665.12	0.25
665.447	0.24
665.774	0.25
666.1	0.24
666.427	0.24
666.753	0.24
667.079	0.24
667.406	0.23
667.732	0.23
668.058	0.23
668.384	0.24
668.71	0.24
669.036	0.24
669.362	0.24
669.688	0.23
670.014	0.23
670.34	0.23
670.666	0.23
670.991	0.23
671.317	0.23
671.643	0.23
671.968	0.23
672.294	0.23
672.619	0.23
672.945	0.23
673.27	0.23
673.595	0.23
673.92	0.22
674.246	0.22
674.571	0.21
674.896	0.21
675.221	0.22
675.546	0.22
675.87	0.21
676.195	0.21
676.52	0.21
676.845	0.21
677.169	0.21
677.494	0.21
677.819	0.2
678.143	0.2
678.468	0.2
678.792	0.2
679.116	0.2
679.44	0.2
679.765	0.2
680.089	0.19
680.413	0.19
680.737	0.18
681.061	0.18
681.385	0.18
681.709	0.18
682.033	0.18
682.356	0.18
682.68	0.18
683.004	0.18
683.327	0.17
683.651	0.17
683.974	0.17
684.298	0.17
684.621	0.17
684.944	0.16
685.268	0.16
685.591	0.16
685.914	0.16
686.237	0.15
686.56	0.15
686.883	0.15
687.206	0.14
687.529	0.14
687.852	0.14
688.175	0.14
688.497	0.14
688.82	0.14
689.142	0.14
689.465	0.14
689.787	0.14
690.11	0.14
690.432	0.13
690.755	0.14
691.077	0.13
691.399	0.13
691.721	0.13
692.043	0.12
692.365	0.12
692.687	0.12
693.009	0.12
693.331	0.11
693.653	0.11
693.974	0.11
694.296	0.11
694.618	0.11
694.939	0.11
695.261	0.1
695.582	0.11
695.904	0.1
696.225	0.11
696.546	0.11
696.868	0.11
697.189	0.1
697.51	0.1
697.831	0.1
698.152	0.1
698.473	0.1
698.794	0.09
699.114	0.09
699.435	0.07
699.756	0.08
700.077	0.08
700.397	0.08
700.718	0.08
701.038	0.08
701.359	0.09
701.679	0.08
701.999	0.09
702.32	0.08
702.64	0.08
702.96	0.08
703.28	0.08
703.6	0.09
703.92	0.08
704.24	0.08
704.56	0.08
704.879	0.07
705.199	0.08
705.519	0.07
705.838	0.08
706.158	0.07
706.478	0.07
706.797	0.07
707.116	0.07
707.436	0.07
707.755	0.07
708.074	0.07
708.393	0.07
708.712	0.07
709.031	0.05
709.35	0.05
709.669	0.05
709.988	0.05
710.307	0.05
710.626	0.06
710.944	0.06
711.263	0.06
711.582	0.07
711.9	0.07
712.219	0.06
712.537	0.07
712.855	0.07
713.174	0.06
713.492	0.06
713.81	0.07
714.128	0.07
714.446	0.07
714.764	0.06
715.082	0.06
715.4	0.06
715.718	0.06
716.035	0.06
716.353	0.06
716.671	0.06
716.988	0.06
717.306	0.06
717.623	0.07
717.941	0.07
718.258	0.07
718.575	0.07
718.893	0.07
719.21	0.07
719.527	0.07
719.844	0.07
720.161	0.07
720.478	0.07
720.795	0.07
721.112	0.07
721.428	0.07
721.745	0.08
722.062	0.08
722.378	0.08
722.695	0.08
723.011	0.08
723.328	0.08
723.644	0.08
723.96	0.08
724.276	0.08
724.593	0.08
724.909	0.08
725.225	0.08
725.541	0.08
725.857	0.08
726.173	0.08
726.488	0.09
726.804	0.08
727.12	0.08
727.435	0.08
727.751	0.08
728.067	0.08
728.382	0.08
728.697	0.08
729.013	0.08
729.328	0.08
729.643	0.08
729.958	0.08
730.273	0.08
730.588	0.08
730.903	0.08
731.218	0.08
731.533	0.08
731.848	0.08
732.163	0.08
732.477	0.08
732.792	0.08
733.107	0.07
733.421	0.07
733.736	0.07
734.05	0.08
734.364	0.08
734.678	0.08
734.993	0.08
735.307	0.08
735.621	0.08
735.935	0.08
736.249	0.08
736.563	0.08
736.877	0.08
737.19	0.08
737.504	0.08
737.818	0.08
738.131	0.08
738.445	0.08
738.758	0.08
739.072	0.08
739.385	0.08
739.698	0.08
740.012	0.08
740.325	0.08
740.638	0.08
740.951	0.08
741.264	0.07
741.577	0.07
741.89	0.08
742.203	0.08
742.515	0.08
742.828	0.07
743.141	0.07
743.453	0.07
743.766	0.07
744.078	0.08
744.391	0.07
744.703	0.07
745.015	0.07
745.327	0.07
745.639	0.07
745.952	0.07
746.264	0.07
746.575	0.07
746.887	0.07
747.199	0.07
747.511	0.07
747.823	0.07
748.134	0.06
748.446	0.06
748.757	0.06
749.069	0.06
749.38	0.06
749.692	0.06
750.003	0.07
750.314	0.06
750.625	0.06
750.936	0.06
751.248	0.06
751.559	0.06
751.869	0.05
752.18	0.05
752.491	0.05
752.802	0.05
753.112	0.05
753.423	0.05
753.734	0.05
754.044	0.05
754.355	0.05
754.665	0.05
754.975	0.05
755.285	0.05
755.596	0.05
755.906	0.04
756.216	0.04
756.526	0.04
756.836	0.04
757.146	0.04
757.455	0.04
757.765	0.04
758.075	0.04
758.385	0.04
758.694	0.04
759.004	0.04
759.313	0.04
759.622	0.04
759.932	0.04
760.241	0.04
760.55	0.04
760.859	0.03
761.168	0.03
761.477	0.03
761.786	0.03
762.095	0.03
762.404	0.03
762.713	0.03
763.021	0.03
763.33	0.03
763.639	0.03
763.947	0.03
764.256	0.03
764.564	0.03
764.872	0.03
765.181	0.03
765.489	0.03
765.797	0.03
766.105	0.03
766.413	0.03
766.721	0.02
767.029	0.02
767.337	0.02
767.644	0.02
767.952	0.02
768.26	0.02
768.567	0.02
768.875	0.02
769.182	0.02
769.49	0.03
769.797	0.03
770.104	0.02
770.411	0.03
770.718	0.03
771.026	0.03
771.333	0.03
771.639	0.03
771.946	0.02
772.253	0.02
772.56	0.02
772.867	0.02
773.173	0.02
773.48	0.02
773.786	0.02
774.093	0.02
774.399	0.02
774.705	0.02
775.012	0.02
775.318	0.01
775.624	0.01
775.93	0.01
776.236	0.01
776.542	0.01
776.848	0.02
777.154	0.02
777.459	0.02
777.765	0.02
778.071	0.02
778.376	0.02
778.682	0.02
778.987	0.02
779.292	0.02
779.598	0.02
779.903	0.02
780.208	0.02
780.513	0.02
780.818	0.02
781.123	0.01
781.428	0.02
781.733	0.02
782.038	0.02
782.343	0.02
782.647	0.02
782.952	0.02
783.256	0.02
783.561	0.02
783.865	0.03
784.17	0.02
784.474	0.02
784.778	0.02
785.082	0.02
785.386	0.02
785.69	0.02
785.994	0.02
786.298	0.02
786.602	0.02
786.906	0.02
787.209	0.02
787.513	0.03
787.817	0.03
788.12	0.03
788.424	0.02
788.727	0.03
789.03	0.02
789.333	0.02
789.637	0.02
789.94	0.02
790.243	0.02
790.546	0.02
790.849	0.02
791.152	0.02
791.454	0.02
791.757	0.02
792.06	0.02
792.362	0.02
792.665	0.02
792.967	0.02
793.27	0.02
793.572	0.02
793.874	0.02
794.177	0.02
794.479	0.02
794.781	0.02
795.083	0.02
795.385	0.02
795.687	0.01
795.989	0.02
796.29	0.02
796.592	0.02
796.894	0.03
797.195	0.03
797.497	0.03
797.798	0.03
798.1	0.02
798.401	0.03
798.702	0.03
799.003	0.02
799.304	0.03
799.605	0.03
799.906	0.03
800.207	0.03
800.508	0.02
800.809	0.02
801.11	0.02
801.41	0.02
801.711	0.02
802.011	0.02
802.312	0.01
802.612	0.01
802.913	0.01
803.213	0.02
803.513	0.01
803.813	0.02
804.113	0.01
804.413	0.02
804.713	0.02
805.013	0.02
805.313	0.03
805.613	0.02
805.912	0.03
806.212	0.02
806.511	0.02
806.811	0.03
807.11	0.02
807.41	0.02
807.709	0.02
808.008	0.02
808.307	0.03
808.606	0.03
808.905	0.02
809.204	0.02
809.503	0.03
809.802	0.02
810.101	0.02
810.399	0.02
810.698	0.02
810.997	0.02
811.295	0.02
811.593	0.03
811.892	0.02
812.19	0.02
812.488	0.02
812.786	0.03
813.084	0.02
813.383	0.02
813.68	0.03
813.978	0.03
814.276	0.04
814.574	0.03
814.872	0.03
815.169	0.03
815.467	0.03
815.764	0.03
816.062	0.03
816.359	0.03
816.656	0.03
816.954	0.03
817.251	0.03
817.548	0.03
817.845	0.03
818.142	0.04
818.439	0.04
818.735	0.04
819.032	0.04
819.329	0.04
819.626	0.03
819.922	0.03
820.219	0.03
820.515	0.03
820.811	0.03
821.108	0.03
821.404	0.03
821.7	0.03
821.996	0.03
822.292	0.03
822.588	0.03
822.884	0.03
823.18	0.03
823.475	0.03
823.771	0.03
824.067	0.03
824.362	0.03
824.658	0.04
824.953	0.03
825.249	0.04
825.544	0.03
825.839	0.03
826.134	0.04
826.429	0.04
826.724	0.04
827.019	0.04
827.314	0.04
827.609	0.03
827.904	0.03
828.198	0.03
828.493	0.03
828.787	0.03
829.082	0.03
829.376	0.03
829.671	0.03
829.965	0.03
830.259	0.04
830.553	0.04
830.847	0.04
831.141	0.04
831.435	0.04
831.729	0.04
832.023	0.04
832.317	0.04
832.61	0.04
832.904	0.04
833.197	0.04
833.491	0.04
833.784	0.04
834.077	0.04
834.371	0.05
834.664	0.03
834.957	0.04
835.25	0.05
835.543	0.05
835.836	0.04
836.129	0.04
836.421	0.04
836.714	0.04
837.007	0.04
837.299	0.04
837.592	0.04
837.884	0.04
838.177	0.04
838.469	0.04
838.761	0.04
839.053	0.04
839.345	0.05
839.637	0.05
839.929	0.05
840.221	0.05
840.513	0.05
840.805	0.05
841.096	0.04
841.388	0.05
841.68	0.05
841.971	0.04
842.262	0.05
842.554	0.05
842.845	0.05
843.136	0.06
843.427	0.05
843.718	0.05
844.009	0.05
844.3	0.04
844.591	0.04
844.882	0.04
845.173	0.03
845.463	0.04
845.754	0.04
846.044	0.04
846.335	0.05
846.625	0.05
846.915	0.04
847.206	0.05
847.496	0.06
847.786	0.05
848.076	0.05
848.366	0.05
848.656	0.04
848.945	0.05
849.235	0.05
849.525	0.05
849.814	0.05
850.104	0.04
850.393	0.03
850.683	0.04
850.972	0.05
851.261	0.04
851.551	0.05
851.84	0.05
852.129	0.04
852.418	0.05
852.707	0.05
852.995	0.05
853.284	0.04
853.573	0.04
853.862	0.04
854.15	0.04
854.439	0.04
854.727	0.05
855.015	0.04
855.304	0.04
855.592	0.04
855.88	0.03
856.168	0.03
856.456	0.04
856.744	0.06
857.032	0.04
857.32	0.05
857.607	0.06
857.895	0.04
858.183	0.05
858.47	0.04
858.757	0.04
859.045	0.05
859.332	0.04
859.619	0.04
859.907	0.04
860.194	0.04
860.481	0.05
860.768	0.06
861.054	0.05
861.341	0.06
861.628	0.04
861.915	0.05
862.201	0.02
862.488	0.04
862.774	0.05
863.061	0.03
863.347	0.04
863.633	0.03
863.919	0.02
864.205	0.05
864.491	0.04
864.777	0.02
865.063	0.03
865.349	0.01
865.635	0.03
865.92	0.01
866.206	0.03
866.492	0.02
866.777	0.04
867.062	0.02
867.348	0.04
867.633	0.03
867.918	0.03
868.203	0.05
868.488	0.04
868.773	0.04
869.058	0.04
869.343	0
869.628	0.01
869.912	0
870.197	0.03
870.482	0.03
870.766	0.01
871.05	0.06
871.335	0.03
871.619	0.03
871.903	0
872.187	0.02
872.471	0.04
872.755	0.03
873.039	0.01
873.323	0.07
873.607	-0.02
873.89	-0.02
874.174	0.01
874.458	-0
874.741	0.01
875.024	0.03
875.308	-0.02
875.591	-0.04
875.874	-0.04
876.157	0.01
876.44	-0.01
876.723	-0
877.006	-0.05
877.289	-0.07
877.572	0.04
877.854	0.03
878.137	0.03
878.42	0.04
878.702	-0.01
878.984	0.02
879.267	-0.02
879.549	0.03
879.831	0
880.113	0.02
880.395	0.02
880.677	-0.01
880.959	0.03
