Data from Rubpy_EV_1800_EDTA_Buffered_Absorbance_15-49-32-585.txt Node
Date: Tue Jun 30 15:49:32 BST 2026
User: fpm-admin
Spectrometer: OFX00224
Trigger mode: 0
Integration Time (sec): 7.000000E-2
Scans to average: 3
Nonlinearity correction enabled: false
Boxcar width: 0
Storing dark spectrum: false
XAxis mode: Wavelengths
Number of Pixels in Spectrum: 2136
>>>>>Begin Spectral Data<<<<<
154.91	-0.37
155.289	-0
155.669	-0.38
156.048	-0
156.428	-0.47
156.807	0.1
157.186	-0
157.566	0.51
157.945	0.89
158.325	-0
158.704	-0
159.083	-0.45
159.462	0.23
159.842	-0.68
160.221	-0
160.6	-0.41
160.979	-0.44
161.359	-0.07
161.738	-0.25
162.117	-0
162.496	-0.04
162.875	-0.49
163.254	-0
163.633	-0
164.012	-0.29
164.391	0.3
164.77	-0
165.149	0.11
165.528	0.3
165.907	-0.73
166.286	0.17
166.665	-0.12
167.044	-1.2
167.423	-0
167.802	-0
168.181	0.13
168.559	-0
168.938	-0.91
169.317	0.18
169.696	0.02
170.074	-0.08
170.453	-0.05
170.832	-0.06
171.21	-0
171.589	-0.52
171.968	-0
172.346	-0.75
172.725	-0.1
173.103	-0.28
173.482	0.32
173.861	0.28
174.239	-0.35
174.617	0.38
174.996	0.07
175.374	-0
175.753	-0.2
176.131	1.17
176.51	1.01
176.888	-0
177.266	-0
177.645	-0.08
178.023	0.49
178.401	-0.35
178.779	0.21
179.158	0.36
179.536	0.02
179.914	-0
180.292	-0.16
180.67	-0
181.048	-0
181.427	0.04
181.805	-0.24
182.183	-0.37
182.561	1.2
182.939	-0
183.317	-0.48
183.695	-0
184.073	-0.04
184.451	0.21
184.829	0.29
185.206	-0.96
185.584	-0.12
185.962	-0.49
186.34	-0
186.718	-0
187.096	0.06
187.473	-0
187.851	-0
188.229	0.09
188.607	0.11
188.984	0.38
189.362	0.18
189.74	0.23
190.117	0.19
190.495	0.19
190.872	0.02
191.25	0.09
191.627	0.13
192.005	0.18
192.382	0.19
192.76	0.15
193.137	0.23
193.515	0.12
193.892	0.24
194.269	0.19
194.647	0.14
195.024	0.12
195.401	0.17
195.779	0.08
196.156	0.1
196.533	0.16
196.91	0.24
197.288	0.23
197.665	0.19
198.042	0.16
198.419	0.23
198.796	0.18
199.173	0.19
199.55	0.1
199.927	0.24
200.304	0.19
200.681	0.25
201.058	0.1
201.435	0.17
201.812	0.15
202.189	0.15
202.566	0.08
202.943	0.2
203.32	0.14
203.697	0.22
204.073	0.25
204.45	0.16
204.827	0.3
205.204	0.18
205.58	0.09
205.957	0.12
206.334	0.17
206.71	0.12
207.087	0.17
207.464	0.23
207.84	0.17
208.217	0.17
208.593	0.28
208.97	0.25
209.346	0.28
209.723	0.09
210.099	0.16
210.476	0.24
210.852	0.2
211.228	0.13
211.605	0.34
211.981	0.26
212.357	0.27
212.733	0.21
213.11	0.17
213.486	0.35
213.862	0.18
214.238	0.18
214.614	0.12
214.991	0.14
215.367	0.1
215.743	0.3
216.119	0.13
216.495	0.23
216.871	0.19
217.247	0.23
217.623	0.13
217.999	0.28
218.375	0.07
218.751	0.17
219.127	0.26
219.502	0.2
219.878	0.19
220.254	0.23
220.63	0.18
221.006	0.17
221.381	0.25
221.757	0.17
222.133	0.28
222.508	0.27
222.884	0.17
223.26	0.21
223.635	0.21
224.011	0.22
224.386	0.19
224.762	0.2
225.137	0.2
225.513	0.25
225.888	0.16
226.264	0.2
226.639	0.26
227.014	0.33
227.39	0.27
227.765	0.22
228.14	0.13
228.516	0.13
228.891	0.34
229.266	0.29
229.641	0.29
230.017	0.24
230.392	0.29
230.767	0.31
231.142	0.18
231.517	0.18
231.892	0.36
232.267	0.14
232.642	0.28
233.017	0.25
233.392	0.27
233.767	0.32
234.142	0.21
234.517	0.21
234.892	0.25
235.267	0.21
235.641	0.18
236.016	0.22
236.391	0.11
236.766	0.12
237.14	0.3
237.515	0.06
237.89	0.23
238.264	0.2
238.639	0.17
239.014	0.17
239.388	0.15
239.763	0.18
240.137	0.22
240.512	0.22
240.886	0.26
241.261	0.21
241.635	0.22
242.009	0.21
242.384	0.31
242.758	0.33
243.132	0.31
243.507	0.21
243.881	0.17
244.255	0.15
244.629	0.23
245.004	0.21
245.378	0.21
245.752	0.22
246.126	0.22
246.5	0.23
246.874	0.38
247.248	0.16
247.622	0.17
247.996	0.2
248.37	0.17
248.744	0.19
249.118	0.23
249.492	0.22
249.866	0.18
250.24	0.22
250.613	0.28
250.987	0.19
251.361	0.3
251.735	0.2
252.108	0.23
252.482	0.13
252.856	0.14
253.229	0.17
253.603	0.27
253.977	0.19
254.35	0.31
254.724	0.21
255.097	0.2
255.471	0.21
255.844	0.16
256.218	0.31
256.591	0.22
256.964	0.2
257.338	0.21
257.711	0.26
258.084	0.27
258.458	0.28
258.831	0.28
259.204	0.27
259.577	0.21
259.95	0.28
260.323	0.22
260.697	0.18
261.07	0.22
261.443	0.3
261.816	0.22
262.189	0.26
262.562	0.27
262.935	0.26
263.308	0.22
263.68	0.26
264.053	0.2
264.426	0.27
264.799	0.3
265.172	0.24
265.545	0.26
265.917	0.28
266.29	0.18
266.663	0.2
267.035	0.25
267.408	0.24
267.781	0.18
268.153	0.23
268.526	0.25
268.898	0.2
269.271	0.23
269.643	0.21
270.016	0.23
270.388	0.21
270.76	0.26
271.133	0.26
271.505	0.26
271.877	0.25
272.25	0.25
272.622	0.22
272.994	0.23
273.366	0.25
273.739	0.26
274.111	0.24
274.483	0.24
274.855	0.18
275.227	0.26
275.599	0.29
275.971	0.32
276.343	0.24
276.715	0.32
277.087	0.23
277.459	0.24
277.831	0.33
278.203	0.29
278.574	0.28
278.946	0.39
279.318	0.17
279.69	0.21
280.061	0.2
280.433	0.27
280.805	0.25
281.176	0.21
281.548	0.16
281.92	0.26
282.291	0.29
282.663	0.29
283.034	0.22
283.406	0.28
283.777	0.28
284.148	0.35
284.52	0.3
284.891	0.22
285.262	0.34
285.634	0.23
286.005	0.2
286.376	0.23
286.747	0.29
287.119	0.17
287.49	0.31
287.861	0.25
288.232	0.21
288.603	0.26
288.974	0.31
289.345	0.2
289.716	0.24
290.087	0.26
290.458	0.26
290.829	0.22
291.2	0.24
291.571	0.27
291.941	0.24
292.312	0.25
292.683	0.25
293.054	0.25
293.424	0.24
293.795	0.29
294.166	0.27
294.536	0.29
294.907	0.28
295.277	0.31
295.648	0.24
296.018	0.25
296.389	0.29
296.759	0.26
297.13	0.23
297.5	0.35
297.871	0.27
298.241	0.26
298.611	0.29
298.981	0.22
299.352	0.34
299.722	0.29
300.092	0.21
300.462	0.25
300.832	0.27
301.202	0.29
301.573	0.2
301.943	0.23
302.313	0.24
302.683	0.25
303.053	0.23
303.422	0.24
303.792	0.24
304.162	0.27
304.532	0.26
304.902	0.24
305.272	0.26
305.641	0.26
306.011	0.26
306.381	0.28
306.75	0.26
307.12	0.26
307.49	0.28
307.859	0.28
308.229	0.29
308.598	0.29
308.968	0.29
309.337	0.29
309.707	0.29
310.076	0.3
310.445	0.31
310.815	0.31
311.184	0.31
311.553	0.32
311.923	0.31
312.292	0.32
312.661	0.32
313.03	0.32
313.399	0.32
313.768	0.33
314.137	0.33
314.506	0.32
314.875	0.32
315.244	0.31
315.613	0.32
315.982	0.32
316.351	0.32
316.72	0.31
317.089	0.31
317.458	0.31
317.826	0.31
318.195	0.31
318.564	0.31
318.933	0.3
319.301	0.3
319.67	0.29
320.038	0.3
320.407	0.3
320.775	0.3
321.144	0.29
321.512	0.28
321.881	0.28
322.249	0.28
322.618	0.29
322.986	0.27
323.354	0.28
323.723	0.27
324.091	0.27
324.459	0.27
324.827	0.26
325.195	0.27
325.564	0.27
325.932	0.26
326.3	0.27
326.668	0.27
327.036	0.26
327.404	0.26
327.772	0.27
328.14	0.27
328.508	0.26
328.875	0.27
329.243	0.28
329.611	0.27
329.979	0.27
330.346	0.27
330.714	0.27
331.082	0.28
331.449	0.28
331.817	0.28
332.185	0.28
332.552	0.29
332.92	0.29
333.287	0.29
333.655	0.29
334.022	0.3
334.389	0.3
334.757	0.3
335.124	0.31
335.491	0.31
335.859	0.31
336.226	0.32
336.593	0.32
336.96	0.32
337.327	0.32
337.695	0.33
338.062	0.33
338.429	0.34
338.796	0.35
339.163	0.35
339.53	0.35
339.897	0.37
340.263	0.36
340.63	0.38
340.997	0.38
341.364	0.38
341.731	0.39
342.097	0.4
342.464	0.4
342.831	0.41
343.197	0.42
343.564	0.43
343.931	0.43
344.297	0.44
344.664	0.45
345.03	0.45
345.396	0.45
345.763	0.46
346.129	0.47
346.496	0.48
346.862	0.48
347.228	0.49
347.594	0.49
347.961	0.51
348.327	0.51
348.693	0.52
349.059	0.53
349.425	0.54
349.791	0.54
350.157	0.56
350.523	0.56
350.889	0.57
351.255	0.58
351.621	0.6
351.987	0.61
352.353	0.61
352.719	0.63
353.084	0.64
353.45	0.64
353.816	0.67
354.181	0.67
354.547	0.69
354.913	0.7
355.278	0.71
355.644	0.72
356.009	0.74
356.375	0.76
356.74	0.77
357.106	0.79
357.471	0.8
357.836	0.83
358.202	0.83
358.567	0.84
358.932	0.86
359.297	0.88
359.663	0.88
360.028	0.9
360.393	0.92
360.758	0.93
361.123	0.95
361.488	0.95
361.853	0.96
362.218	0.97
362.583	0.97
362.948	0.98
363.312	1
363.677	1.01
364.042	1.03
364.407	1.03
364.772	1.05
365.136	1.06
365.501	1.09
365.865	1.11
366.23	1.13
366.595	1.15
366.959	1.16
367.324	1.2
367.688	1.21
368.052	1.23
368.417	1.23
368.781	1.25
369.145	1.28
369.51	1.27
369.874	1.28
370.238	1.3
370.602	1.29
370.967	1.27
371.331	1.27
371.695	1.27
372.059	1.26
372.423	1.26
372.787	1.26
373.151	1.24
373.515	1.25
373.878	1.25
374.242	1.24
374.606	1.24
374.97	1.23
375.334	1.22
375.697	1.24
376.061	1.25
376.425	1.25
376.788	1.25
377.152	1.27
377.515	1.28
377.879	1.27
378.242	1.28
378.606	1.31
378.969	1.32
379.333	1.33
379.696	1.33
380.059	1.37
380.422	1.38
380.786	1.4
381.149	1.41
381.512	1.45
381.875	1.46
382.238	1.49
382.601	1.51
382.964	1.53
383.327	1.59
383.69	1.61
384.053	1.66
384.416	1.7
384.779	1.72
385.142	1.73
385.504	1.76
385.867	1.82
386.23	1.78
386.593	1.78
386.955	1.81
387.318	1.82
387.68	1.79
388.043	1.81
388.405	1.79
388.768	1.75
389.13	1.75
389.493	1.74
389.855	1.74
390.217	1.74
390.58	1.77
390.942	1.73
391.304	1.75
391.666	1.76
392.028	1.75
392.391	1.85
392.753	1.83
393.115	1.84
393.477	1.92
393.839	1.95
394.201	1.97
394.563	2.05
394.924	2.07
395.286	2.06
395.648	2.07
396.01	2.11
396.371	2.06
396.733	2.09
397.095	2.09
397.456	2.07
397.818	2.08
398.18	2.08
398.541	2.04
398.903	2.02
399.264	2.04
399.625	2.05
399.987	2
400.348	1.99
400.709	1.98
401.071	1.94
401.432	1.84
401.793	1.74
402.154	1.68
402.515	1.59
402.876	1.5
403.238	1.39
403.599	1.33
403.96	1.23
404.32	1.15
404.681	1.07
405.042	1.01
405.403	0.95
405.764	0.87
406.125	0.81
406.485	0.77
406.846	0.72
407.207	0.67
407.567	0.63
407.928	0.59
408.288	0.57
408.649	0.54
409.009	0.51
409.37	0.48
409.73	0.46
410.091	0.43
410.451	0.41
410.811	0.4
411.171	0.38
411.532	0.37
411.892	0.35
412.252	0.33
412.612	0.32
412.972	0.31
413.332	0.3
413.692	0.29
414.052	0.27
414.412	0.27
414.772	0.26
415.132	0.25
415.492	0.25
415.851	0.24
416.211	0.23
416.571	0.23
416.931	0.22
417.29	0.21
417.65	0.21
418.009	0.2
418.369	0.19
418.728	0.2
419.088	0.19
419.447	0.18
419.807	0.18
420.166	0.18
420.525	0.18
420.884	0.17
421.244	0.17
421.603	0.16
421.962	0.17
422.321	0.16
422.68	0.16
423.039	0.16
423.398	0.15
423.757	0.16
424.116	0.15
424.475	0.15
424.834	0.15
425.193	0.14
425.551	0.14
425.91	0.14
426.269	0.14
426.628	0.13
426.986	0.14
427.345	0.13
427.703	0.13
428.062	0.13
428.42	0.13
428.779	0.13
429.137	0.13
429.496	0.12
429.854	0.13
430.212	0.12
430.57	0.12
430.929	0.12
431.287	0.12
431.645	0.12
432.003	0.11
432.361	0.12
432.719	0.12
433.077	0.12
433.435	0.11
433.793	0.11
434.151	0.12
434.509	0.11
434.866	0.1
435.224	0.11
435.582	0.1
435.94	0.1
436.297	0.11
436.655	0.1
437.012	0.1
437.37	0.1
437.727	0.1
438.085	0.1
438.442	0.1
438.8	0.1
439.157	0.09
439.514	0.1
439.872	0.1
440.229	0.1
440.586	0.09
440.943	0.1
441.3	0.09
441.657	0.09
442.014	0.09
442.371	0.09
442.728	0.09
443.085	0.09
443.442	0.09
443.799	0.09
444.156	0.09
444.513	0.09
444.869	0.08
445.226	0.08
445.583	0.08
445.939	0.08
446.296	0.09
446.652	0.08
447.009	0.09
447.365	0.08
447.722	0.08
448.078	0.08
448.434	0.07
448.791	0.08
449.147	0.07
449.503	0.08
449.859	0.08
450.215	0.07
450.571	0.08
450.928	0.08
451.284	0.07
451.64	0.07
451.995	0.07
452.351	0.06
452.707	0.07
453.063	0.07
453.419	0.07
453.775	0.07
454.13	0.07
454.486	0.06
454.842	0.06
455.197	0.06
455.553	0.05
455.908	0.05
456.264	0.05
456.619	0.05
456.975	0.05
457.33	0.05
457.685	0.04
458.04	0.04
458.396	0.04
458.751	0.05
459.106	0.04
459.461	0.04
459.816	0.03
460.171	0.04
460.526	0.03
460.881	0.02
461.236	0.03
461.591	0.02
461.946	0.02
462.301	0.01
462.655	0.02
463.01	0.02
463.365	0.01
463.719	0.01
464.074	0.01
464.428	0
464.783	0
465.137	0.01
465.492	0.01
465.846	-0
466.201	-0
466.555	-0
466.909	0
467.263	0
467.618	0.01
467.972	0.01
468.326	0.01
468.68	-0
469.034	-0
469.388	0
469.742	0
470.096	0
470.45	0.01
470.804	0.01
471.157	0
471.511	0.01
471.865	0.01
472.218	0.01
472.572	0.01
472.926	0.02
473.279	0.02
473.633	0.02
473.986	0.03
474.34	0.03
474.693	0.03
475.046	0.04
475.4	0.04
475.753	0.04
476.106	0.05
476.459	0.05
476.812	0.06
477.165	0.07
477.519	0.07
477.872	0.07
478.224	0.07
478.577	0.07
478.93	0.08
479.283	0.08
479.636	0.08
479.989	0.09
480.341	0.09
480.694	0.09
481.047	0.1
481.399	0.1
481.752	0.11
482.104	0.1
482.457	0.11
482.809	0.11
483.162	0.12
483.514	0.12
483.866	0.12
484.219	0.12
484.571	0.12
484.923	0.12
485.275	0.13
485.627	0.13
485.979	0.13
486.331	0.14
486.683	0.14
487.035	0.14
487.387	0.14
487.739	0.14
488.091	0.15
488.443	0.15
488.794	0.16
489.146	0.15
489.498	0.15
489.849	0.16
490.201	0.16
490.552	0.16
490.904	0.16
491.255	0.17
491.607	0.17
491.958	0.17
492.309	0.17
492.661	0.18
493.012	0.17
493.363	0.17
493.714	0.18
494.065	0.19
494.416	0.18
494.767	0.19
495.118	0.19
495.469	0.19
495.82	0.2
496.171	0.2
496.522	0.2
496.872	0.2
497.223	0.21
497.574	0.2
497.924	0.21
498.275	0.21
498.626	0.22
498.976	0.22
499.327	0.22
499.677	0.22
500.027	0.22
500.378	0.22
500.728	0.23
501.078	0.23
501.428	0.23
501.779	0.23
502.129	0.23
502.479	0.24
502.829	0.24
503.179	0.24
503.529	0.25
503.879	0.25
504.229	0.25
504.578	0.25
504.928	0.26
505.278	0.26
505.628	0.26
505.977	0.26
506.327	0.26
506.676	0.27
507.026	0.27
507.375	0.28
507.725	0.28
508.074	0.28
508.424	0.29
508.773	0.29
509.122	0.29
509.471	0.29
509.82	0.29
510.17	0.3
510.519	0.3
510.868	0.31
511.217	0.31
511.566	0.31
511.915	0.31
512.263	0.31
512.612	0.32
512.961	0.32
513.31	0.32
513.659	0.33
514.007	0.32
514.356	0.32
514.704	0.33
515.053	0.33
515.401	0.33
515.75	0.34
516.098	0.34
516.447	0.34
516.795	0.35
517.143	0.35
517.491	0.35
517.839	0.36
518.188	0.36
518.536	0.36
518.884	0.36
519.232	0.37
519.58	0.37
519.928	0.37
520.275	0.37
520.623	0.38
520.971	0.38
521.319	0.39
521.666	0.39
522.014	0.39
522.362	0.39
522.709	0.39
523.057	0.4
523.404	0.4
523.752	0.4
524.099	0.41
524.446	0.41
524.794	0.41
525.141	0.41
525.488	0.42
525.835	0.42
526.182	0.43
526.529	0.42
526.876	0.43
527.223	0.43
527.57	0.44
527.917	0.43
528.264	0.44
528.611	0.44
528.958	0.44
529.304	0.45
529.651	0.45
529.998	0.45
530.344	0.46
530.691	0.45
531.037	0.46
531.384	0.47
531.73	0.47
532.076	0.47
532.423	0.48
532.769	0.48
533.115	0.48
533.461	0.48
533.807	0.49
534.154	0.49
534.5	0.5
534.846	0.5
535.192	0.51
535.537	0.5
535.883	0.5
536.229	0.51
536.575	0.51
536.921	0.52
537.266	0.52
537.612	0.52
537.957	0.52
538.303	0.53
538.649	0.54
538.994	0.54
539.339	0.54
539.685	0.55
540.03	0.55
540.375	0.55
540.721	0.55
541.066	0.56
541.411	0.56
541.756	0.56
542.101	0.57
542.446	0.58
542.791	0.57
543.136	0.58
543.481	0.59
543.825	0.59
544.17	0.6
544.515	0.6
544.86	0.61
545.204	0.61
545.549	0.61
545.893	0.62
546.238	0.62
546.582	0.62
546.927	0.62
547.271	0.63
547.615	0.64
547.96	0.64
548.304	0.64
548.648	0.64
548.992	0.65
549.336	0.65
549.68	0.65
550.024	0.66
550.368	0.66
550.712	0.66
551.056	0.67
551.4	0.67
551.743	0.67
552.087	0.67
552.431	0.68
552.774	0.68
553.118	0.68
553.462	0.68
553.805	0.69
554.148	0.69
554.492	0.69
554.835	0.7
555.178	0.7
555.522	0.7
555.865	0.7
556.208	0.71
556.551	0.71
556.894	0.71
557.237	0.71
557.58	0.72
557.923	0.71
558.266	0.71
558.609	0.71
558.952	0.72
559.294	0.72
559.637	0.72
559.98	0.73
560.322	0.73
560.665	0.73
561.007	0.73
561.35	0.73
561.692	0.73
562.034	0.73
562.377	0.74
562.719	0.74
563.061	0.74
563.403	0.74
563.745	0.74
564.088	0.74
564.43	0.75
564.772	0.75
565.113	0.75
565.455	0.76
565.797	0.75
566.139	0.76
566.481	0.76
566.822	0.76
567.164	0.77
567.506	0.76
567.847	0.77
568.189	0.77
568.53	0.76
568.872	0.77
569.213	0.76
569.554	0.77
569.895	0.77
570.237	0.77
570.578	0.77
570.919	0.77
571.26	0.77
571.601	0.77
571.942	0.77
572.283	0.77
572.624	0.77
572.965	0.76
573.306	0.76
573.646	0.77
573.987	0.77
574.328	0.77
574.668	0.77
575.009	0.77
575.349	0.77
575.69	0.77
576.03	0.77
576.37	0.76
576.711	0.76
577.051	0.76
577.391	0.76
577.731	0.77
578.072	0.77
578.412	0.77
578.752	0.77
579.092	0.77
579.431	0.76
579.771	0.74
580.111	0.72
580.451	0.73
580.791	0.76
581.13	0.78
581.47	0.78
581.81	0.78
582.149	0.78
582.489	0.78
582.828	0.77
583.167	0.75
583.507	0.71
583.846	0.69
584.185	0.71
584.525	0.74
584.864	0.77
585.203	0.79
585.542	0.8
585.881	0.8
586.22	0.81
586.559	0.8
586.898	0.79
587.236	0.79
587.575	0.78
587.914	0.79
588.252	0.8
588.591	0.82
588.93	0.82
589.268	0.82
589.607	0.82
589.945	0.83
590.283	0.83
590.622	0.83
590.96	0.84
591.298	0.85
591.636	0.85
591.974	0.85
592.313	0.85
592.651	0.87
592.989	0.87
593.326	0.88
593.664	0.87
594.002	0.88
594.34	0.88
594.678	0.88
595.015	0.88
595.353	0.86
595.691	0.87
596.028	0.89
596.366	0.89
596.703	0.9
597.04	0.91
597.378	0.9
597.715	0.91
598.052	0.91
598.389	0.92
598.726	0.93
599.064	0.93
599.401	0.92
599.738	0.92
600.074	0.93
600.411	0.93
600.748	0.92
601.085	0.92
601.422	0.92
601.758	0.92
602.095	0.93
602.432	0.93
602.768	0.93
603.105	0.93
603.441	0.93
603.777	0.94
604.114	0.94
604.45	0.94
604.786	0.94
605.122	0.94
605.459	0.93
605.795	0.94
606.131	0.93
606.467	0.93
606.803	0.93
607.139	0.93
607.474	0.93
607.81	0.93
608.146	0.93
608.482	0.92
608.817	0.92
609.153	0.92
609.488	0.92
609.824	0.91
610.159	0.91
610.495	0.91
610.83	0.91
611.165	0.91
611.5	0.91
611.836	0.91
612.171	0.91
612.506	0.9
612.841	0.91
613.176	0.9
613.511	0.91
613.845	0.89
614.18	0.9
614.515	0.9
614.85	0.9
615.184	0.89
615.519	0.89
615.854	0.88
616.188	0.88
616.523	0.88
616.857	0.87
617.191	0.87
617.526	0.87
617.86	0.87
618.194	0.86
618.528	0.86
618.862	0.86
619.196	0.86
619.53	0.86
619.864	0.85
620.198	0.85
620.532	0.85
620.866	0.85
621.2	0.85
621.533	0.84
621.867	0.85
622.201	0.84
622.534	0.84
622.868	0.83
623.201	0.83
623.534	0.83
623.868	0.82
624.201	0.82
624.534	0.82
624.868	0.82
625.201	0.81
625.534	0.81
625.867	0.81
626.2	0.8
626.533	0.8
626.865	0.8
627.198	0.78
627.531	0.79
627.864	0.78
628.196	0.78
628.529	0.77
628.862	0.77
629.194	0.76
629.527	0.76
629.859	0.76
630.191	0.75
630.524	0.74
630.856	0.74
631.188	0.74
631.52	0.73
631.852	0.73
632.184	0.73
632.516	0.72
632.848	0.72
633.18	0.72
633.512	0.71
633.844	0.7
634.175	0.69
634.507	0.7
634.839	0.69
635.17	0.68
635.502	0.68
635.833	0.67
636.165	0.66
636.496	0.66
636.827	0.65
637.159	0.65
637.49	0.64
637.821	0.64
638.152	0.63
638.483	0.63
638.814	0.63
639.145	0.62
639.476	0.61
639.807	0.61
640.137	0.61
640.468	0.6
640.799	0.59
641.129	0.59
641.46	0.58
641.791	0.58
642.121	0.58
642.451	0.58
642.782	0.57
643.112	0.57
643.442	0.57
643.773	0.56
644.103	0.56
644.433	0.55
644.763	0.55
645.093	0.55
645.423	0.54
645.753	0.53
646.082	0.53
646.412	0.53
646.742	0.54
647.072	0.53
647.401	0.53
647.731	0.53
648.06	0.52
648.39	0.52
648.719	0.52
649.048	0.52
649.378	0.51
649.707	0.51
650.036	0.51
650.365	0.51
650.694	0.51
651.023	0.5
651.352	0.5
651.681	0.5
652.01	0.5
652.339	0.5
652.668	0.5
652.996	0.5
653.325	0.5
653.654	0.5
653.982	0.5
654.311	0.5
654.639	0.5
654.967	0.5
655.296	0.5
655.624	0.5
655.952	0.49
656.28	0.49
656.609	0.49
656.937	0.49
657.265	0.49
657.593	0.42
657.92	0.28
658.248	0.22
658.576	0.21
658.904	0.29
659.231	0.38
659.559	0.45
659.887	0.48
660.214	0.49
660.542	0.49
660.869	0.49
661.196	0.49
661.524	0.49
661.851	0.49
662.178	0.49
662.505	0.49
662.832	0.49
663.159	0.49
663.486	0.48
663.813	0.49
664.14	0.48
664.467	0.48
664.794	0.48
665.12	0.48
665.447	0.47
665.774	0.47
666.1	0.47
666.427	0.47
666.753	0.47
667.079	0.47
667.406	0.46
667.732	0.46
668.058	0.46
668.384	0.46
668.71	0.46
669.036	0.46
669.362	0.46
669.688	0.46
670.014	0.46
670.34	0.45
670.666	0.45
670.991	0.45
671.317	0.45
671.643	0.45
671.968	0.45
672.294	0.44
672.619	0.44
672.945	0.44
673.27	0.44
673.595	0.43
673.92	0.42
674.246	0.42
674.571	0.42
674.896	0.42
675.221	0.42
675.546	0.42
675.87	0.42
676.195	0.41
676.52	0.41
676.845	0.41
677.169	0.4
677.494	0.4
677.819	0.4
678.143	0.39
678.468	0.39
678.792	0.38
679.116	0.39
679.44	0.38
679.765	0.38
680.089	0.37
680.413	0.37
680.737	0.36
681.061	0.36
681.385	0.36
681.709	0.35
682.033	0.35
682.356	0.35
682.68	0.35
683.004	0.35
683.327	0.34
683.651	0.33
683.974	0.33
684.298	0.33
684.621	0.33
684.944	0.32
685.268	0.32
685.591	0.32
685.914	0.31
686.237	0.31
686.56	0.3
686.883	0.29
687.206	0.29
687.529	0.28
687.852	0.28
688.175	0.28
688.497	0.28
688.82	0.28
689.142	0.27
689.465	0.27
689.787	0.27
690.11	0.27
690.432	0.27
690.755	0.27
691.077	0.26
691.399	0.25
691.721	0.25
692.043	0.25
692.365	0.24
692.687	0.24
693.009	0.24
693.331	0.23
693.653	0.23
693.974	0.23
694.296	0.22
694.618	0.22
694.939	0.22
695.261	0.21
695.582	0.21
695.904	0.21
696.225	0.22
696.546	0.21
696.868	0.21
697.189	0.21
697.51	0.21
697.831	0.2
698.152	0.2
698.473	0.2
698.794	0.19
699.114	0.18
699.435	0.17
699.756	0.17
700.077	0.17
700.397	0.18
700.718	0.18
701.038	0.18
701.359	0.18
701.679	0.18
701.999	0.18
702.32	0.18
702.64	0.17
702.96	0.17
703.28	0.17
703.6	0.17
703.92	0.16
704.24	0.16
704.56	0.16
704.879	0.15
705.199	0.15
705.519	0.15
705.838	0.16
706.158	0.16
706.478	0.15
706.797	0.16
707.116	0.16
707.436	0.16
707.755	0.16
708.074	0.15
708.393	0.15
708.712	0.14
709.031	0.13
709.35	0.13
709.669	0.12
709.988	0.13
710.307	0.13
710.626	0.13
710.944	0.14
711.263	0.14
711.582	0.14
711.9	0.14
712.219	0.14
712.537	0.14
712.855	0.14
713.174	0.14
713.492	0.14
713.81	0.14
714.128	0.14
714.446	0.14
714.764	0.14
715.082	0.13
715.4	0.14
715.718	0.13
716.035	0.13
716.353	0.13
716.671	0.13
716.988	0.13
717.306	0.13
717.623	0.14
717.941	0.14
718.258	0.14
718.575	0.15
718.893	0.15
719.21	0.15
719.527	0.15
719.844	0.15
720.161	0.15
720.478	0.15
720.795	0.15
721.112	0.15
721.428	0.15
721.745	0.16
722.062	0.16
722.378	0.16
722.695	0.16
723.011	0.16
723.328	0.16
723.644	0.16
723.96	0.16
724.276	0.16
724.593	0.17
724.909	0.17
725.225	0.16
725.541	0.17
725.857	0.17
726.173	0.17
726.488	0.17
726.804	0.17
727.12	0.17
727.435	0.17
727.751	0.17
728.067	0.16
728.382	0.17
728.697	0.16
729.013	0.17
729.328	0.16
729.643	0.17
729.958	0.17
730.273	0.17
730.588	0.16
730.903	0.17
731.218	0.17
731.533	0.17
731.848	0.16
732.163	0.17
732.477	0.17
732.792	0.16
733.107	0.15
733.421	0.16
733.736	0.16
734.05	0.16
734.364	0.16
734.678	0.17
734.993	0.16
735.307	0.16
735.621	0.16
735.935	0.16
736.249	0.16
736.563	0.16
736.877	0.16
737.19	0.17
737.504	0.16
737.818	0.16
738.131	0.16
738.445	0.17
738.758	0.16
739.072	0.16
739.385	0.16
739.698	0.16
740.012	0.16
740.325	0.16
740.638	0.16
740.951	0.16
741.264	0.15
741.577	0.15
741.89	0.16
742.203	0.16
742.515	0.16
742.828	0.16
743.141	0.15
743.453	0.15
743.766	0.15
744.078	0.15
744.391	0.15
744.703	0.15
745.015	0.14
745.327	0.14
745.639	0.14
745.952	0.14
746.264	0.14
746.575	0.14
746.887	0.14
747.199	0.14
747.511	0.14
747.823	0.14
748.134	0.13
748.446	0.13
748.757	0.13
749.069	0.13
749.38	0.13
749.692	0.13
750.003	0.13
750.314	0.12
750.625	0.12
750.936	0.12
751.248	0.11
751.559	0.11
751.869	0.11
752.18	0.11
752.491	0.11
752.802	0.1
753.112	0.11
753.423	0.11
753.734	0.11
754.044	0.11
754.355	0.11
754.665	0.11
754.975	0.1
755.285	0.1
755.596	0.1
755.906	0.09
756.216	0.09
756.526	0.09
756.836	0.09
757.146	0.09
757.455	0.09
757.765	0.09
758.075	0.08
758.385	0.08
758.694	0.08
759.004	0.08
759.313	0.08
759.622	0.08
759.932	0.08
760.241	0.08
760.55	0.07
760.859	0.07
761.168	0.07
761.477	0.07
761.786	0.06
762.095	0.06
762.404	0.06
762.713	0.06
763.021	0.06
763.33	0.06
763.639	0.06
763.947	0.06
764.256	0.06
764.564	0.06
764.872	0.06
765.181	0.05
765.489	0.06
765.797	0.05
766.105	0.06
766.413	0.05
766.721	0.05
767.029	0.05
767.337	0.05
767.644	0.05
767.952	0.05
768.26	0.05
768.567	0.06
768.875	0.05
769.182	0.06
769.49	0.06
769.797	0.06
770.104	0.05
770.411	0.05
770.718	0.05
771.026	0.05
771.333	0.05
771.639	0.05
771.946	0.05
772.253	0.05
772.56	0.05
772.867	0.05
773.173	0.05
773.48	0.04
773.786	0.05
774.093	0.04
774.399	0.04
774.705	0.04
775.012	0.04
775.318	0.04
775.624	0.04
775.93	0.04
776.236	0.04
776.542	0.04
776.848	0.04
777.154	0.04
777.459	0.04
777.765	0.04
778.071	0.04
778.376	0.04
778.682	0.04
778.987	0.04
779.292	0.04
779.598	0.05
779.903	0.04
780.208	0.05
780.513	0.05
780.818	0.05
781.123	0.05
781.428	0.05
781.733	0.05
782.038	0.05
782.343	0.05
782.647	0.04
782.952	0.05
783.256	0.04
783.561	0.05
783.865	0.04
784.17	0.04
784.474	0.04
784.778	0.04
785.082	0.04
785.386	0.04
785.69	0.04
785.994	0.04
786.298	0.04
786.602	0.04
786.906	0.04
787.209	0.04
787.513	0.04
787.817	0.04
788.12	0.05
788.424	0.04
788.727	0.04
789.03	0.04
789.333	0.04
789.637	0.04
789.94	0.04
790.243	0.04
790.546	0.04
790.849	0.04
791.152	0.04
791.454	0.04
791.757	0.04
792.06	0.04
792.362	0.04
792.665	0.04
792.967	0.04
793.27	0.04
793.572	0.04
793.874	0.04
794.177	0.04
794.479	0.04
794.781	0.04
795.083	0.04
795.385	0.04
795.687	0.03
795.989	0.04
796.29	0.04
796.592	0.05
796.894	0.05
797.195	0.05
797.497	0.05
797.798	0.05
798.1	0.04
798.401	0.05
798.702	0.05
799.003	0.04
799.304	0.05
799.605	0.05
799.906	0.05
800.207	0.05
800.508	0.04
800.809	0.04
801.11	0.04
801.41	0.04
801.711	0.04
802.011	0.04
802.312	0.04
802.612	0.03
802.913	0.03
803.213	0.04
803.513	0.04
803.813	0.04
804.113	0.04
804.413	0.04
804.713	0.04
805.013	0.05
805.313	0.05
805.613	0.04
805.912	0.04
806.212	0.04
806.511	0.04
806.811	0.04
807.11	0.04
807.41	0.04
807.709	0.05
808.008	0.04
808.307	0.05
808.606	0.05
808.905	0.05
809.204	0.05
809.503	0.05
809.802	0.05
810.101	0.05
810.399	0.04
810.698	0.05
810.997	0.05
811.295	0.05
811.593	0.05
811.892	0.05
812.19	0.04
812.488	0.04
812.786	0.05
813.084	0.05
813.383	0.05
813.68	0.05
813.978	0.06
814.276	0.06
814.574	0.05
814.872	0.06
815.169	0.05
815.467	0.05
815.764	0.05
816.062	0.05
816.359	0.05
816.656	0.05
816.954	0.05
817.251	0.05
817.548	0.06
817.845	0.06
818.142	0.06
818.439	0.06
818.735	0.06
819.032	0.06
819.329	0.06
819.626	0.05
819.922	0.05
820.219	0.06
820.515	0.06
820.811	0.06
821.108	0.05
821.404	0.05
821.7	0.05
821.996	0.05
822.292	0.05
822.588	0.05
822.884	0.06
823.18	0.06
823.475	0.06
823.771	0.05
824.067	0.06
824.362	0.05
824.658	0.06
824.953	0.06
825.249	0.06
825.544	0.05
825.839	0.06
826.134	0.06
826.429	0.06
826.724	0.06
827.019	0.06
827.314	0.06
827.609	0.05
827.904	0.05
828.198	0.05
828.493	0.05
828.787	0.05
829.082	0.05
829.376	0.05
829.671	0.05
829.965	0.05
830.259	0.06
830.553	0.06
830.847	0.07
831.141	0.07
831.435	0.06
831.729	0.06
832.023	0.07
832.317	0.07
832.61	0.07
832.904	0.07
833.197	0.07
833.491	0.07
833.784	0.07
834.077	0.06
834.371	0.07
834.664	0.06
834.957	0.06
835.25	0.06
835.543	0.07
835.836	0.06
836.129	0.07
836.421	0.06
836.714	0.06
837.007	0.06
837.299	0.06
837.592	0.06
837.884	0.07
838.177	0.06
838.469	0.06
838.761	0.05
839.053	0.06
839.345	0.06
839.637	0.06
839.929	0.06
840.221	0.07
840.513	0.07
840.805	0.07
841.096	0.07
841.388	0.07
841.68	0.07
841.971	0.07
842.262	0.07
842.554	0.07
842.845	0.07
843.136	0.08
843.427	0.07
843.718	0.07
844.009	0.07
844.3	0.07
844.591	0.07
844.882	0.06
845.173	0.06
845.463	0.07
845.754	0.07
846.044	0.06
846.335	0.06
846.625	0.06
846.915	0.06
847.206	0.07
847.496	0.08
847.786	0.07
848.076	0.07
848.366	0.07
848.656	0.07
848.945	0.06
849.235	0.07
849.525	0.07
849.814	0.06
850.104	0.06
850.393	0.07
850.683	0.06
850.972	0.07
851.261	0.06
851.551	0.07
851.84	0.07
852.129	0.07
852.418	0.07
852.707	0.07
852.995	0.07
853.284	0.07
853.573	0.07
853.862	0.07
854.15	0.07
854.439	0.07
854.727	0.07
855.015	0.06
855.304	0.08
855.592	0.06
855.88	0.06
856.168	0.06
856.456	0.06
856.744	0.08
857.032	0.07
857.32	0.07
857.607	0.08
857.895	0.06
858.183	0.06
858.47	0.07
858.757	0.06
859.045	0.07
859.332	0.06
859.619	0.05
859.907	0.07
860.194	0.06
860.481	0.06
860.768	0.06
861.054	0.07
861.341	0.06
861.628	0.06
861.915	0.05
862.201	0.06
862.488	0.06
862.774	0.07
863.061	0.06
863.347	0.07
863.633	0.06
863.919	0.04
864.205	0.07
864.491	0.06
864.777	0.07
865.063	0.07
865.349	0.07
865.635	0.07
865.92	0.07
866.206	0.07
866.492	0.07
866.777	0.06
867.062	0.06
867.348	0.07
867.633	0.06
867.918	0.05
868.203	0.06
868.488	0.05
868.773	0.05
869.058	0.07
869.343	0.04
869.628	0.04
869.912	0.01
870.197	0.05
870.482	0.05
870.766	0.04
871.05	0.04
871.335	0.06
871.619	0.08
871.903	0.02
872.187	0.06
872.471	0.05
872.755	0.03
873.039	0.04
873.323	0.07
873.607	0.05
873.89	0
874.174	0.02
874.458	0.05
874.741	-0.01
875.024	0.04
875.308	0
875.591	-0.02
875.874	0.02
876.157	0.11
876.44	0.01
876.723	0.02
877.006	0
877.289	-0.01
877.572	0.09
877.854	0.02
878.137	0.06
878.42	0.06
878.702	-0
878.984	-0.04
879.267	-0
879.549	0.04
879.831	0.05
880.113	0.08
880.395	-0.01
880.677	0.03
880.959	-0.01
