Data from Rubpy_EV_1800_EDTA_Buffered_Absorbance_15-20-23-654.txt Node
Date: Tue Jun 30 15:20:23 BST 2026
User: fpm-admin
Spectrometer: OFX00224
Trigger mode: 0
Integration Time (sec): 7.000000E-2
Scans to average: 3
Nonlinearity correction enabled: false
Boxcar width: 0
Storing dark spectrum: false
XAxis mode: Wavelengths
Number of Pixels in Spectrum: 2136
>>>>>Begin Spectral Data<<<<<
154.91	-0
155.289	-0
155.669	-0
156.048	-0
156.428	-0.45
156.807	-0.29
157.186	-0
157.566	-0.09
157.945	0.15
158.325	-0
158.704	-0
159.083	-0.4
159.462	-0.16
159.842	0.1
160.221	0.33
160.6	-0.64
160.979	-0.76
161.359	-0.3
161.738	-0.06
162.117	-0
162.496	-0.29
162.875	-0.41
163.254	-0
163.633	-0
164.012	-0.22
164.391	0.26
164.77	-0
165.149	-0.01
165.528	0.12
165.907	-1.05
166.286	-0.13
166.665	-0.48
167.044	-1.25
167.423	-0
167.802	1.41
168.181	0.85
168.559	-0
168.938	-0.56
169.317	-0.08
169.696	0.16
170.074	-0.45
170.453	-0
170.832	-0.15
171.21	-0
171.589	-0.11
171.968	-0
172.346	-0.52
172.725	-0
173.103	-0.04
173.482	1.62
173.861	0.58
174.239	-0
174.617	0.68
174.996	-0.51
175.374	-0
175.753	-0.34
176.131	0.87
176.51	1.19
176.888	-0
177.266	1.18
177.645	-0.11
178.023	0.19
178.401	-0.11
178.779	-0.24
179.158	-0.01
179.536	0.86
179.914	-0
180.292	-0.19
180.67	-0
181.048	-0
181.427	0.26
181.805	-0.21
182.183	0.7
182.561	-0
182.939	0.4
183.317	-0.68
183.695	0.6
184.073	0.15
184.451	0.62
184.829	0.26
185.206	-0.62
185.584	-0.12
185.962	-0.3
186.34	-0
186.718	-0
187.096	-0.1
187.473	-0
187.851	-0
188.229	-0.05
188.607	-0.02
188.984	-0.04
189.362	0.04
189.74	-0.03
190.117	0.08
190.495	0
190.872	-0.05
191.25	-0.07
191.627	-0.08
192.005	-0.04
192.382	-0.01
192.76	0.01
193.137	0.04
193.515	-0.1
193.892	-0.04
194.269	0.04
194.647	-0.01
195.024	0.02
195.401	0.08
195.779	-0.08
196.156	-0.04
196.533	-0.01
196.91	0.08
197.288	0.05
197.665	0.1
198.042	0.05
198.419	0.09
198.796	-0
199.173	0.06
199.55	-0.08
199.927	0.01
200.304	-0.03
200.681	-0.01
201.058	0.01
201.435	0.04
201.812	-0.03
202.189	-0.02
202.566	-0.04
202.943	0.01
203.32	-0.01
203.697	-0.02
204.073	0.01
204.45	0.03
204.827	0.03
205.204	-0.01
205.58	-0.06
205.957	-0.01
206.334	-0.08
206.71	-0
207.087	0.03
207.464	-0.05
207.84	0.06
208.217	-0.02
208.593	0.03
208.97	-0.01
209.346	0.02
209.723	-0.03
210.099	-0.09
210.476	0.01
210.852	0.04
211.228	-0.03
211.605	-0.04
211.981	-0.03
212.357	0.03
212.733	-0.11
213.11	0.01
213.486	-0.02
213.862	-0.02
214.238	-0
214.614	-0.06
214.991	-0.03
215.367	-0.03
215.743	0.01
216.119	-0.03
216.495	0.02
216.871	-0
217.247	0.05
217.623	0.03
217.999	0.14
218.375	-0.02
218.751	-0.07
219.127	0.03
219.502	-0.01
219.878	-0.05
220.254	0.05
220.63	0.01
221.006	0.04
221.381	0.07
221.757	0.01
222.133	0.05
222.508	-0
222.884	-0.01
223.26	0.01
223.635	0.01
224.011	0.1
224.386	0.02
224.762	-0.02
225.137	0.02
225.513	-0.02
225.888	-0
226.264	0.05
226.639	0.01
227.014	0.03
227.39	-0.02
227.765	0.06
228.14	-0.02
228.516	0.08
228.891	0.09
229.266	0
229.641	0.03
230.017	0.03
230.392	0.06
230.767	0.08
231.142	-0
231.517	-0.03
231.892	-0.01
232.267	0.02
232.642	0.02
233.017	-0.01
233.392	0.15
233.767	0.03
234.142	-0.03
234.517	0.06
234.892	0.03
235.267	0.04
235.641	0.01
236.016	-0.02
236.391	-0
236.766	-0.04
237.14	0
237.515	0
237.89	0.06
238.264	0.03
238.639	0.03
239.014	0.05
239.388	0.03
239.763	0.03
240.137	0.01
240.512	0.07
240.886	0.02
241.261	0.01
241.635	0.06
242.009	0
242.384	0.08
242.758	0.08
243.132	0.05
243.507	-0.01
243.881	-0.05
244.255	-0.03
244.629	0.01
245.004	-0.06
245.378	0
245.752	0.03
246.126	0.05
246.5	0.06
246.874	-0.01
247.248	-0.06
247.622	0.01
247.996	0.02
248.37	-0.01
248.744	0.05
249.118	0.06
249.492	0.02
249.866	-0
250.24	0.04
250.613	0.01
250.987	0.04
251.361	0.04
251.735	-0.01
252.108	-0.03
252.482	0.05
252.856	-0.05
253.229	-0.04
253.603	-0.02
253.977	0.06
254.35	0.02
254.724	-0
255.097	-0.06
255.471	0.03
255.844	0.03
256.218	0.03
256.591	-0
256.964	0.06
257.338	0.02
257.711	0.05
258.084	0.03
258.458	0.02
258.831	0.07
259.204	0.03
259.577	-0
259.95	0.06
260.323	0.04
260.697	0.01
261.07	0.02
261.443	0.11
261.816	0.05
262.189	0
262.562	0.06
262.935	0.05
263.308	0.04
263.68	0.05
264.053	0.03
264.426	0.01
264.799	0.05
265.172	0.05
265.545	0.02
265.917	0.12
266.29	0.06
266.663	0.06
267.035	0.08
267.408	-0.01
267.781	0.01
268.153	0.01
268.526	0.06
268.898	0.04
269.271	0.02
269.643	-0.02
270.016	-0.03
270.388	0.01
270.76	0.05
271.133	0.07
271.505	0.06
271.877	0.05
272.25	0.02
272.622	-0.02
272.994	0.08
273.366	0.01
273.739	0.01
274.111	0.01
274.483	-0.02
274.855	0.02
275.227	0.06
275.599	0.06
275.971	0.05
276.343	0.03
276.715	0.06
277.087	0.03
277.459	0.02
277.831	0.05
278.203	0.02
278.574	0.05
278.946	0.05
279.318	0.03
279.69	-0.01
280.061	0.04
280.433	0.08
280.805	0.03
281.176	0.02
281.548	0.03
281.92	-0.01
282.291	0.01
282.663	0
283.034	0.02
283.406	0.03
283.777	0.05
284.148	0.02
284.52	0.05
284.891	-0.02
285.262	0.07
285.634	0.03
286.005	0.02
286.376	-0.03
286.747	0.02
287.119	0.02
287.49	0
287.861	-0.01
288.232	0.01
288.603	0.02
288.974	0.07
289.345	-0.05
289.716	0.05
290.087	0.06
290.458	0.01
290.829	-0
291.2	-0.01
291.571	0.04
291.941	0.03
292.312	0.02
292.683	0.01
293.054	0
293.424	0.03
293.795	0.06
294.166	0.07
294.536	0.01
294.907	0.05
295.277	0.03
295.648	0.04
296.018	0.01
296.389	0.03
296.759	0.01
297.13	-0.01
297.5	0.07
297.871	0.05
298.241	0.04
298.611	0.06
298.981	0.04
299.352	0.06
299.722	0.02
300.092	-0.01
300.462	0.05
300.832	0.04
301.202	0.04
301.573	0.02
301.943	0.01
302.313	0
302.683	0.04
303.053	0.02
303.422	0.04
303.792	0.02
304.162	0.04
304.532	0.03
304.902	0.03
305.272	0.03
305.641	0.04
306.011	0.03
306.381	0.04
306.75	0.03
307.12	0.02
307.49	0.04
307.859	0.04
308.229	0.02
308.598	0.02
308.968	0.03
309.337	0.03
309.707	0.04
310.076	0.03
310.445	0.03
310.815	0.04
311.184	0.03
311.553	0.04
311.923	0.03
312.292	0.03
312.661	0.04
313.03	0.03
313.399	0.03
313.768	0.04
314.137	0.03
314.506	0.04
314.875	0.03
315.244	0.04
315.613	0.03
315.982	0.03
316.351	0.03
316.72	0.03
317.089	0.03
317.458	0.03
317.826	0.03
318.195	0.03
318.564	0.03
318.933	0.03
319.301	0.03
319.67	0.03
320.038	0.03
320.407	0.03
320.775	0.03
321.144	0.03
321.512	0.03
321.881	0.03
322.249	0.03
322.618	0.04
322.986	0.03
323.354	0.03
323.723	0.03
324.091	0.02
324.459	0.03
324.827	0.03
325.195	0.02
325.564	0.02
325.932	0.02
326.3	0.02
326.668	0.03
327.036	0.02
327.404	0.02
327.772	0.02
328.14	0.03
328.508	0.02
328.875	0.03
329.243	0.02
329.611	0.02
329.979	0.02
330.346	0.02
330.714	0.02
331.082	0.03
331.449	0.03
331.817	0.03
332.185	0.02
332.552	0.03
332.92	0.03
333.287	0.03
333.655	0.03
334.022	0.03
334.389	0.03
334.757	0.03
335.124	0.03
335.491	0.03
335.859	0.03
336.226	0.03
336.593	0.03
336.96	0.02
337.327	0.03
337.695	0.03
338.062	0.03
338.429	0.03
338.796	0.03
339.163	0.03
339.53	0.03
339.897	0.03
340.263	0.03
340.63	0.03
340.997	0.04
341.364	0.03
341.731	0.03
342.097	0.03
342.464	0.03
342.831	0.03
343.197	0.04
343.564	0.04
343.931	0.04
344.297	0.04
344.664	0.04
345.03	0.04
345.396	0.04
345.763	0.04
346.129	0.04
346.496	0.04
346.862	0.04
347.228	0.04
347.594	0.04
347.961	0.04
348.327	0.04
348.693	0.05
349.059	0.05
349.425	0.05
349.791	0.05
350.157	0.05
350.523	0.05
350.889	0.06
351.255	0.05
351.621	0.05
351.987	0.06
352.353	0.06
352.719	0.06
353.084	0.06
353.45	0.06
353.816	0.06
354.181	0.07
354.547	0.06
354.913	0.06
355.278	0.07
355.644	0.06
356.009	0.07
356.375	0.07
356.74	0.07
357.106	0.08
357.471	0.07
357.836	0.08
358.202	0.08
358.567	0.08
358.932	0.08
359.297	0.08
359.663	0.08
360.028	0.09
360.393	0.09
360.758	0.09
361.123	0.09
361.488	0.09
361.853	0.09
362.218	0.09
362.583	0.09
362.948	0.09
363.312	0.1
363.677	0.1
364.042	0.1
364.407	0.1
364.772	0.1
365.136	0.11
365.501	0.11
365.865	0.11
366.23	0.11
366.595	0.12
366.959	0.12
367.324	0.12
367.688	0.12
368.052	0.13
368.417	0.13
368.781	0.13
369.145	0.14
369.51	0.14
369.874	0.14
370.238	0.14
370.602	0.13
370.967	0.14
371.331	0.13
371.695	0.14
372.059	0.14
372.423	0.14
372.787	0.13
373.151	0.13
373.515	0.14
373.878	0.13
374.242	0.13
374.606	0.13
374.97	0.14
375.334	0.13
375.697	0.13
376.061	0.14
376.425	0.14
376.788	0.14
377.152	0.14
377.515	0.14
377.879	0.14
378.242	0.15
378.606	0.15
378.969	0.15
379.333	0.15
379.696	0.15
380.059	0.16
380.422	0.16
380.786	0.16
381.149	0.16
381.512	0.17
381.875	0.17
382.238	0.18
382.601	0.18
382.964	0.19
383.327	0.19
383.69	0.2
384.053	0.2
384.416	0.21
384.779	0.21
385.142	0.22
385.504	0.22
385.867	0.22
386.23	0.22
386.593	0.23
386.955	0.23
387.318	0.23
387.68	0.23
388.043	0.23
388.405	0.23
388.768	0.22
389.13	0.22
389.493	0.22
389.855	0.22
390.217	0.22
390.58	0.22
390.942	0.22
391.304	0.22
391.666	0.22
392.028	0.22
392.391	0.23
392.753	0.24
393.115	0.25
393.477	0.26
393.839	0.26
394.201	0.28
394.563	0.29
394.924	0.3
395.286	0.31
395.648	0.32
396.01	0.34
396.371	0.34
396.733	0.35
397.095	0.36
397.456	0.37
397.818	0.36
398.18	0.36
398.541	0.36
398.903	0.35
399.264	0.34
399.625	0.33
399.987	0.31
400.348	0.3
400.709	0.28
401.071	0.27
401.432	0.25
401.793	0.23
402.154	0.22
402.515	0.2
402.876	0.19
403.238	0.17
403.599	0.16
403.96	0.15
404.32	0.14
404.681	0.13
405.042	0.12
405.403	0.11
405.764	0.11
406.125	0.09
406.485	0.09
406.846	0.08
407.207	0.08
407.567	0.07
407.928	0.07
408.288	0.07
408.649	0.06
409.009	0.06
409.37	0.05
409.73	0.05
410.091	0.05
410.451	0.05
410.811	0.05
411.171	0.04
411.532	0.04
411.892	0.04
412.252	0.04
412.612	0.03
412.972	0.04
413.332	0.03
413.692	0.03
414.052	0.03
414.412	0.03
414.772	0.03
415.132	0.03
415.492	0.03
415.851	0.03
416.211	0.02
416.571	0.03
416.931	0.02
417.29	0.03
417.65	0.02
418.009	0.02
418.369	0.02
418.728	0.02
419.088	0.02
419.447	0.02
419.807	0.01
420.166	0.02
420.525	0.02
420.884	0.02
421.244	0.02
421.603	0.02
421.962	0.02
422.321	0.02
422.68	0.02
423.039	0.02
423.398	0.02
423.757	0.02
424.116	0.02
424.475	0.01
424.834	0.01
425.193	0.02
425.551	0.01
425.91	0.02
426.269	0.01
426.628	0.01
426.986	0.01
427.345	0.02
427.703	0.02
428.062	0.01
428.42	0.01
428.779	0.01
429.137	0.02
429.496	0.01
429.854	0.01
430.212	0.02
430.57	0.01
430.929	0.01
431.287	0.01
431.645	0.01
432.003	0.01
432.361	0.02
432.719	0.02
433.077	0.01
433.435	0.01
433.793	0.02
434.151	0.02
434.509	0.01
434.866	0
435.224	0.01
435.582	0.01
435.94	0.01
436.297	0.02
436.655	0.01
437.012	0.01
437.37	0.02
437.727	0.02
438.085	0.01
438.442	0.01
438.8	0.01
439.157	0
439.514	0.01
439.872	0.01
440.229	0.01
440.586	0.01
440.943	0.02
441.3	0.01
441.657	0.01
442.014	0.01
442.371	0.01
442.728	0.01
443.085	0
443.442	0.01
443.799	0.01
444.156	0.01
444.513	0.02
444.869	0
445.226	0
445.583	0
445.939	0
446.296	0.01
446.652	0
447.009	-0
447.365	-0
447.722	-0
448.078	0
448.434	0
448.791	0
449.147	-0
449.503	0
449.859	0
450.215	-0.01
450.571	-0
450.928	-0.01
451.284	-0
451.64	0
451.995	-0
452.351	-0.01
452.707	-0
453.063	-0
453.419	-0.01
453.775	-0.01
454.13	-0.01
454.486	-0.01
454.842	-0.02
455.197	-0.01
455.553	-0.02
455.908	-0.01
456.264	-0.02
456.619	-0.02
456.975	-0.02
457.33	-0.02
457.685	-0.03
458.04	-0.02
458.396	-0.03
458.751	-0.02
459.106	-0.04
459.461	-0.03
459.816	-0.03
460.171	-0.04
460.526	-0.03
460.881	-0.04
461.236	-0.04
461.591	-0.04
461.946	-0.04
462.301	-0.06
462.655	-0.05
463.01	-0.05
463.365	-0.05
463.719	-0.06
464.074	-0.06
464.428	-0.06
464.783	-0.07
465.137	-0.06
465.492	-0.06
465.846	-0.07
466.201	-0.07
466.555	-0.07
466.909	-0.07
467.263	-0.07
467.618	-0.06
467.972	-0.06
468.326	-0.07
468.68	-0.07
469.034	-0.07
469.388	-0.07
469.742	-0.07
470.096	-0.07
470.45	-0.07
470.804	-0.08
471.157	-0.07
471.511	-0.08
471.865	-0.06
472.218	-0.07
472.572	-0.07
472.926	-0.07
473.279	-0.07
473.633	-0.07
473.986	-0.06
474.34	-0.06
474.693	-0.05
475.046	-0.05
475.4	-0.05
475.753	-0.05
476.106	-0.04
476.459	-0.04
476.812	-0.04
477.165	-0.03
477.519	-0.03
477.872	-0.03
478.224	-0.03
478.577	-0.03
478.93	-0.02
479.283	-0.03
479.636	-0.03
479.989	-0.02
480.341	-0.02
480.694	-0.02
481.047	-0.02
481.399	-0.02
481.752	-0.01
482.104	-0.01
482.457	-0.01
482.809	-0.01
483.162	-0.01
483.514	-0.01
483.866	-0
484.219	-0.01
484.571	-0
484.923	-0.01
485.275	-0.01
485.627	-0
485.979	-0
486.331	0
486.683	-0
487.035	0
487.387	-0
487.739	-0
488.091	0
488.443	0
488.794	0.01
489.146	0
489.498	0
489.849	0
490.201	0
490.552	0
490.904	0.01
491.255	0.01
491.607	0
491.958	0.01
492.309	0
492.661	0.01
493.012	0.01
493.363	0
493.714	0
494.065	0.01
494.416	0.01
494.767	0.01
495.118	0.01
495.469	0.01
495.82	0.01
496.171	0.01
496.522	0.02
496.872	0.01
497.223	0.01
497.574	0.01
497.924	0.02
498.275	0.01
498.626	0.02
498.976	0.02
499.327	0.02
499.677	0.02
500.027	0.02
500.378	0.02
500.728	0.02
501.078	0.02
501.428	0.01
501.779	0.02
502.129	0.02
502.479	0.02
502.829	0.02
503.179	0.01
503.529	0.02
503.879	0.02
504.229	0.02
504.578	0.02
504.928	0.02
505.278	0.02
505.628	0.02
505.977	0.02
506.327	0.02
506.676	0.02
507.026	0.02
507.375	0.02
507.725	0.02
508.074	0.02
508.424	0.02
508.773	0.03
509.122	0.03
509.471	0.02
509.82	0.03
510.17	0.03
510.519	0.03
510.868	0.03
511.217	0.02
511.566	0.03
511.915	0.02
512.263	0.03
512.612	0.03
512.961	0.03
513.31	0.03
513.659	0.03
514.007	0.03
514.356	0.02
514.704	0.03
515.053	0.03
515.401	0.03
515.75	0.03
516.098	0.03
516.447	0.03
516.795	0.03
517.143	0.03
517.491	0.03
517.839	0.03
518.188	0.04
518.536	0.04
518.884	0.04
519.232	0.04
519.58	0.04
519.928	0.04
520.275	0.03
520.623	0.03
520.971	0.04
521.319	0.04
521.666	0.04
522.014	0.04
522.362	0.04
522.709	0.04
523.057	0.04
523.404	0.04
523.752	0.04
524.099	0.04
524.446	0.04
524.794	0.04
525.141	0.04
525.488	0.04
525.835	0.04
526.182	0.04
526.529	0.04
526.876	0.04
527.223	0.04
527.57	0.04
527.917	0.05
528.264	0.04
528.611	0.04
528.958	0.04
529.304	0.05
529.651	0.05
529.998	0.05
530.344	0.05
530.691	0.05
531.037	0.05
531.384	0.05
531.73	0.05
532.076	0.05
532.423	0.05
532.769	0.05
533.115	0.05
533.461	0.05
533.807	0.05
534.154	0.05
534.5	0.05
534.846	0.05
535.192	0.06
535.537	0.05
535.883	0.05
536.229	0.05
536.575	0.05
536.921	0.05
537.266	0.06
537.612	0.05
537.957	0.05
538.303	0.06
538.649	0.05
538.994	0.05
539.339	0.06
539.685	0.06
540.03	0.06
540.375	0.06
540.721	0.06
541.066	0.06
541.411	0.06
541.756	0.06
542.101	0.06
542.446	0.06
542.791	0.06
543.136	0.06
543.481	0.06
543.825	0.06
544.17	0.07
544.515	0.06
544.86	0.07
545.204	0.06
545.549	0.07
545.893	0.06
546.238	0.06
546.582	0.06
546.927	0.07
547.271	0.07
547.615	0.07
547.96	0.07
548.304	0.07
548.648	0.07
548.992	0.07
549.336	0.07
549.68	0.07
550.024	0.07
550.368	0.07
550.712	0.07
551.056	0.07
551.4	0.07
551.743	0.07
552.087	0.07
552.431	0.07
552.774	0.07
553.118	0.07
553.462	0.07
553.805	0.07
554.148	0.07
554.492	0.07
554.835	0.07
555.178	0.08
555.522	0.08
555.865	0.08
556.208	0.08
556.551	0.08
556.894	0.08
557.237	0.08
557.58	0.08
557.923	0.07
558.266	0.08
558.609	0.08
558.952	0.08
559.294	0.08
559.637	0.08
559.98	0.08
560.322	0.08
560.665	0.08
561.007	0.08
561.35	0.08
561.692	0.08
562.034	0.08
562.377	0.08
562.719	0.08
563.061	0.08
563.403	0.08
563.745	0.08
564.088	0.08
564.43	0.08
564.772	0.08
565.113	0.08
565.455	0.08
565.797	0.08
566.139	0.08
566.481	0.09
566.822	0.08
567.164	0.08
567.506	0.09
567.847	0.09
568.189	0.09
568.53	0.09
568.872	0.08
569.213	0.09
569.554	0.08
569.895	0.08
570.237	0.08
570.578	0.08
570.919	0.08
571.26	0.08
571.601	0.08
571.942	0.08
572.283	0.08
572.624	0.08
572.965	0.08
573.306	0.08
573.646	0.08
573.987	0.08
574.328	0.08
574.668	0.08
575.009	0.08
575.349	0.08
575.69	0.08
576.03	0.08
576.37	0.08
576.711	0.07
577.051	0.07
577.391	0.08
577.731	0.08
578.072	0.08
578.412	0.08
578.752	0.08
579.092	0.08
579.431	0.07
579.771	0.05
580.111	0.04
580.451	0.04
580.791	0.06
581.13	0.08
581.47	0.08
581.81	0.08
582.149	0.08
582.489	0.08
582.828	0.07
583.167	0.05
583.507	0.02
583.846	0.01
584.185	0.02
584.525	0.03
584.864	0.06
585.203	0.08
585.542	0.08
585.881	0.08
586.22	0.08
586.559	0.08
586.898	0.07
587.236	0.06
587.575	0.05
587.914	0.06
588.252	0.07
588.591	0.08
588.93	0.08
589.268	0.08
589.607	0.08
589.945	0.08
590.283	0.08
590.622	0.08
590.96	0.09
591.298	0.09
591.636	0.09
591.974	0.09
592.313	0.09
592.651	0.09
592.989	0.09
593.326	0.09
593.664	0.09
594.002	0.09
594.34	0.09
594.678	0.09
595.015	0.09
595.353	0.07
595.691	0.08
596.028	0.09
596.366	0.09
596.703	0.09
597.04	0.1
597.378	0.1
597.715	0.1
598.052	0.1
598.389	0.1
598.726	0.1
599.064	0.1
599.401	0.1
599.738	0.1
600.074	0.1
600.411	0.1
600.748	0.1
601.085	0.09
601.422	0.09
601.758	0.09
602.095	0.09
602.432	0.09
602.768	0.09
603.105	0.09
603.441	0.1
603.777	0.1
604.114	0.1
604.45	0.1
604.786	0.1
605.122	0.1
605.459	0.1
605.795	0.1
606.131	0.1
606.467	0.1
606.803	0.1
607.139	0.1
607.474	0.1
607.81	0.1
608.146	0.1
608.482	0.1
608.817	0.1
609.153	0.1
609.488	0.09
609.824	0.09
610.159	0.1
610.495	0.09
610.83	0.1
611.165	0.1
611.5	0.09
611.836	0.1
612.171	0.1
612.506	0.1
612.841	0.1
613.176	0.1
613.511	0.1
613.845	0.1
614.18	0.1
614.515	0.1
614.85	0.1
615.184	0.1
615.519	0.1
615.854	0.1
616.188	0.1
616.523	0.1
616.857	0.1
617.191	0.1
617.526	0.1
617.86	0.1
618.194	0.09
618.528	0.1
618.862	0.1
619.196	0.1
619.53	0.1
619.864	0.09
620.198	0.09
620.532	0.09
620.866	0.09
621.2	0.1
621.533	0.1
621.867	0.09
622.201	0.1
622.534	0.1
622.868	0.09
623.201	0.1
623.534	0.09
623.868	0.09
624.201	0.09
624.534	0.09
624.868	0.09
625.201	0.09
625.534	0.09
625.867	0.09
626.2	0.09
626.533	0.09
626.865	0.09
627.198	0.09
627.531	0.09
627.864	0.09
628.196	0.09
628.529	0.09
628.862	0.09
629.194	0.09
629.527	0.09
629.859	0.09
630.191	0.08
630.524	0.08
630.856	0.08
631.188	0.08
631.52	0.08
631.852	0.08
632.184	0.08
632.516	0.08
632.848	0.08
633.18	0.08
633.512	0.08
633.844	0.08
634.175	0.08
634.507	0.08
634.839	0.08
635.17	0.08
635.502	0.07
635.833	0.07
636.165	0.07
636.496	0.07
636.827	0.07
637.159	0.07
637.49	0.07
637.821	0.07
638.152	0.07
638.483	0.07
638.814	0.07
639.145	0.07
639.476	0.07
639.807	0.07
640.137	0.07
640.468	0.06
640.799	0.06
641.129	0.06
641.46	0.06
641.791	0.06
642.121	0.06
642.451	0.06
642.782	0.06
643.112	0.07
643.442	0.07
643.773	0.06
644.103	0.06
644.433	0.06
644.763	0.06
645.093	0.06
645.423	0.06
645.753	0.06
646.082	0.06
646.412	0.06
646.742	0.06
647.072	0.06
647.401	0.06
647.731	0.06
648.06	0.05
648.39	0.06
648.719	0.06
649.048	0.06
649.378	0.06
649.707	0.06
650.036	0.05
650.365	0.05
650.694	0.05
651.023	0.05
651.352	0.05
651.681	0.05
652.01	0.05
652.339	0.05
652.668	0.05
652.996	0.05
653.325	0.05
653.654	0.05
653.982	0.05
654.311	0.05
654.639	0.06
654.967	0.06
655.296	0.06
655.624	0.06
655.952	0.06
656.28	0.05
656.609	0.05
656.937	0.05
657.265	0.05
657.593	0.01
657.92	0
658.248	0
658.576	-0
658.904	0
659.231	0
659.559	0.03
659.887	0.06
660.214	0.06
660.542	0.06
660.869	0.06
661.196	0.06
661.524	0.06
661.851	0.06
662.178	0.06
662.505	0.06
662.832	0.06
663.159	0.06
663.486	0.06
663.813	0.06
664.14	0.05
664.467	0.06
664.794	0.06
665.12	0.06
665.447	0.05
665.774	0.05
666.1	0.05
666.427	0.05
666.753	0.05
667.079	0.05
667.406	0.05
667.732	0.05
668.058	0.05
668.384	0.05
668.71	0.05
669.036	0.05
669.362	0.05
669.688	0.05
670.014	0.05
670.34	0.05
670.666	0.05
670.991	0.05
671.317	0.05
671.643	0.06
671.968	0.06
672.294	0.06
672.619	0.06
672.945	0.06
673.27	0.05
673.595	0.05
673.92	0.05
674.246	0.05
674.571	0.05
674.896	0.05
675.221	0.05
675.546	0.05
675.87	0.05
676.195	0.05
676.52	0.05
676.845	0.05
677.169	0.05
677.494	0.05
677.819	0.05
678.143	0.04
678.468	0.04
678.792	0.05
679.116	0.05
679.44	0.05
679.765	0.05
680.089	0.05
680.413	0.04
680.737	0.04
681.061	0.04
681.385	0.04
681.709	0.04
682.033	0.04
682.356	0.04
682.68	0.04
683.004	0.04
683.327	0.04
683.651	0.04
683.974	0.04
684.298	0.04
684.621	0.04
684.944	0.04
685.268	0.04
685.591	0.04
685.914	0.04
686.237	0.03
686.56	0.03
686.883	0.03
687.206	0.03
687.529	0.03
687.852	0.03
688.175	0.03
688.497	0.03
688.82	0.03
689.142	0.03
689.465	0.03
689.787	0.03
690.11	0.03
690.432	0.03
690.755	0.03
691.077	0.03
691.399	0.03
691.721	0.03
692.043	0.03
692.365	0.03
692.687	0.03
693.009	0.03
693.331	0.02
693.653	0.02
693.974	0.02
694.296	0.02
694.618	0.02
694.939	0.02
695.261	0.02
695.582	0.02
695.904	0.02
696.225	0.03
696.546	0.03
696.868	0.03
697.189	0.03
697.51	0.03
697.831	0.02
698.152	0.02
698.473	0.02
698.794	0.02
699.114	0.02
699.435	0.01
699.756	0.01
700.077	0.01
700.397	0.01
700.718	0.01
701.038	0.02
701.359	0.02
701.679	0.02
701.999	0.02
702.32	0.02
702.64	0.02
702.96	0.02
703.28	0.02
703.6	0.02
703.92	0.02
704.24	0.01
704.56	0.01
704.879	0.01
705.199	0.01
705.519	0.01
705.838	0.01
706.158	0.01
706.478	0.01
706.797	0.02
707.116	0.02
707.436	0.02
707.755	0.01
708.074	0.01
708.393	0.01
708.712	0.01
709.031	0
709.35	0
709.669	0
709.988	0
710.307	0.01
710.626	0.01
710.944	0.01
711.263	0.01
711.582	0.01
711.9	0.01
712.219	0.01
712.537	0.01
712.855	0.01
713.174	0.01
713.492	0.01
713.81	0.01
714.128	0.01
714.446	0.01
714.764	0.01
715.082	0.01
715.4	0.01
715.718	0.01
716.035	0.01
716.353	0.01
716.671	0.01
716.988	0.01
717.306	0.01
717.623	0.01
717.941	0.01
718.258	0.01
718.575	0.01
718.893	0.01
719.21	0.01
719.527	0.01
719.844	0.01
720.161	0.02
720.478	0.01
720.795	0.01
721.112	0.01
721.428	0.02
721.745	0.02
722.062	0.02
722.378	0.02
722.695	0.02
723.011	0.02
723.328	0.02
723.644	0.02
723.96	0.02
724.276	0.01
724.593	0.02
724.909	0.02
725.225	0.01
725.541	0.02
725.857	0.02
726.173	0.02
726.488	0.02
726.804	0.02
727.12	0.02
727.435	0.02
727.751	0.02
728.067	0.02
728.382	0.02
728.697	0.02
729.013	0.02
729.328	0.02
729.643	0.02
729.958	0.02
730.273	0.02
730.588	0.02
730.903	0.02
731.218	0.01
731.533	0.01
731.848	0.01
732.163	0.01
732.477	0.01
732.792	0.01
733.107	0.01
733.421	0.01
733.736	0.01
734.05	0.01
734.364	0.01
734.678	0.01
734.993	0.01
735.307	0.01
735.621	0.01
735.935	0.01
736.249	0.01
736.563	0.01
736.877	0.02
737.19	0.02
737.504	0.02
737.818	0.02
738.131	0.02
738.445	0.02
738.758	0.02
739.072	0.02
739.385	0.02
739.698	0.02
740.012	0.01
740.325	0.01
740.638	0.01
740.951	0.02
741.264	0.02
741.577	0.02
741.89	0.02
742.203	0.02
742.515	0.02
742.828	0.01
743.141	0.01
743.453	0.01
743.766	0.01
744.078	0.02
744.391	0.02
744.703	0.02
745.015	0.02
745.327	0.01
745.639	0.01
745.952	0.01
746.264	0.02
746.575	0.02
746.887	0.02
747.199	0.02
747.511	0.02
747.823	0.02
748.134	0.01
748.446	0.01
748.757	0.01
749.069	0.01
749.38	0.01
749.692	0.02
750.003	0.02
750.314	0.02
750.625	0.02
750.936	0.02
751.248	0.01
751.559	0.01
751.869	0.01
752.18	0.01
752.491	0.01
752.802	0.01
753.112	0.01
753.423	0.01
753.734	0.01
754.044	0.01
754.355	0.01
754.665	0.01
754.975	0.01
755.285	0.01
755.596	0.01
755.906	0.01
756.216	0.01
756.526	0.01
756.836	0.01
757.146	0.01
757.455	0.01
757.765	0.01
758.075	0.01
758.385	0.01
758.694	0.01
759.004	0.01
759.313	0.01
759.622	0.01
759.932	0.01
760.241	0.01
760.55	0.01
760.859	0.01
761.168	0.01
761.477	0.01
761.786	0
762.095	0
762.404	0
762.713	0
763.021	0.01
763.33	0.01
763.639	0
763.947	0
764.256	0.01
764.564	0
764.872	0.01
765.181	0.01
765.489	0.01
765.797	0.01
766.105	0.01
766.413	0
766.721	0
767.029	0
767.337	0
767.644	-0
767.952	-0
768.26	0
768.567	0
768.875	0.01
769.182	0.01
769.49	0.01
769.797	0.01
770.104	0.01
770.411	0.01
770.718	0.01
771.026	0.01
771.333	0.01
771.639	0.01
771.946	0.01
772.253	0.01
772.56	0.01
772.867	0
773.173	0
773.48	0
773.786	0
774.093	0
774.399	0
774.705	-0
775.012	-0
775.318	-0
775.624	0
775.93	-0
776.236	-0
776.542	-0
776.848	0
777.154	0
777.459	0
777.765	0.01
778.071	0.01
778.376	0.01
778.682	0.01
778.987	0.01
779.292	0
779.598	0.01
779.903	0.01
780.208	0.01
780.513	0
780.818	0.01
781.123	0
781.428	0.01
781.733	0.01
782.038	0.01
782.343	0.01
782.647	0.01
782.952	0.01
783.256	0.01
783.561	0.01
783.865	0.01
784.17	0.01
784.474	0
784.778	0.01
785.082	0.01
785.386	0
785.69	0
785.994	0
786.298	0
786.602	0.01
786.906	0
787.209	0.01
787.513	0.01
787.817	0.01
788.12	0.01
788.424	0.01
788.727	0.01
789.03	0.01
789.333	0.01
789.637	0.01
789.94	0.01
790.243	0.01
790.546	0.01
790.849	0.01
791.152	0.01
791.454	0.01
791.757	0.01
792.06	0.01
792.362	0.01
792.665	0.01
792.967	0.01
793.27	0.01
793.572	0.01
793.874	0.01
794.177	0.01
794.479	0.01
794.781	0.01
795.083	0.01
795.385	0
795.687	0
795.989	0
796.29	0.01
796.592	0.01
796.894	0.01
797.195	0.01
797.497	0.01
797.798	0.01
798.1	0.01
798.401	0.01
798.702	0.02
799.003	0.01
799.304	0.01
799.605	0.02
799.906	0.02
800.207	0.02
800.508	0.01
800.809	0.01
801.11	0.01
801.41	0.01
801.711	0.01
802.011	0.01
802.312	0
802.612	0
802.913	0
803.213	0
803.513	0
803.813	0
804.113	0
804.413	0.01
804.713	0
805.013	0.01
805.313	0.01
805.613	0.01
805.912	0.01
806.212	0.01
806.511	0.01
806.811	0.01
807.11	0.01
807.41	0.01
807.709	0.01
808.008	0.01
808.307	0.01
808.606	0.02
808.905	0.01
809.204	0.01
809.503	0.01
809.802	0.01
810.101	0.01
810.399	0.01
810.698	0.01
810.997	0.02
811.295	0.02
811.593	0.02
811.892	0.02
812.19	0.01
812.488	0.02
812.786	0.02
813.084	0.02
813.383	0.02
813.68	0.02
813.978	0.02
814.276	0.02
814.574	0.01
814.872	0.02
815.169	0.01
815.467	0.01
815.764	0.02
816.062	0.01
816.359	0.01
816.656	0.02
816.954	0.01
817.251	0.02
817.548	0.02
817.845	0.02
818.142	0.02
818.439	0.02
818.735	0.02
819.032	0.02
819.329	0.02
819.626	0.02
819.922	0.02
820.219	0.02
820.515	0.02
820.811	0.02
821.108	0.02
821.404	0.02
821.7	0.01
821.996	0.02
822.292	0.01
822.588	0.01
822.884	0.02
823.18	0.02
823.475	0.02
823.771	0.02
824.067	0.02
824.362	0.02
824.658	0.02
824.953	0.02
825.249	0.02
825.544	0.02
825.839	0.02
826.134	0.02
826.429	0.03
826.724	0.03
827.019	0.03
827.314	0.03
827.609	0.02
827.904	0.01
828.198	0.02
828.493	0.02
828.787	0.02
829.082	0.01
829.376	0.01
829.671	0.02
829.965	0.02
830.259	0.02
830.553	0.02
830.847	0.03
831.141	0.03
831.435	0.03
831.729	0.03
832.023	0.03
832.317	0.03
832.61	0.03
832.904	0.03
833.197	0.03
833.491	0.03
833.784	0.03
834.077	0.02
834.371	0.03
834.664	0.02
834.957	0.03
835.25	0.02
835.543	0.03
835.836	0.03
836.129	0.03
836.421	0.02
836.714	0.03
837.007	0.02
837.299	0.02
837.592	0.02
837.884	0.03
838.177	0.02
838.469	0.02
838.761	0.02
839.053	0.02
839.345	0.03
839.637	0.03
839.929	0.03
840.221	0.04
840.513	0.03
840.805	0.03
841.096	0.03
841.388	0.03
841.68	0.03
841.971	0.03
842.262	0.03
842.554	0.03
842.845	0.03
843.136	0.03
843.427	0.03
843.718	0.03
844.009	0.03
844.3	0.03
844.591	0.03
844.882	0.03
845.173	0.02
845.463	0.03
845.754	0.03
846.044	0.02
846.335	0.03
846.625	0.03
846.915	0.03
847.206	0.03
847.496	0.04
847.786	0.03
848.076	0.03
848.366	0.03
848.656	0.03
848.945	0.03
849.235	0.04
849.525	0.04
849.814	0.03
850.104	0.02
850.393	0.03
850.683	0.03
850.972	0.02
851.261	0.03
851.551	0.03
851.84	0.03
852.129	0.03
852.418	0.03
852.707	0.03
852.995	0.03
853.284	0.02
853.573	0.03
853.862	0.03
854.15	0.04
854.439	0.04
854.727	0.04
855.015	0.03
855.304	0.03
855.592	0.02
855.88	0.01
856.168	0.02
856.456	0.03
856.744	0.03
857.032	0.03
857.32	0.03
857.607	0.05
857.895	0.03
858.183	0.04
858.47	0.02
858.757	0.02
859.045	0.05
859.332	0.03
859.619	0.04
859.907	0.02
860.194	0.02
860.481	0.04
860.768	0.05
861.054	0.04
861.341	0.03
861.628	0.01
861.915	0.04
862.201	0.03
862.488	0.02
862.774	0.03
863.061	0.02
863.347	0.02
863.633	0.03
863.919	0.02
864.205	0.02
864.491	0.03
864.777	0.03
865.063	0.01
865.349	0.02
865.635	0.03
865.92	0.02
866.206	0.02
866.492	0.01
866.777	0.03
867.062	0.03
867.348	0.02
867.633	0.03
867.918	0.01
868.203	0.03
868.488	0.03
868.773	0.02
869.058	0.04
869.343	-0.01
869.628	0.01
869.912	0.01
870.197	0.02
870.482	0.05
870.766	-0
871.05	0.01
871.335	0.02
871.619	0.04
871.903	0.03
872.187	0.01
872.471	0.01
872.755	0.01
873.039	0.01
873.323	0.04
873.607	0.01
873.89	-0.02
874.174	-0
874.458	-0.03
874.741	0
875.024	0
875.308	0.06
875.591	-0.02
875.874	-0.03
876.157	-0.03
876.44	0.01
876.723	-0.01
877.006	-0.01
877.289	-0.06
877.572	0
877.854	-0
878.137	-0.01
878.42	0.01
878.702	-0.02
878.984	-0.03
879.267	-0.05
879.549	0.03
879.831	-0.03
880.113	0.13
880.395	0.03
880.677	0.04
880.959	0.02
