Data from Rubpy_EV_1800_EDTA_Buffered_Absorbance_15-21-36-595.txt Node
Date: Tue Jun 30 15:21:36 BST 2026
User: fpm-admin
Spectrometer: OFX00224
Trigger mode: 0
Integration Time (sec): 7.000000E-2
Scans to average: 3
Nonlinearity correction enabled: false
Boxcar width: 0
Storing dark spectrum: false
XAxis mode: Wavelengths
Number of Pixels in Spectrum: 2136
>>>>>Begin Spectral Data<<<<<
154.91	-0
155.289	-0
155.669	-0
156.048	-0
156.428	-0.48
156.807	0.07
157.186	-0
157.566	0.03
157.945	1.01
158.325	-0.62
158.704	-0
159.083	-0.23
159.462	0.03
159.842	-0.72
160.221	0.24
160.6	-0.33
160.979	-0.58
161.359	-0.05
161.738	-0.57
162.117	0.64
162.496	-0.2
162.875	-0.46
163.254	-0
163.633	-0
164.012	-0.21
164.391	0.37
164.77	-0
165.149	-0.06
165.528	0.43
165.907	-0.87
166.286	-0.15
166.665	-0.16
167.044	-1.07
167.423	-0
167.802	-0.12
168.181	0.24
168.559	0.7
168.938	-0.62
169.317	-0.22
169.696	0.36
170.074	-0
170.453	-0
170.832	0.05
171.21	-0
171.589	-0.15
171.968	-0
172.346	-0.3
172.725	-0.17
173.103	-0.05
173.482	0.51
173.861	0.32
174.239	-0
174.617	1.46
174.996	-0.25
175.374	-0
175.753	-0
176.131	-0.02
176.51	0.26
176.888	-0
177.266	-0
177.645	-0.14
178.023	0.56
178.401	-0.3
178.779	0.07
179.158	0.42
179.536	0.18
179.914	-0
180.292	-0.3
180.67	0.37
181.048	-0.48
181.427	-0
181.805	0.02
182.183	-0
182.561	-0
182.939	-0
183.317	-0.72
183.695	-0
184.073	0.14
184.451	-0.14
184.829	0.29
185.206	-0.81
185.584	-0.2
185.962	0.43
186.34	0.09
186.718	-0
187.096	0.15
187.473	-0
187.851	0.2
188.229	1.28
188.607	0.02
188.984	0.14
189.362	0.01
189.74	0.14
190.117	0.1
190.495	0.13
190.872	-0.03
191.25	-0.03
191.627	0.04
192.005	-0.06
192.382	0.07
192.76	-0.01
193.137	0.09
193.515	-0.02
193.892	0.1
194.269	0.04
194.647	0.08
195.024	0.1
195.401	0.15
195.779	0.01
196.156	-0
196.533	0.1
196.91	0.09
197.288	0.11
197.665	0.11
198.042	0.06
198.419	0.16
198.796	0.1
199.173	0.11
199.55	-0.01
199.927	0.17
200.304	0.11
200.681	0.1
201.058	0.02
201.435	0.07
201.812	0.13
202.189	0.11
202.566	0.03
202.943	0.15
203.32	0.1
203.697	0.15
204.073	0.09
204.45	0.05
204.827	0.09
205.204	0.06
205.58	0.02
205.957	0.08
206.334	-0.01
206.71	0.01
207.087	0.09
207.464	0.02
207.84	0.15
208.217	0.04
208.593	0.1
208.97	0.06
209.346	0.09
209.723	0.1
210.099	0.02
210.476	0.12
210.852	0.18
211.228	0.06
211.605	0.07
211.981	0.04
212.357	0.05
212.733	0.06
213.11	0.14
213.486	0.06
213.862	0.12
214.238	0.1
214.614	0.01
214.991	0.06
215.367	-0.01
215.743	0.12
216.119	0.01
216.495	0.13
216.871	0.09
217.247	0.04
217.623	0.01
217.999	0.13
218.375	0.08
218.751	0.06
219.127	0.07
219.502	0.03
219.878	0
220.254	0.05
220.63	0.08
221.006	0.11
221.381	0.05
221.757	0.07
222.133	0.14
222.508	0.12
222.884	0.08
223.26	0.06
223.635	0.03
224.011	0.05
224.386	0.09
224.762	0.08
225.137	0.06
225.513	0.06
225.888	0.09
226.264	0.09
226.639	0.05
227.014	0.18
227.39	0.07
227.765	0.11
228.14	0.07
228.516	0.1
228.891	0.17
229.266	0.05
229.641	0.14
230.017	0.09
230.392	0.12
230.767	0.12
231.142	0.14
231.517	0.08
231.892	0.02
232.267	0.12
232.642	0.05
233.017	0.12
233.392	0.13
233.767	0.08
234.142	0.06
234.517	0.13
234.892	0.12
235.267	0.12
235.641	0.07
236.016	0.1
236.391	0.04
236.766	0.07
237.14	0.02
237.515	-0.03
237.89	0.01
238.264	0.09
238.639	0.1
239.014	0.08
239.388	0.02
239.763	0.07
240.137	0.04
240.512	0.08
240.886	0.01
241.261	0.06
241.635	0.05
242.009	0.01
242.384	0.09
242.758	0.13
243.132	0.07
243.507	-0.03
243.881	0.04
244.255	0.12
244.629	0.08
245.004	0.03
245.378	0.03
245.752	0.05
246.126	0.06
246.5	0.07
246.874	0.08
247.248	-0.02
247.622	0.05
247.996	0.11
248.37	0.06
248.744	0.02
249.118	0.1
249.492	-0
249.866	0.07
250.24	0.1
250.613	0.02
250.987	0.09
251.361	0.09
251.735	0.09
252.108	0.12
252.482	0.11
252.856	0.05
253.229	0.07
253.603	0.1
253.977	0.12
254.35	0.04
254.724	0.03
255.097	0.04
255.471	0.06
255.844	0.04
256.218	0.08
256.591	0.03
256.964	0.06
257.338	0.05
257.711	0.05
258.084	0.08
258.458	0.07
258.831	0.11
259.204	0.06
259.577	0.05
259.95	0.12
260.323	0.1
260.697	0.02
261.07	0.09
261.443	0.08
261.816	0.1
262.189	0.1
262.562	0.07
262.935	0.02
263.308	0.09
263.68	0.14
264.053	0.03
264.426	0.09
264.799	0.1
265.172	0.07
265.545	0.05
265.917	0.09
266.29	0.11
266.663	0.07
267.035	0.08
267.408	0.08
267.781	0.06
268.153	0.09
268.526	0.1
268.898	0.11
269.271	0.13
269.643	0.1
270.016	0.02
270.388	0.11
270.76	0.11
271.133	0.07
271.505	0.11
271.877	0.09
272.25	0.07
272.622	0.06
272.994	0.06
273.366	0.11
273.739	0.07
274.111	0.05
274.483	0.06
274.855	0.08
275.227	0.1
275.599	0.1
275.971	0.04
276.343	0.08
276.715	0.13
277.087	0.08
277.459	0.09
277.831	0.1
278.203	0.12
278.574	0.11
278.946	0.13
279.318	0.12
279.69	0.04
280.061	0.1
280.433	0.08
280.805	0.08
281.176	0.08
281.548	0.11
281.92	0.07
282.291	0.07
282.663	0.09
283.034	0.07
283.406	0.07
283.777	0.12
284.148	0.09
284.52	0.06
284.891	0.06
285.262	0.1
285.634	0.08
286.005	0.07
286.376	0.04
286.747	0.09
287.119	0.05
287.49	0.1
287.861	0.08
288.232	0.07
288.603	0.04
288.974	0.12
289.345	0.07
289.716	0.07
290.087	0.1
290.458	0.04
290.829	0.13
291.2	0.04
291.571	0.12
291.941	0.07
292.312	0.04
292.683	0.09
293.054	0.05
293.424	0.1
293.795	0.16
294.166	0.18
294.536	0.07
294.907	0.08
295.277	0.08
295.648	0.08
296.018	0.07
296.389	0.09
296.759	0.06
297.13	0.07
297.5	0.09
297.871	0.1
298.241	0.12
298.611	0.11
298.981	0.1
299.352	0.12
299.722	0.08
300.092	0.06
300.462	0.11
300.832	0.11
301.202	0.09
301.573	0.06
301.943	0.07
302.313	0.05
302.683	0.07
303.053	0.07
303.422	0.07
303.792	0.07
304.162	0.07
304.532	0.08
304.902	0.06
305.272	0.08
305.641	0.08
306.011	0.07
306.381	0.07
306.75	0.07
307.12	0.08
307.49	0.08
307.859	0.09
308.229	0.08
308.598	0.08
308.968	0.08
309.337	0.07
309.707	0.08
310.076	0.08
310.445	0.09
310.815	0.08
311.184	0.08
311.553	0.09
311.923	0.08
312.292	0.08
312.661	0.09
313.03	0.09
313.399	0.08
313.768	0.09
314.137	0.09
314.506	0.09
314.875	0.09
315.244	0.09
315.613	0.08
315.982	0.09
316.351	0.08
316.72	0.08
317.089	0.08
317.458	0.08
317.826	0.08
318.195	0.08
318.564	0.09
318.933	0.08
319.301	0.08
319.67	0.08
320.038	0.08
320.407	0.08
320.775	0.08
321.144	0.07
321.512	0.07
321.881	0.08
322.249	0.08
322.618	0.08
322.986	0.08
323.354	0.08
323.723	0.08
324.091	0.07
324.459	0.07
324.827	0.07
325.195	0.07
325.564	0.06
325.932	0.07
326.3	0.07
326.668	0.07
327.036	0.07
327.404	0.07
327.772	0.07
328.14	0.06
328.508	0.07
328.875	0.07
329.243	0.07
329.611	0.06
329.979	0.07
330.346	0.07
330.714	0.07
331.082	0.07
331.449	0.07
331.817	0.07
332.185	0.07
332.552	0.07
332.92	0.07
333.287	0.07
333.655	0.07
334.022	0.07
334.389	0.07
334.757	0.07
335.124	0.08
335.491	0.07
335.859	0.08
336.226	0.08
336.593	0.07
336.96	0.08
337.327	0.08
337.695	0.08
338.062	0.08
338.429	0.09
338.796	0.09
339.163	0.09
339.53	0.08
339.897	0.09
340.263	0.09
340.63	0.09
340.997	0.1
341.364	0.09
341.731	0.09
342.097	0.1
342.464	0.1
342.831	0.1
343.197	0.1
343.564	0.1
343.931	0.1
344.297	0.11
344.664	0.11
345.03	0.11
345.396	0.11
345.763	0.12
346.129	0.11
346.496	0.11
346.862	0.12
347.228	0.12
347.594	0.12
347.961	0.13
348.327	0.13
348.693	0.13
349.059	0.13
349.425	0.14
349.791	0.13
350.157	0.14
350.523	0.14
350.889	0.14
351.255	0.15
351.621	0.15
351.987	0.15
352.353	0.15
352.719	0.16
353.084	0.16
353.45	0.16
353.816	0.17
354.181	0.17
354.547	0.17
354.913	0.18
355.278	0.18
355.644	0.18
356.009	0.19
356.375	0.19
356.74	0.19
357.106	0.2
357.471	0.2
357.836	0.21
358.202	0.21
358.567	0.22
358.932	0.22
359.297	0.23
359.663	0.22
360.028	0.24
360.393	0.23
360.758	0.24
361.123	0.24
361.488	0.25
361.853	0.24
362.218	0.25
362.583	0.25
362.948	0.26
363.312	0.26
363.677	0.26
364.042	0.27
364.407	0.28
364.772	0.28
365.136	0.28
365.501	0.29
365.865	0.29
366.23	0.3
366.595	0.32
366.959	0.32
367.324	0.32
367.688	0.33
368.052	0.34
368.417	0.34
368.781	0.35
369.145	0.35
369.51	0.35
369.874	0.35
370.238	0.36
370.602	0.36
370.967	0.35
371.331	0.36
371.695	0.35
372.059	0.35
372.423	0.35
372.787	0.35
373.151	0.35
373.515	0.35
373.878	0.35
374.242	0.35
374.606	0.34
374.97	0.35
375.334	0.34
375.697	0.35
376.061	0.35
376.425	0.35
376.788	0.35
377.152	0.36
377.515	0.37
377.879	0.36
378.242	0.37
378.606	0.38
378.969	0.38
379.333	0.38
379.696	0.39
380.059	0.39
380.422	0.41
380.786	0.4
381.149	0.41
381.512	0.43
381.875	0.43
382.238	0.45
382.601	0.46
382.964	0.48
383.327	0.48
383.69	0.5
384.053	0.51
384.416	0.52
384.779	0.53
385.142	0.54
385.504	0.55
385.867	0.56
386.23	0.57
386.593	0.57
386.955	0.58
387.318	0.58
387.68	0.57
388.043	0.58
388.405	0.56
388.768	0.57
389.13	0.55
389.493	0.55
389.855	0.55
390.217	0.55
390.58	0.55
390.942	0.55
391.304	0.55
391.666	0.56
392.028	0.57
392.391	0.59
392.753	0.6
393.115	0.62
393.477	0.64
393.839	0.66
394.201	0.69
394.563	0.72
394.924	0.76
395.286	0.77
395.648	0.8
396.01	0.83
396.371	0.85
396.733	0.87
397.095	0.89
397.456	0.9
397.818	0.89
398.18	0.9
398.541	0.88
398.903	0.86
399.264	0.84
399.625	0.8
399.987	0.78
400.348	0.74
400.709	0.7
401.071	0.68
401.432	0.62
401.793	0.59
402.154	0.55
402.515	0.51
402.876	0.47
403.238	0.44
403.599	0.41
403.96	0.38
404.32	0.35
404.681	0.32
405.042	0.31
405.403	0.28
405.764	0.27
406.125	0.24
406.485	0.23
406.846	0.21
407.207	0.2
407.567	0.19
407.928	0.18
408.288	0.17
408.649	0.16
409.009	0.15
409.37	0.13
409.73	0.14
410.091	0.13
410.451	0.12
410.811	0.12
411.171	0.11
411.532	0.11
411.892	0.1
412.252	0.1
412.612	0.09
412.972	0.09
413.332	0.09
413.692	0.08
414.052	0.08
414.412	0.08
414.772	0.08
415.132	0.07
415.492	0.07
415.851	0.07
416.211	0.06
416.571	0.07
416.931	0.06
417.29	0.06
417.65	0.06
418.009	0.06
418.369	0.05
418.728	0.06
419.088	0.06
419.447	0.05
419.807	0.05
420.166	0.05
420.525	0.05
420.884	0.05
421.244	0.05
421.603	0.05
421.962	0.05
422.321	0.04
422.68	0.05
423.039	0.05
423.398	0.05
423.757	0.04
424.116	0.04
424.475	0.04
424.834	0.04
425.193	0.04
425.551	0.04
425.91	0.04
426.269	0.04
426.628	0.04
426.986	0.05
427.345	0.04
427.703	0.04
428.062	0.04
428.42	0.04
428.779	0.04
429.137	0.04
429.496	0.03
429.854	0.04
430.212	0.04
430.57	0.04
430.929	0.03
431.287	0.03
431.645	0.03
432.003	0.03
432.361	0.04
432.719	0.04
433.077	0.03
433.435	0.03
433.793	0.03
434.151	0.03
434.509	0.03
434.866	0.03
435.224	0.03
435.582	0.02
435.94	0.03
436.297	0.03
436.655	0.03
437.012	0.03
437.37	0.03
437.727	0.03
438.085	0.03
438.442	0.02
438.8	0.03
439.157	0.03
439.514	0.03
439.872	0.03
440.229	0.02
440.586	0.02
440.943	0.03
441.3	0.03
441.657	0.02
442.014	0.02
442.371	0.03
442.728	0.03
443.085	0.02
443.442	0.02
443.799	0.02
444.156	0.03
444.513	0.02
444.869	0.02
445.226	0.02
445.583	0.02
445.939	0.02
446.296	0.02
446.652	0.02
447.009	0.02
447.365	0.02
447.722	0.01
448.078	0.01
448.434	0.01
448.791	0.02
449.147	0.01
449.503	0.02
449.859	0.01
450.215	0.01
450.571	0.01
450.928	0.01
451.284	0.01
451.64	0.01
451.995	0.01
452.351	0.01
452.707	0.01
453.063	0.01
453.419	-0
453.775	0.01
454.13	0.01
454.486	0.01
454.842	-0
455.197	0
455.553	-0.01
455.908	-0
456.264	-0
456.619	-0.01
456.975	-0.01
457.33	-0.01
457.685	-0.01
458.04	-0.02
458.396	-0.02
458.751	-0.01
459.106	-0.02
459.461	-0.02
459.816	-0.02
460.171	-0.03
460.526	-0.02
460.881	-0.03
461.236	-0.03
461.591	-0.03
461.946	-0.03
462.301	-0.05
462.655	-0.04
463.01	-0.04
463.365	-0.04
463.719	-0.05
464.074	-0.05
464.428	-0.05
464.783	-0.06
465.137	-0.05
465.492	-0.05
465.846	-0.06
466.201	-0.06
466.555	-0.06
466.909	-0.05
467.263	-0.06
467.618	-0.05
467.972	-0.05
468.326	-0.05
468.68	-0.06
469.034	-0.06
469.388	-0.05
469.742	-0.06
470.096	-0.06
470.45	-0.06
470.804	-0.06
471.157	-0.06
471.511	-0.06
471.865	-0.05
472.218	-0.06
472.572	-0.05
472.926	-0.06
473.279	-0.05
473.633	-0.05
473.986	-0.05
474.34	-0.04
474.693	-0.04
475.046	-0.04
475.4	-0.04
475.753	-0.03
476.106	-0.03
476.459	-0.03
476.812	-0.02
477.165	-0.02
477.519	-0.02
477.872	-0.02
478.224	-0.01
478.577	-0.01
478.93	-0.01
479.283	-0.01
479.636	-0.01
479.989	-0
480.341	-0.01
480.694	-0
481.047	-0
481.399	-0
481.752	0.01
482.104	0.01
482.457	0
482.809	0.01
483.162	0.01
483.514	0.01
483.866	0.01
484.219	0.02
484.571	0.01
484.923	0.02
485.275	0.02
485.627	0.02
485.979	0.02
486.331	0.02
486.683	0.02
487.035	0.03
487.387	0.02
487.739	0.02
488.091	0.03
488.443	0.03
488.794	0.03
489.146	0.02
489.498	0.03
489.849	0.03
490.201	0.03
490.552	0.03
490.904	0.03
491.255	0.03
491.607	0.03
491.958	0.03
492.309	0.03
492.661	0.03
493.012	0.04
493.363	0.04
493.714	0.03
494.065	0.04
494.416	0.03
494.767	0.04
495.118	0.04
495.469	0.04
495.82	0.04
496.171	0.04
496.522	0.04
496.872	0.05
497.223	0.05
497.574	0.05
497.924	0.05
498.275	0.04
498.626	0.05
498.976	0.05
499.327	0.05
499.677	0.05
500.027	0.05
500.378	0.06
500.728	0.05
501.078	0.05
501.428	0.05
501.779	0.05
502.129	0.06
502.479	0.06
502.829	0.05
503.179	0.05
503.529	0.06
503.879	0.06
504.229	0.06
504.578	0.06
504.928	0.06
505.278	0.06
505.628	0.06
505.977	0.06
506.327	0.06
506.676	0.06
507.026	0.06
507.375	0.07
507.725	0.07
508.074	0.07
508.424	0.07
508.773	0.07
509.122	0.07
509.471	0.07
509.82	0.07
510.17	0.07
510.519	0.07
510.868	0.08
511.217	0.08
511.566	0.08
511.915	0.08
512.263	0.08
512.612	0.08
512.961	0.08
513.31	0.08
513.659	0.09
514.007	0.08
514.356	0.08
514.704	0.08
515.053	0.08
515.401	0.09
515.75	0.09
516.098	0.09
516.447	0.09
516.795	0.09
517.143	0.09
517.491	0.09
517.839	0.09
518.188	0.09
518.536	0.1
518.884	0.09
519.232	0.1
519.58	0.1
519.928	0.09
520.275	0.1
520.623	0.09
520.971	0.1
521.319	0.1
521.666	0.1
522.014	0.1
522.362	0.1
522.709	0.1
523.057	0.1
523.404	0.1
523.752	0.1
524.099	0.1
524.446	0.11
524.794	0.1
525.141	0.11
525.488	0.11
525.835	0.11
526.182	0.11
526.529	0.11
526.876	0.11
527.223	0.11
527.57	0.11
527.917	0.11
528.264	0.11
528.611	0.12
528.958	0.12
529.304	0.12
529.651	0.12
529.998	0.12
530.344	0.12
530.691	0.12
531.037	0.12
531.384	0.13
531.73	0.12
532.076	0.13
532.423	0.13
532.769	0.13
533.115	0.13
533.461	0.13
533.807	0.13
534.154	0.13
534.5	0.13
534.846	0.13
535.192	0.13
535.537	0.13
535.883	0.14
536.229	0.14
536.575	0.14
536.921	0.14
537.266	0.14
537.612	0.14
537.957	0.14
538.303	0.14
538.649	0.14
538.994	0.14
539.339	0.15
539.685	0.15
540.03	0.15
540.375	0.15
540.721	0.15
541.066	0.16
541.411	0.16
541.756	0.16
542.101	0.15
542.446	0.16
542.791	0.16
543.136	0.16
543.481	0.16
543.825	0.16
544.17	0.17
544.515	0.16
544.86	0.17
545.204	0.17
545.549	0.16
545.893	0.16
546.238	0.17
546.582	0.17
546.927	0.17
547.271	0.17
547.615	0.18
547.96	0.18
548.304	0.18
548.648	0.18
548.992	0.18
549.336	0.18
549.68	0.18
550.024	0.18
550.368	0.18
550.712	0.18
551.056	0.19
551.4	0.18
551.743	0.19
552.087	0.19
552.431	0.19
552.774	0.19
553.118	0.19
553.462	0.19
553.805	0.19
554.148	0.19
554.492	0.19
554.835	0.19
555.178	0.2
555.522	0.2
555.865	0.2
556.208	0.2
556.551	0.2
556.894	0.2
557.237	0.2
557.58	0.2
557.923	0.2
558.266	0.2
558.609	0.2
558.952	0.2
559.294	0.2
559.637	0.2
559.98	0.2
560.322	0.21
560.665	0.21
561.007	0.2
561.35	0.2
561.692	0.21
562.034	0.21
562.377	0.21
562.719	0.2
563.061	0.2
563.403	0.21
563.745	0.21
564.088	0.21
564.43	0.21
564.772	0.21
565.113	0.21
565.455	0.21
565.797	0.21
566.139	0.21
566.481	0.21
566.822	0.21
567.164	0.21
567.506	0.22
567.847	0.22
568.189	0.22
568.53	0.22
568.872	0.21
569.213	0.22
569.554	0.22
569.895	0.21
570.237	0.22
570.578	0.22
570.919	0.21
571.26	0.21
571.601	0.21
571.942	0.21
572.283	0.21
572.624	0.21
572.965	0.21
573.306	0.21
573.646	0.21
573.987	0.21
574.328	0.21
574.668	0.21
575.009	0.21
575.349	0.21
575.69	0.21
576.03	0.21
576.37	0.21
576.711	0.2
577.051	0.2
577.391	0.21
577.731	0.21
578.072	0.21
578.412	0.21
578.752	0.21
579.092	0.21
579.431	0.2
579.771	0.18
580.111	0.16
580.451	0.16
580.791	0.19
581.13	0.21
581.47	0.21
581.81	0.21
582.149	0.21
582.489	0.21
582.828	0.21
583.167	0.18
583.507	0.14
583.846	0.12
584.185	0.14
584.525	0.16
584.864	0.19
585.203	0.21
585.542	0.22
585.881	0.22
586.22	0.22
586.559	0.22
586.898	0.2
587.236	0.19
587.575	0.19
587.914	0.19
588.252	0.21
588.591	0.22
588.93	0.22
589.268	0.22
589.607	0.22
589.945	0.22
590.283	0.22
590.622	0.22
590.96	0.23
591.298	0.24
591.636	0.24
591.974	0.24
592.313	0.24
592.651	0.24
592.989	0.24
593.326	0.25
593.664	0.25
594.002	0.25
594.34	0.24
594.678	0.24
595.015	0.24
595.353	0.22
595.691	0.23
596.028	0.24
596.366	0.24
596.703	0.25
597.04	0.25
597.378	0.25
597.715	0.26
598.052	0.26
598.389	0.26
598.726	0.26
599.064	0.26
599.401	0.26
599.738	0.26
600.074	0.26
600.411	0.26
600.748	0.26
601.085	0.25
601.422	0.25
601.758	0.25
602.095	0.25
602.432	0.25
602.768	0.25
603.105	0.26
603.441	0.26
603.777	0.26
604.114	0.27
604.45	0.26
604.786	0.27
605.122	0.26
605.459	0.26
605.795	0.26
606.131	0.26
606.467	0.26
606.803	0.26
607.139	0.26
607.474	0.26
607.81	0.26
608.146	0.26
608.482	0.26
608.817	0.26
609.153	0.25
609.488	0.25
609.824	0.25
610.159	0.25
610.495	0.26
610.83	0.25
611.165	0.26
611.5	0.26
611.836	0.26
612.171	0.26
612.506	0.26
612.841	0.26
613.176	0.26
613.511	0.26
613.845	0.26
614.18	0.25
614.515	0.26
614.85	0.25
615.184	0.25
615.519	0.25
615.854	0.25
616.188	0.25
616.523	0.25
616.857	0.25
617.191	0.25
617.526	0.25
617.86	0.25
618.194	0.24
618.528	0.25
618.862	0.25
619.196	0.25
619.53	0.25
619.864	0.25
620.198	0.24
620.532	0.25
620.866	0.24
621.2	0.24
621.533	0.25
621.867	0.24
622.201	0.24
622.534	0.24
622.868	0.24
623.201	0.24
623.534	0.24
623.868	0.24
624.201	0.24
624.534	0.24
624.868	0.24
625.201	0.23
625.534	0.23
625.867	0.23
626.2	0.23
626.533	0.23
626.865	0.23
627.198	0.23
627.531	0.23
627.864	0.23
628.196	0.22
628.529	0.23
628.862	0.22
629.194	0.22
629.527	0.22
629.859	0.22
630.191	0.22
630.524	0.22
630.856	0.22
631.188	0.21
631.52	0.21
631.852	0.21
632.184	0.21
632.516	0.21
632.848	0.21
633.18	0.21
633.512	0.21
633.844	0.2
634.175	0.2
634.507	0.2
634.839	0.2
635.17	0.2
635.502	0.19
635.833	0.19
636.165	0.19
636.496	0.18
636.827	0.19
637.159	0.19
637.49	0.18
637.821	0.18
638.152	0.18
638.483	0.18
638.814	0.18
639.145	0.18
639.476	0.17
639.807	0.17
640.137	0.17
640.468	0.17
640.799	0.17
641.129	0.17
641.46	0.17
641.791	0.17
642.121	0.17
642.451	0.17
642.782	0.16
643.112	0.16
643.442	0.16
643.773	0.16
644.103	0.16
644.433	0.16
644.763	0.16
645.093	0.16
645.423	0.15
645.753	0.15
646.082	0.15
646.412	0.15
646.742	0.15
647.072	0.15
647.401	0.15
647.731	0.15
648.06	0.15
648.39	0.14
648.719	0.15
649.048	0.15
649.378	0.15
649.707	0.14
650.036	0.14
650.365	0.14
650.694	0.14
651.023	0.14
651.352	0.14
651.681	0.14
652.01	0.14
652.339	0.14
652.668	0.14
652.996	0.14
653.325	0.14
653.654	0.14
653.982	0.14
654.311	0.14
654.639	0.14
654.967	0.15
655.296	0.14
655.624	0.14
655.952	0.14
656.28	0.14
656.609	0.14
656.937	0.14
657.265	0.14
657.593	0.09
657.92	0
658.248	0
658.576	0
658.904	0
659.231	0.04
659.559	0.11
659.887	0.14
660.214	0.14
660.542	0.14
660.869	0.14
661.196	0.14
661.524	0.14
661.851	0.15
662.178	0.14
662.505	0.14
662.832	0.14
663.159	0.14
663.486	0.14
663.813	0.14
664.14	0.14
664.467	0.14
664.794	0.14
665.12	0.14
665.447	0.14
665.774	0.14
666.1	0.13
666.427	0.13
666.753	0.13
667.079	0.13
667.406	0.13
667.732	0.13
668.058	0.13
668.384	0.13
668.71	0.13
669.036	0.13
669.362	0.13
669.688	0.13
670.014	0.13
670.34	0.13
670.666	0.13
670.991	0.13
671.317	0.13
671.643	0.13
671.968	0.13
672.294	0.13
672.619	0.13
672.945	0.13
673.27	0.13
673.595	0.13
673.92	0.13
674.246	0.12
674.571	0.12
674.896	0.12
675.221	0.12
675.546	0.12
675.87	0.12
676.195	0.12
676.52	0.12
676.845	0.12
677.169	0.12
677.494	0.12
677.819	0.11
678.143	0.11
678.468	0.11
678.792	0.11
679.116	0.11
679.44	0.11
679.765	0.11
680.089	0.11
680.413	0.1
680.737	0.1
681.061	0.1
681.385	0.1
681.709	0.1
682.033	0.1
682.356	0.1
682.68	0.1
683.004	0.1
683.327	0.1
683.651	0.1
683.974	0.09
684.298	0.1
684.621	0.09
684.944	0.09
685.268	0.09
685.591	0.09
685.914	0.09
686.237	0.08
686.56	0.09
686.883	0.08
687.206	0.08
687.529	0.08
687.852	0.08
688.175	0.08
688.497	0.08
688.82	0.08
689.142	0.08
689.465	0.08
689.787	0.08
690.11	0.08
690.432	0.08
690.755	0.08
691.077	0.07
691.399	0.07
691.721	0.07
692.043	0.07
692.365	0.07
692.687	0.07
693.009	0.06
693.331	0.06
693.653	0.06
693.974	0.06
694.296	0.06
694.618	0.06
694.939	0.06
695.261	0.06
695.582	0.06
695.904	0.06
696.225	0.06
696.546	0.06
696.868	0.06
697.189	0.06
697.51	0.06
697.831	0.06
698.152	0.06
698.473	0.05
698.794	0.05
699.114	0.05
699.435	0.03
699.756	0.04
700.077	0.04
700.397	0.04
700.718	0.04
701.038	0.04
701.359	0.05
701.679	0.05
701.999	0.05
702.32	0.05
702.64	0.05
702.96	0.04
703.28	0.05
703.6	0.05
703.92	0.04
704.24	0.04
704.56	0.04
704.879	0.03
705.199	0.04
705.519	0.04
705.838	0.04
706.158	0.04
706.478	0.04
706.797	0.04
707.116	0.04
707.436	0.04
707.755	0.04
708.074	0.04
708.393	0.04
708.712	0.03
709.031	0.02
709.35	0.02
709.669	0.02
709.988	0.02
710.307	0.02
710.626	0.02
710.944	0.03
711.263	0.03
711.582	0.04
711.9	0.04
712.219	0.03
712.537	0.03
712.855	0.04
713.174	0.03
713.492	0.03
713.81	0.03
714.128	0.03
714.446	0.03
714.764	0.03
715.082	0.02
715.4	0.03
715.718	0.03
716.035	0.03
716.353	0.03
716.671	0.03
716.988	0.03
717.306	0.02
717.623	0.03
717.941	0.03
718.258	0.04
718.575	0.04
718.893	0.04
719.21	0.03
719.527	0.04
719.844	0.04
720.161	0.04
720.478	0.04
720.795	0.04
721.112	0.04
721.428	0.04
721.745	0.04
722.062	0.04
722.378	0.04
722.695	0.04
723.011	0.04
723.328	0.04
723.644	0.04
723.96	0.04
724.276	0.04
724.593	0.04
724.909	0.04
725.225	0.04
725.541	0.04
725.857	0.04
726.173	0.04
726.488	0.05
726.804	0.05
727.12	0.05
727.435	0.05
727.751	0.05
728.067	0.05
728.382	0.04
728.697	0.04
729.013	0.05
729.328	0.04
729.643	0.04
729.958	0.04
730.273	0.04
730.588	0.04
730.903	0.04
731.218	0.04
731.533	0.04
731.848	0.04
732.163	0.04
732.477	0.04
732.792	0.04
733.107	0.03
733.421	0.04
733.736	0.04
734.05	0.04
734.364	0.04
734.678	0.04
734.993	0.04
735.307	0.04
735.621	0.04
735.935	0.04
736.249	0.04
736.563	0.04
736.877	0.04
737.19	0.05
737.504	0.04
737.818	0.04
738.131	0.04
738.445	0.04
738.758	0.04
739.072	0.04
739.385	0.04
739.698	0.04
740.012	0.04
740.325	0.04
740.638	0.04
740.951	0.04
741.264	0.04
741.577	0.04
741.89	0.04
742.203	0.04
742.515	0.04
742.828	0.04
743.141	0.04
743.453	0.04
743.766	0.04
744.078	0.04
744.391	0.04
744.703	0.04
745.015	0.04
745.327	0.04
745.639	0.04
745.952	0.04
746.264	0.04
746.575	0.04
746.887	0.04
747.199	0.04
747.511	0.04
747.823	0.04
748.134	0.04
748.446	0.04
748.757	0.04
749.069	0.03
749.38	0.04
749.692	0.04
750.003	0.04
750.314	0.04
750.625	0.04
750.936	0.04
751.248	0.03
751.559	0.03
751.869	0.03
752.18	0.03
752.491	0.03
752.802	0.03
753.112	0.03
753.423	0.03
753.734	0.03
754.044	0.03
754.355	0.03
754.665	0.03
754.975	0.03
755.285	0.03
755.596	0.02
755.906	0.02
756.216	0.02
756.526	0.02
756.836	0.02
757.146	0.02
757.455	0.02
757.765	0.02
758.075	0.02
758.385	0.02
758.694	0.02
759.004	0.02
759.313	0.02
759.622	0.02
759.932	0.02
760.241	0.02
760.55	0.02
760.859	0.02
761.168	0.02
761.477	0.02
761.786	0.01
762.095	0.01
762.404	0.01
762.713	0.01
763.021	0.01
763.33	0.01
763.639	0.01
763.947	0.01
764.256	0.01
764.564	0.01
764.872	0.02
765.181	0.02
765.489	0.01
765.797	0.01
766.105	0.01
766.413	0.01
766.721	0.01
767.029	0.01
767.337	0.01
767.644	0.01
767.952	0.01
768.26	0.01
768.567	0.01
768.875	0.01
769.182	0.01
769.49	0.02
769.797	0.01
770.104	0.02
770.411	0.02
770.718	0.02
771.026	0.02
771.333	0.02
771.639	0.02
771.946	0.01
772.253	0.02
772.56	0.01
772.867	0.01
773.173	0.01
773.48	0.01
773.786	0.01
774.093	0.01
774.399	0.01
774.705	0.01
775.012	0.01
775.318	0.01
775.624	0
775.93	0
776.236	0
776.542	0
776.848	0.01
777.154	0.01
777.459	0.01
777.765	0.01
778.071	0.01
778.376	0.01
778.682	0.01
778.987	0.01
779.292	0.01
779.598	0.01
779.903	0.01
780.208	0.01
780.513	0.01
780.818	0.01
781.123	0.01
781.428	0.01
781.733	0.01
782.038	0.01
782.343	0.01
782.647	0.01
782.952	0.01
783.256	0.01
783.561	0.01
783.865	0.02
784.17	0.01
784.474	0.01
784.778	0.01
785.082	0.01
785.386	0.01
785.69	0.01
785.994	0.01
786.298	0.01
786.602	0.02
786.906	0.01
787.209	0.01
787.513	0.02
787.817	0.02
788.12	0.02
788.424	0.01
788.727	0.02
789.03	0.01
789.333	0.01
789.637	0.01
789.94	0.01
790.243	0.01
790.546	0.01
790.849	0.02
791.152	0.01
791.454	0.01
791.757	0.01
792.06	0.02
792.362	0.02
792.665	0.01
792.967	0.01
793.27	0.02
793.572	0.01
793.874	0.01
794.177	0.01
794.479	0.01
794.781	0.01
795.083	0.01
795.385	0.01
795.687	0
795.989	0.01
796.29	0.01
796.592	0.02
796.894	0.02
797.195	0.02
797.497	0.02
797.798	0.02
798.1	0.02
798.401	0.02
798.702	0.02
799.003	0.02
799.304	0.02
799.605	0.02
799.906	0.02
800.207	0.02
800.508	0.02
800.809	0.02
801.11	0.01
801.41	0.01
801.711	0.01
802.011	0.01
802.312	0.01
802.612	0.01
802.913	0
803.213	0.01
803.513	0.01
803.813	0.01
804.113	0.01
804.413	0.01
804.713	0.01
805.013	0.01
805.313	0.02
805.613	0.01
805.912	0.02
806.212	0.02
806.511	0.01
806.811	0.02
807.11	0.01
807.41	0.01
807.709	0.01
808.008	0.01
808.307	0.02
808.606	0.02
808.905	0.02
809.204	0.01
809.503	0.02
809.802	0.01
810.101	0.02
810.399	0.02
810.698	0.01
810.997	0.02
811.295	0.02
811.593	0.02
811.892	0.02
812.19	0.02
812.488	0.02
812.786	0.02
813.084	0.02
813.383	0.02
813.68	0.02
813.978	0.02
814.276	0.03
814.574	0.02
814.872	0.02
815.169	0.02
815.467	0.02
815.764	0.02
816.062	0.02
816.359	0.02
816.656	0.02
816.954	0.02
817.251	0.03
817.548	0.03
817.845	0.03
818.142	0.03
818.439	0.02
818.735	0.03
819.032	0.03
819.329	0.03
819.626	0.03
819.922	0.02
820.219	0.02
820.515	0.02
820.811	0.02
821.108	0.02
821.404	0.02
821.7	0.02
821.996	0.02
822.292	0.01
822.588	0.02
822.884	0.02
823.18	0.02
823.475	0.03
823.771	0.02
824.067	0.02
824.362	0.02
824.658	0.02
824.953	0.03
825.249	0.03
825.544	0.02
825.839	0.03
826.134	0.03
826.429	0.03
826.724	0.03
827.019	0.03
827.314	0.03
827.609	0.02
827.904	0.02
828.198	0.02
828.493	0.02
828.787	0.03
829.082	0.02
829.376	0.02
829.671	0.02
829.965	0.02
830.259	0.02
830.553	0.02
830.847	0.03
831.141	0.03
831.435	0.03
831.729	0.03
832.023	0.04
832.317	0.03
832.61	0.04
832.904	0.04
833.197	0.03
833.491	0.03
833.784	0.03
834.077	0.03
834.371	0.03
834.664	0.02
834.957	0.03
835.25	0.03
835.543	0.04
835.836	0.03
836.129	0.04
836.421	0.03
836.714	0.03
837.007	0.03
837.299	0.03
837.592	0.03
837.884	0.03
838.177	0.03
838.469	0.03
838.761	0.02
839.053	0.03
839.345	0.04
839.637	0.03
839.929	0.04
840.221	0.05
840.513	0.04
840.805	0.04
841.096	0.03
841.388	0.04
841.68	0.03
841.971	0.04
842.262	0.04
842.554	0.04
842.845	0.03
843.136	0.04
843.427	0.04
843.718	0.03
844.009	0.03
844.3	0.04
844.591	0.03
844.882	0.03
845.173	0.03
845.463	0.04
845.754	0.03
846.044	0.03
846.335	0.03
846.625	0.04
846.915	0.03
847.206	0.03
847.496	0.05
847.786	0.03
848.076	0.03
848.366	0.04
848.656	0.03
848.945	0.04
849.235	0.04
849.525	0.04
849.814	0.04
850.104	0.02
850.393	0.02
850.683	0.03
850.972	0.03
851.261	0.03
851.551	0.04
851.84	0.04
852.129	0.04
852.418	0.03
852.707	0.04
852.995	0.04
853.284	0.04
853.573	0.04
853.862	0.04
854.15	0.04
854.439	0.04
854.727	0.03
855.015	0.04
855.304	0.04
855.592	0.02
855.88	0.02
856.168	0.03
856.456	0.03
856.744	0.04
857.032	0.04
857.32	0.04
857.607	0.06
857.895	0.03
858.183	0.04
858.47	0.03
858.757	0.03
859.045	0.04
859.332	0.03
859.619	0.03
859.907	0.02
860.194	0.03
860.481	0.04
860.768	0.04
861.054	0.05
861.341	0.04
861.628	0.03
861.915	0.04
862.201	0.02
862.488	0.03
862.774	0.04
863.061	0.03
863.347	0.03
863.633	0.03
863.919	0.02
864.205	0.03
864.491	0.01
864.777	0.01
865.063	0.01
865.349	0.02
865.635	0.04
865.92	0.02
866.206	0.01
866.492	0.01
866.777	0.02
867.062	0.04
867.348	0.02
867.633	0.02
867.918	0.02
868.203	0.02
868.488	0.04
868.773	0
869.058	-0
869.343	0
869.628	0
869.912	0.01
870.197	0.02
870.482	0.02
870.766	0.01
871.05	-0
871.335	0.03
871.619	0.04
871.903	0
872.187	0.02
872.471	0.02
872.755	-0
873.039	0
873.323	0.05
873.607	-0
873.89	0.01
874.174	-0.03
874.458	0.01
874.741	-0.02
875.024	0.02
875.308	-0
875.591	-0.01
875.874	0.01
876.157	0.07
876.44	0.02
876.723	-0.02
877.006	-0.02
877.289	-0.05
877.572	0.04
877.854	0.04
878.137	0.02
878.42	-0.01
878.702	0
878.984	-0.05
879.267	-0.05
879.549	-0.02
879.831	0.06
880.113	0.08
880.395	0.04
880.677	0.01
880.959	-0.05
