Data from Rubpy_EV_1800_EDTA_Buffered_Absorbance_15-45-43-729.txt Node
Date: Tue Jun 30 15:45:43 BST 2026
User: fpm-admin
Spectrometer: OFX00224
Trigger mode: 0
Integration Time (sec): 7.000000E-2
Scans to average: 3
Nonlinearity correction enabled: false
Boxcar width: 0
Storing dark spectrum: false
XAxis mode: Wavelengths
Number of Pixels in Spectrum: 2136
>>>>>Begin Spectral Data<<<<<
154.91	-0
155.289	-0
155.669	-0
156.048	-0.3
156.428	-0.52
156.807	0.07
157.186	-0
157.566	-0.45
157.945	-0.01
158.325	-0
158.704	-0
159.083	-0.59
159.462	-0.19
159.842	-0.48
160.221	0.06
160.6	-0.37
160.979	-0.58
161.359	-0.15
161.738	-0.51
162.117	0.81
162.496	-0.2
162.875	0.73
163.254	-0
163.633	-0
164.012	-0.12
164.391	0.35
164.77	0.38
165.149	-0.36
165.528	-0.33
165.907	-0.75
166.286	-0.19
166.665	-0.32
167.044	-1.14
167.423	-0
167.802	0.05
168.181	0.16
168.559	-0
168.938	-0.87
169.317	0.33
169.696	-0.35
170.074	-0
170.453	-0.05
170.832	-0.25
171.21	-0
171.589	-0.59
171.968	-0
172.346	-0.43
172.725	-0.06
173.103	-0.13
173.482	-0.06
173.861	-0.03
174.239	-0
174.617	-0
174.996	-0.5
175.374	-0.4
175.753	-0.3
176.131	-0
176.51	-0
176.888	-0
177.266	-0
177.645	-0.14
178.023	0.35
178.401	-0.23
178.779	0.16
179.158	-0
179.536	-0
179.914	-0
180.292	-0.13
180.67	-0
181.048	-0
181.427	-0
181.805	-0.16
182.183	0.03
182.561	-0
182.939	-0
183.317	-0.54
183.695	-0
184.073	0.14
184.451	0.03
184.829	0.21
185.206	-0.58
185.584	-0.07
185.962	0.3
186.34	0.6
186.718	-0
187.096	0.06
187.473	-0
187.851	-0
188.229	0.12
188.607	0.18
188.984	0.14
189.362	0.12
189.74	0.22
190.117	0.22
190.495	0.13
190.872	0.01
191.25	0.11
191.627	0.11
192.005	0.08
192.382	0.16
192.76	0.09
193.137	0.16
193.515	0.15
193.892	0.15
194.269	0.23
194.647	0.16
195.024	0.15
195.401	0.15
195.779	0.08
196.156	0.17
196.533	0.34
196.91	0.19
197.288	0.2
197.665	0.21
198.042	0.15
198.419	0.22
198.796	0.19
199.173	0.2
199.55	0.18
199.927	0.19
200.304	0.12
200.681	0.13
201.058	0.26
201.435	0.16
201.812	0.2
202.189	0.22
202.566	0.16
202.943	0.2
203.32	0.18
203.697	0.25
204.073	0.33
204.45	0.2
204.827	0.09
205.204	0.23
205.58	0.18
205.957	0.14
206.334	0.24
206.71	0.11
207.087	0.23
207.464	0.25
207.84	0.27
208.217	0.18
208.593	0.24
208.97	0.17
209.346	0.2
209.723	0.11
210.099	0.15
210.476	0.17
210.852	0.27
211.228	0.17
211.605	0.15
211.981	0.17
212.357	0.25
212.733	0.26
213.11	0.16
213.486	0.21
213.862	0.21
214.238	0.23
214.614	0.15
214.991	0.12
215.367	0.12
215.743	0.15
216.119	0.26
216.495	0.16
216.871	0.16
217.247	0.15
217.623	0.09
217.999	0.32
218.375	0.14
218.751	0.22
219.127	0.27
219.502	0.12
219.878	0.06
220.254	0.24
220.63	0.24
221.006	0.22
221.381	0.25
221.757	0.2
222.133	0.27
222.508	0.22
222.884	0.22
223.26	0.24
223.635	0.12
224.011	0.23
224.386	0.23
224.762	0.15
225.137	0.18
225.513	0.26
225.888	0.19
226.264	0.12
226.639	0.27
227.014	0.17
227.39	0.17
227.765	0.19
228.14	0.13
228.516	0.16
228.891	0.31
229.266	0.13
229.641	0.28
230.017	0.29
230.392	0.29
230.767	0.24
231.142	0.14
231.517	0.13
231.892	0.16
232.267	0.21
232.642	0.26
233.017	0.22
233.392	0.31
233.767	0.21
234.142	0.15
234.517	0.25
234.892	0.24
235.267	0.29
235.641	0.23
236.016	0.19
236.391	0.17
236.766	0.17
237.14	0.28
237.515	0.18
237.89	0.26
238.264	0.13
238.639	0.24
239.014	0.16
239.388	0.28
239.763	0.19
240.137	0.35
240.512	0.2
240.886	0.2
241.261	0.19
241.635	0.18
242.009	0.26
242.384	0.23
242.758	0.33
243.132	0.14
243.507	0.17
243.881	0.19
244.255	0.2
244.629	0.19
245.004	0.23
245.378	0.2
245.752	0.26
246.126	0.27
246.5	0.16
246.874	0.2
247.248	0.11
247.622	0.09
247.996	0.2
248.37	0.15
248.744	0.15
249.118	0.27
249.492	0.15
249.866	0.25
250.24	0.18
250.613	0.19
250.987	0.21
251.361	0.18
251.735	0.14
252.108	0.18
252.482	0.21
252.856	0.12
253.229	0.16
253.603	0.22
253.977	0.23
254.35	0.25
254.724	0.18
255.097	0.17
255.471	0.22
255.844	0.22
256.218	0.26
256.591	0.17
256.964	0.18
257.338	0.23
257.711	0.23
258.084	0.16
258.458	0.21
258.831	0.23
259.204	0.2
259.577	0.18
259.95	0.24
260.323	0.18
260.697	0.28
261.07	0.2
261.443	0.22
261.816	0.22
262.189	0.24
262.562	0.23
262.935	0.18
263.308	0.22
263.68	0.26
264.053	0.17
264.426	0.26
264.799	0.23
265.172	0.26
265.545	0.23
265.917	0.21
266.29	0.28
266.663	0.22
267.035	0.25
267.408	0.18
267.781	0.2
268.153	0.28
268.526	0.25
268.898	0.21
269.271	0.2
269.643	0.18
270.016	0.29
270.388	0.28
270.76	0.14
271.133	0.2
271.505	0.25
271.877	0.26
272.25	0.23
272.622	0.15
272.994	0.22
273.366	0.22
273.739	0.23
274.111	0.2
274.483	0.2
274.855	0.15
275.227	0.25
275.599	0.25
275.971	0.18
276.343	0.23
276.715	0.24
277.087	0.27
277.459	0.28
277.831	0.21
278.203	0.22
278.574	0.29
278.946	0.24
279.318	0.2
279.69	0.14
280.061	0.24
280.433	0.23
280.805	0.21
281.176	0.2
281.548	0.29
281.92	0.25
282.291	0.2
282.663	0.25
283.034	0.23
283.406	0.2
283.777	0.24
284.148	0.27
284.52	0.21
284.891	0.22
285.262	0.24
285.634	0.23
286.005	0.24
286.376	0.25
286.747	0.26
287.119	0.26
287.49	0.21
287.861	0.21
288.232	0.2
288.603	0.21
288.974	0.27
289.345	0.18
289.716	0.26
290.087	0.2
290.458	0.23
290.829	0.29
291.2	0.17
291.571	0.21
291.941	0.2
292.312	0.23
292.683	0.25
293.054	0.2
293.424	0.26
293.795	0.28
294.166	0.26
294.536	0.25
294.907	0.28
295.277	0.28
295.648	0.26
296.018	0.23
296.389	0.24
296.759	0.24
297.13	0.26
297.5	0.28
297.871	0.24
298.241	0.3
298.611	0.26
298.981	0.22
299.352	0.33
299.722	0.23
300.092	0.25
300.462	0.29
300.832	0.28
301.202	0.26
301.573	0.22
301.943	0.22
302.313	0.18
302.683	0.23
303.053	0.23
303.422	0.23
303.792	0.25
304.162	0.22
304.532	0.25
304.902	0.22
305.272	0.25
305.641	0.24
306.011	0.24
306.381	0.24
306.75	0.24
307.12	0.25
307.49	0.25
307.859	0.27
308.229	0.26
308.598	0.26
308.968	0.27
309.337	0.28
309.707	0.28
310.076	0.26
310.445	0.29
310.815	0.29
311.184	0.29
311.553	0.29
311.923	0.29
312.292	0.29
312.661	0.3
313.03	0.29
313.399	0.29
313.768	0.3
314.137	0.3
314.506	0.3
314.875	0.29
315.244	0.3
315.613	0.3
315.982	0.3
316.351	0.29
316.72	0.3
317.089	0.29
317.458	0.29
317.826	0.29
318.195	0.29
318.564	0.29
318.933	0.28
319.301	0.28
319.67	0.28
320.038	0.28
320.407	0.28
320.775	0.28
321.144	0.27
321.512	0.26
321.881	0.27
322.249	0.26
322.618	0.27
322.986	0.26
323.354	0.26
323.723	0.25
324.091	0.25
324.459	0.26
324.827	0.25
325.195	0.25
325.564	0.25
325.932	0.25
326.3	0.25
326.668	0.25
327.036	0.24
327.404	0.25
327.772	0.24
328.14	0.25
328.508	0.25
328.875	0.25
329.243	0.25
329.611	0.24
329.979	0.25
330.346	0.25
330.714	0.25
331.082	0.25
331.449	0.26
331.817	0.26
332.185	0.26
332.552	0.26
332.92	0.27
333.287	0.26
333.655	0.28
334.022	0.28
334.389	0.27
334.757	0.28
335.124	0.29
335.491	0.29
335.859	0.29
336.226	0.29
336.593	0.29
336.96	0.3
337.327	0.31
337.695	0.31
338.062	0.31
338.429	0.32
338.796	0.32
339.163	0.32
339.53	0.33
339.897	0.34
340.263	0.34
340.63	0.34
340.997	0.35
341.364	0.36
341.731	0.36
342.097	0.37
342.464	0.37
342.831	0.38
343.197	0.39
343.564	0.39
343.931	0.4
344.297	0.41
344.664	0.41
345.03	0.42
345.396	0.42
345.763	0.43
346.129	0.43
346.496	0.44
346.862	0.45
347.228	0.45
347.594	0.46
347.961	0.47
348.327	0.47
348.693	0.48
349.059	0.49
349.425	0.5
349.791	0.5
350.157	0.51
350.523	0.52
350.889	0.53
351.255	0.54
351.621	0.55
351.987	0.56
352.353	0.57
352.719	0.59
353.084	0.59
353.45	0.6
353.816	0.62
354.181	0.63
354.547	0.64
354.913	0.66
355.278	0.67
355.644	0.67
356.009	0.68
356.375	0.7
356.74	0.72
357.106	0.74
357.471	0.75
357.836	0.76
358.202	0.77
358.567	0.79
358.932	0.8
359.297	0.81
359.663	0.83
360.028	0.84
360.393	0.86
360.758	0.86
361.123	0.87
361.488	0.88
361.853	0.89
362.218	0.9
362.583	0.91
362.948	0.92
363.312	0.93
363.677	0.94
364.042	0.95
364.407	0.97
364.772	0.98
365.136	1
365.501	1.01
365.865	1.04
366.23	1.06
366.595	1.08
366.959	1.09
367.324	1.1
367.688	1.13
368.052	1.14
368.417	1.16
368.781	1.17
369.145	1.19
369.51	1.19
369.874	1.2
370.238	1.2
370.602	1.18
370.967	1.18
371.331	1.17
371.695	1.19
372.059	1.18
372.423	1.16
372.787	1.17
373.151	1.16
373.515	1.16
373.878	1.17
374.242	1.16
374.606	1.16
374.97	1.15
375.334	1.15
375.697	1.15
376.061	1.16
376.425	1.19
376.788	1.16
377.152	1.18
377.515	1.19
377.879	1.2
378.242	1.2
378.606	1.21
378.969	1.23
379.333	1.24
379.696	1.25
380.059	1.27
380.422	1.31
380.786	1.31
381.149	1.33
381.512	1.35
381.875	1.37
382.238	1.39
382.601	1.43
382.964	1.46
383.327	1.48
383.69	1.51
384.053	1.56
384.416	1.59
384.779	1.61
385.142	1.64
385.504	1.67
385.867	1.68
386.23	1.68
386.593	1.69
386.955	1.72
387.318	1.72
387.68	1.68
388.043	1.71
388.405	1.69
388.768	1.67
389.13	1.68
389.493	1.67
389.855	1.63
390.217	1.62
390.58	1.66
390.942	1.68
391.304	1.64
391.666	1.64
392.028	1.68
392.391	1.71
392.753	1.75
393.115	1.76
393.477	1.83
393.839	1.85
394.201	1.87
394.563	1.94
394.924	2.01
395.286	2.02
395.648	2.03
396.01	2.05
396.371	2.06
396.733	2.01
397.095	2.02
397.456	2.05
397.818	2.04
398.18	2.07
398.541	2.06
398.903	2
399.264	1.98
399.625	2
399.987	1.94
400.348	1.92
400.709	1.89
401.071	1.84
401.432	1.76
401.793	1.65
402.154	1.61
402.515	1.51
402.876	1.42
403.238	1.33
403.599	1.24
403.96	1.17
404.32	1.09
404.681	1.01
405.042	0.95
405.403	0.89
405.764	0.82
406.125	0.76
406.485	0.71
406.846	0.67
407.207	0.63
407.567	0.59
407.928	0.56
408.288	0.54
408.649	0.5
409.009	0.47
409.37	0.45
409.73	0.43
410.091	0.4
410.451	0.39
410.811	0.37
411.171	0.36
411.532	0.34
411.892	0.33
412.252	0.31
412.612	0.3
412.972	0.28
413.332	0.28
413.692	0.27
414.052	0.26
414.412	0.25
414.772	0.24
415.132	0.23
415.492	0.23
415.851	0.22
416.211	0.21
416.571	0.21
416.931	0.21
417.29	0.19
417.65	0.19
418.009	0.19
418.369	0.18
418.728	0.18
419.088	0.18
419.447	0.18
419.807	0.17
420.166	0.17
420.525	0.17
420.884	0.16
421.244	0.16
421.603	0.15
421.962	0.15
422.321	0.15
422.68	0.15
423.039	0.15
423.398	0.15
423.757	0.15
424.116	0.13
424.475	0.13
424.834	0.14
425.193	0.14
425.551	0.13
425.91	0.13
426.269	0.12
426.628	0.13
426.986	0.13
427.345	0.13
427.703	0.12
428.062	0.12
428.42	0.12
428.779	0.12
429.137	0.12
429.496	0.12
429.854	0.12
430.212	0.11
430.57	0.11
430.929	0.1
431.287	0.11
431.645	0.11
432.003	0.11
432.361	0.12
432.719	0.11
433.077	0.1
433.435	0.11
433.793	0.1
434.151	0.11
434.509	0.1
434.866	0.1
435.224	0.11
435.582	0.09
435.94	0.1
436.297	0.1
436.655	0.1
437.012	0.1
437.37	0.09
437.727	0.09
438.085	0.08
438.442	0.09
438.8	0.09
439.157	0.09
439.514	0.1
439.872	0.09
440.229	0.09
440.586	0.09
440.943	0.09
441.3	0.09
441.657	0.09
442.014	0.08
442.371	0.08
442.728	0.09
443.085	0.07
443.442	0.09
443.799	0.08
444.156	0.08
444.513	0.08
444.869	0.08
445.226	0.07
445.583	0.09
445.939	0.07
446.296	0.08
446.652	0.07
447.009	0.08
447.365	0.07
447.722	0.07
448.078	0.07
448.434	0.07
448.791	0.07
449.147	0.07
449.503	0.07
449.859	0.07
450.215	0.07
450.571	0.07
450.928	0.06
451.284	0.07
451.64	0.06
451.995	0.07
452.351	0.07
452.707	0.06
453.063	0.06
453.419	0.06
453.775	0.06
454.13	0.05
454.486	0.06
454.842	0.05
455.197	0.06
455.553	0.05
455.908	0.05
456.264	0.05
456.619	0.04
456.975	0.04
457.33	0.03
457.685	0.04
458.04	0.04
458.396	0.04
458.751	0.04
459.106	0.03
459.461	0.04
459.816	0.03
460.171	0.03
460.526	0.03
460.881	0.01
461.236	0.02
461.591	0.02
461.946	0.02
462.301	0.01
462.655	0.01
463.01	0.01
463.365	0.01
463.719	0.01
464.074	0
464.428	-0
464.783	-0.01
465.137	0.01
465.492	0
465.846	-0
466.201	-0
466.555	-0
466.909	-0.01
467.263	-0
467.618	0.01
467.972	0.01
468.326	-0
468.68	-0
469.034	-0.01
469.388	-0
469.742	-0.01
470.096	-0
470.45	-0
470.804	-0
471.157	-0
471.511	-0
471.865	0.01
472.218	0
472.572	0.01
472.926	0.01
473.279	0.01
473.633	0.01
473.986	0.02
474.34	0.02
474.693	0.02
475.046	0.03
475.4	0.04
475.753	0.04
476.106	0.05
476.459	0.05
476.812	0.05
477.165	0.06
477.519	0.06
477.872	0.06
478.224	0.06
478.577	0.07
478.93	0.07
479.283	0.07
479.636	0.08
479.989	0.07
480.341	0.08
480.694	0.09
481.047	0.09
481.399	0.09
481.752	0.1
482.104	0.1
482.457	0.1
482.809	0.1
483.162	0.1
483.514	0.11
483.866	0.11
484.219	0.12
484.571	0.11
484.923	0.11
485.275	0.12
485.627	0.12
485.979	0.12
486.331	0.13
486.683	0.13
487.035	0.13
487.387	0.13
487.739	0.13
488.091	0.14
488.443	0.14
488.794	0.14
489.146	0.14
489.498	0.14
489.849	0.14
490.201	0.15
490.552	0.15
490.904	0.15
491.255	0.15
491.607	0.15
491.958	0.16
492.309	0.16
492.661	0.16
493.012	0.17
493.363	0.16
493.714	0.17
494.065	0.17
494.416	0.17
494.767	0.17
495.118	0.18
495.469	0.18
495.82	0.18
496.171	0.18
496.522	0.18
496.872	0.19
497.223	0.19
497.574	0.19
497.924	0.19
498.275	0.2
498.626	0.2
498.976	0.2
499.327	0.21
499.677	0.21
500.027	0.21
500.378	0.21
500.728	0.21
501.078	0.21
501.428	0.21
501.779	0.22
502.129	0.22
502.479	0.22
502.829	0.22
503.179	0.22
503.529	0.23
503.879	0.23
504.229	0.24
504.578	0.23
504.928	0.24
505.278	0.24
505.628	0.24
505.977	0.24
506.327	0.25
506.676	0.25
507.026	0.25
507.375	0.26
507.725	0.26
508.074	0.26
508.424	0.26
508.773	0.26
509.122	0.27
509.471	0.27
509.82	0.27
510.17	0.28
510.519	0.28
510.868	0.28
511.217	0.28
511.566	0.29
511.915	0.29
512.263	0.29
512.612	0.29
512.961	0.3
513.31	0.3
513.659	0.3
514.007	0.3
514.356	0.3
514.704	0.31
515.053	0.31
515.401	0.32
515.75	0.32
516.098	0.32
516.447	0.32
516.795	0.32
517.143	0.32
517.491	0.33
517.839	0.33
518.188	0.33
518.536	0.34
518.884	0.33
519.232	0.34
519.58	0.34
519.928	0.34
520.275	0.35
520.623	0.35
520.971	0.35
521.319	0.36
521.666	0.36
522.014	0.36
522.362	0.36
522.709	0.36
523.057	0.37
523.404	0.37
523.752	0.38
524.099	0.37
524.446	0.38
524.794	0.38
525.141	0.38
525.488	0.38
525.835	0.39
526.182	0.39
526.529	0.39
526.876	0.4
527.223	0.4
527.57	0.4
527.917	0.4
528.264	0.41
528.611	0.41
528.958	0.41
529.304	0.42
529.651	0.42
529.998	0.42
530.344	0.43
530.691	0.42
531.037	0.43
531.384	0.43
531.73	0.43
532.076	0.44
532.423	0.44
532.769	0.44
533.115	0.45
533.461	0.45
533.807	0.45
534.154	0.45
534.5	0.46
534.846	0.47
535.192	0.47
535.537	0.47
535.883	0.48
536.229	0.47
536.575	0.48
536.921	0.48
537.266	0.48
537.612	0.49
537.957	0.49
538.303	0.49
538.649	0.5
538.994	0.5
539.339	0.51
539.685	0.51
540.03	0.51
540.375	0.52
540.721	0.52
541.066	0.52
541.411	0.53
541.756	0.53
542.101	0.53
542.446	0.53
542.791	0.53
543.136	0.54
543.481	0.54
543.825	0.55
544.17	0.56
544.515	0.55
544.86	0.56
545.204	0.57
545.549	0.57
545.893	0.58
546.238	0.58
546.582	0.58
546.927	0.59
547.271	0.59
547.615	0.59
547.96	0.59
548.304	0.6
548.648	0.6
548.992	0.6
549.336	0.61
549.68	0.6
550.024	0.61
550.368	0.61
550.712	0.61
551.056	0.62
551.4	0.62
551.743	0.63
552.087	0.63
552.431	0.63
552.774	0.63
553.118	0.63
553.462	0.64
553.805	0.64
554.148	0.64
554.492	0.65
554.835	0.65
555.178	0.65
555.522	0.65
555.865	0.66
556.208	0.66
556.551	0.66
556.894	0.66
557.237	0.67
557.58	0.67
557.923	0.67
558.266	0.67
558.609	0.67
558.952	0.67
559.294	0.68
559.637	0.68
559.98	0.68
560.322	0.68
560.665	0.68
561.007	0.68
561.35	0.68
561.692	0.69
562.034	0.68
562.377	0.69
562.719	0.69
563.061	0.69
563.403	0.7
563.745	0.69
564.088	0.7
564.43	0.69
564.772	0.7
565.113	0.7
565.455	0.7
565.797	0.71
566.139	0.71
566.481	0.71
566.822	0.71
567.164	0.71
567.506	0.71
567.847	0.71
568.189	0.72
568.53	0.72
568.872	0.71
569.213	0.72
569.554	0.72
569.895	0.72
570.237	0.71
570.578	0.71
570.919	0.72
571.26	0.72
571.601	0.71
571.942	0.71
572.283	0.72
572.624	0.71
572.965	0.71
573.306	0.71
573.646	0.71
573.987	0.72
574.328	0.71
574.668	0.72
575.009	0.72
575.349	0.72
575.69	0.71
576.03	0.72
576.37	0.71
576.711	0.71
577.051	0.71
577.391	0.72
577.731	0.72
578.072	0.72
578.412	0.72
578.752	0.72
579.092	0.72
579.431	0.71
579.771	0.69
580.111	0.67
580.451	0.68
580.791	0.7
581.13	0.72
581.47	0.73
581.81	0.73
582.149	0.72
582.489	0.74
582.828	0.72
583.167	0.7
583.507	0.66
583.846	0.64
584.185	0.65
584.525	0.68
584.864	0.71
585.203	0.74
585.542	0.75
585.881	0.75
586.22	0.76
586.559	0.75
586.898	0.74
587.236	0.73
587.575	0.72
587.914	0.73
588.252	0.75
588.591	0.76
588.93	0.76
589.268	0.76
589.607	0.77
589.945	0.77
590.283	0.77
590.622	0.77
590.96	0.78
591.298	0.79
591.636	0.79
591.974	0.8
592.313	0.8
592.651	0.81
592.989	0.81
593.326	0.82
593.664	0.82
594.002	0.82
594.34	0.82
594.678	0.82
595.015	0.82
595.353	0.8
595.691	0.81
596.028	0.83
596.366	0.83
596.703	0.84
597.04	0.85
597.378	0.85
597.715	0.85
598.052	0.86
598.389	0.86
598.726	0.87
599.064	0.86
599.401	0.86
599.738	0.87
600.074	0.87
600.411	0.88
600.748	0.87
601.085	0.86
601.422	0.86
601.758	0.86
602.095	0.86
602.432	0.86
602.768	0.86
603.105	0.87
603.441	0.88
603.777	0.87
604.114	0.88
604.45	0.88
604.786	0.88
605.122	0.87
605.459	0.87
605.795	0.87
606.131	0.87
606.467	0.87
606.803	0.87
607.139	0.87
607.474	0.87
607.81	0.86
608.146	0.86
608.482	0.86
608.817	0.86
609.153	0.86
609.488	0.86
609.824	0.86
610.159	0.86
610.495	0.86
610.83	0.85
611.165	0.86
611.5	0.85
611.836	0.85
612.171	0.85
612.506	0.84
612.841	0.85
613.176	0.85
613.511	0.85
613.845	0.84
614.18	0.84
614.515	0.84
614.85	0.83
615.184	0.83
615.519	0.83
615.854	0.83
616.188	0.82
616.523	0.82
616.857	0.81
617.191	0.82
617.526	0.81
617.86	0.81
618.194	0.8
618.528	0.81
618.862	0.81
619.196	0.81
619.53	0.8
619.864	0.8
620.198	0.8
620.532	0.79
620.866	0.79
621.2	0.79
621.533	0.78
621.867	0.79
622.201	0.78
622.534	0.78
622.868	0.78
623.201	0.78
623.534	0.78
623.868	0.77
624.201	0.76
624.534	0.76
624.868	0.76
625.201	0.76
625.534	0.76
625.867	0.75
626.2	0.75
626.533	0.74
626.865	0.74
627.198	0.73
627.531	0.73
627.864	0.73
628.196	0.73
628.529	0.72
628.862	0.72
629.194	0.71
629.527	0.71
629.859	0.71
630.191	0.71
630.524	0.7
630.856	0.69
631.188	0.69
631.52	0.69
631.852	0.68
632.184	0.68
632.516	0.67
632.848	0.67
633.18	0.67
633.512	0.67
633.844	0.66
634.175	0.65
634.507	0.65
634.839	0.64
635.17	0.64
635.502	0.63
635.833	0.62
636.165	0.62
636.496	0.62
636.827	0.61
637.159	0.6
637.49	0.6
637.821	0.59
638.152	0.59
638.483	0.59
638.814	0.58
639.145	0.58
639.476	0.57
639.807	0.57
640.137	0.57
640.468	0.56
640.799	0.55
641.129	0.55
641.46	0.54
641.791	0.54
642.121	0.54
642.451	0.54
642.782	0.53
643.112	0.53
643.442	0.53
643.773	0.53
644.103	0.52
644.433	0.52
644.763	0.51
645.093	0.51
645.423	0.51
645.753	0.5
646.082	0.5
646.412	0.5
646.742	0.5
647.072	0.49
647.401	0.49
647.731	0.49
648.06	0.49
648.39	0.49
648.719	0.49
649.048	0.49
649.378	0.48
649.707	0.48
650.036	0.48
650.365	0.47
650.694	0.47
651.023	0.47
651.352	0.47
651.681	0.47
652.01	0.47
652.339	0.47
652.668	0.47
652.996	0.47
653.325	0.47
653.654	0.46
653.982	0.47
654.311	0.46
654.639	0.47
654.967	0.47
655.296	0.46
655.624	0.46
655.952	0.46
656.28	0.46
656.609	0.46
656.937	0.46
657.265	0.46
657.593	0.39
657.92	0.25
658.248	0.19
658.576	0.18
658.904	0.26
659.231	0.35
659.559	0.42
659.887	0.45
660.214	0.45
660.542	0.45
660.869	0.45
661.196	0.45
661.524	0.45
661.851	0.46
662.178	0.45
662.505	0.45
662.832	0.45
663.159	0.45
663.486	0.45
663.813	0.45
664.14	0.45
664.467	0.45
664.794	0.45
665.12	0.44
665.447	0.44
665.774	0.44
666.1	0.44
666.427	0.43
666.753	0.44
667.079	0.43
667.406	0.43
667.732	0.43
668.058	0.43
668.384	0.43
668.71	0.43
669.036	0.43
669.362	0.43
669.688	0.43
670.014	0.43
670.34	0.42
670.666	0.42
670.991	0.42
671.317	0.42
671.643	0.42
671.968	0.42
672.294	0.41
672.619	0.42
672.945	0.41
673.27	0.41
673.595	0.4
673.92	0.4
674.246	0.39
674.571	0.39
674.896	0.39
675.221	0.39
675.546	0.39
675.87	0.39
676.195	0.38
676.52	0.38
676.845	0.38
677.169	0.38
677.494	0.37
677.819	0.37
678.143	0.37
678.468	0.36
678.792	0.36
679.116	0.36
679.44	0.35
679.765	0.35
680.089	0.35
680.413	0.34
680.737	0.34
681.061	0.34
681.385	0.33
681.709	0.33
682.033	0.33
682.356	0.32
682.68	0.32
683.004	0.32
683.327	0.31
683.651	0.31
683.974	0.31
684.298	0.31
684.621	0.3
684.944	0.3
685.268	0.3
685.591	0.29
685.914	0.29
686.237	0.29
686.56	0.28
686.883	0.27
687.206	0.27
687.529	0.27
687.852	0.26
688.175	0.26
688.497	0.26
688.82	0.26
689.142	0.26
689.465	0.25
689.787	0.25
690.11	0.25
690.432	0.25
690.755	0.25
691.077	0.24
691.399	0.24
691.721	0.23
692.043	0.23
692.365	0.23
692.687	0.23
693.009	0.22
693.331	0.22
693.653	0.21
693.974	0.21
694.296	0.21
694.618	0.21
694.939	0.21
695.261	0.2
695.582	0.2
695.904	0.2
696.225	0.2
696.546	0.2
696.868	0.2
697.189	0.19
697.51	0.19
697.831	0.19
698.152	0.19
698.473	0.18
698.794	0.17
699.114	0.17
699.435	0.15
699.756	0.16
700.077	0.16
700.397	0.16
700.718	0.17
701.038	0.17
701.359	0.17
701.679	0.16
701.999	0.17
702.32	0.16
702.64	0.16
702.96	0.16
703.28	0.16
703.6	0.16
703.92	0.15
704.24	0.15
704.56	0.15
704.879	0.14
705.199	0.15
705.519	0.14
705.838	0.14
706.158	0.14
706.478	0.14
706.797	0.15
707.116	0.15
707.436	0.15
707.755	0.15
708.074	0.15
708.393	0.14
708.712	0.13
709.031	0.12
709.35	0.12
709.669	0.11
709.988	0.11
710.307	0.12
710.626	0.12
710.944	0.13
711.263	0.13
711.582	0.13
711.9	0.14
712.219	0.13
712.537	0.13
712.855	0.13
713.174	0.13
713.492	0.13
713.81	0.13
714.128	0.13
714.446	0.13
714.764	0.12
715.082	0.12
715.4	0.12
715.718	0.12
716.035	0.12
716.353	0.12
716.671	0.12
716.988	0.12
717.306	0.12
717.623	0.13
717.941	0.13
718.258	0.13
718.575	0.14
718.893	0.14
719.21	0.14
719.527	0.14
719.844	0.14
720.161	0.14
720.478	0.14
720.795	0.14
721.112	0.14
721.428	0.15
721.745	0.15
722.062	0.15
722.378	0.15
722.695	0.15
723.011	0.15
723.328	0.15
723.644	0.15
723.96	0.15
724.276	0.15
724.593	0.15
724.909	0.16
725.225	0.15
725.541	0.15
725.857	0.16
726.173	0.16
726.488	0.16
726.804	0.16
727.12	0.16
727.435	0.16
727.751	0.16
728.067	0.15
728.382	0.16
728.697	0.15
729.013	0.16
729.328	0.15
729.643	0.15
729.958	0.15
730.273	0.15
730.588	0.15
730.903	0.15
731.218	0.15
731.533	0.16
731.848	0.15
732.163	0.16
732.477	0.15
732.792	0.15
733.107	0.14
733.421	0.15
733.736	0.15
734.05	0.15
734.364	0.15
734.678	0.15
734.993	0.15
735.307	0.15
735.621	0.15
735.935	0.15
736.249	0.15
736.563	0.15
736.877	0.15
737.19	0.16
737.504	0.16
737.818	0.15
738.131	0.15
738.445	0.16
738.758	0.15
739.072	0.15
739.385	0.15
739.698	0.15
740.012	0.15
740.325	0.14
740.638	0.14
740.951	0.14
741.264	0.14
741.577	0.14
741.89	0.15
742.203	0.14
742.515	0.15
742.828	0.14
743.141	0.14
743.453	0.14
743.766	0.14
744.078	0.14
744.391	0.14
744.703	0.14
745.015	0.13
745.327	0.13
745.639	0.13
745.952	0.13
746.264	0.13
746.575	0.13
746.887	0.13
747.199	0.13
747.511	0.13
747.823	0.13
748.134	0.12
748.446	0.12
748.757	0.12
749.069	0.12
749.38	0.12
749.692	0.12
750.003	0.12
750.314	0.11
750.625	0.11
750.936	0.11
751.248	0.11
751.559	0.1
751.869	0.1
752.18	0.1
752.491	0.1
752.802	0.1
753.112	0.1
753.423	0.1
753.734	0.1
754.044	0.1
754.355	0.1
754.665	0.1
754.975	0.09
755.285	0.09
755.596	0.09
755.906	0.08
756.216	0.08
756.526	0.08
756.836	0.08
757.146	0.08
757.455	0.08
757.765	0.08
758.075	0.08
758.385	0.08
758.694	0.07
759.004	0.07
759.313	0.07
759.622	0.07
759.932	0.07
760.241	0.07
760.55	0.07
760.859	0.06
761.168	0.06
761.477	0.06
761.786	0.06
762.095	0.06
762.404	0.05
762.713	0.05
763.021	0.06
763.33	0.06
763.639	0.05
763.947	0.06
764.256	0.05
764.564	0.06
764.872	0.05
765.181	0.05
765.489	0.05
765.797	0.05
766.105	0.05
766.413	0.05
766.721	0.05
767.029	0.04
767.337	0.04
767.644	0.04
767.952	0.04
768.26	0.05
768.567	0.05
768.875	0.05
769.182	0.05
769.49	0.05
769.797	0.05
770.104	0.05
770.411	0.05
770.718	0.05
771.026	0.05
771.333	0.05
771.639	0.05
771.946	0.05
772.253	0.05
772.56	0.05
772.867	0.04
773.173	0.05
773.48	0.04
773.786	0.04
774.093	0.04
774.399	0.04
774.705	0.04
775.012	0.04
775.318	0.03
775.624	0.03
775.93	0.03
776.236	0.03
776.542	0.03
776.848	0.03
777.154	0.04
777.459	0.03
777.765	0.04
778.071	0.04
778.376	0.04
778.682	0.04
778.987	0.04
779.292	0.04
779.598	0.04
779.903	0.04
780.208	0.04
780.513	0.04
780.818	0.04
781.123	0.04
781.428	0.04
781.733	0.05
782.038	0.04
782.343	0.05
782.647	0.04
782.952	0.04
783.256	0.04
783.561	0.04
783.865	0.04
784.17	0.04
784.474	0.04
784.778	0.04
785.082	0.04
785.386	0.04
785.69	0.04
785.994	0.04
786.298	0.04
786.602	0.04
786.906	0.04
787.209	0.04
787.513	0.04
787.817	0.04
788.12	0.04
788.424	0.04
788.727	0.04
789.03	0.04
789.333	0.04
789.637	0.04
789.94	0.04
790.243	0.04
790.546	0.04
790.849	0.04
791.152	0.04
791.454	0.04
791.757	0.04
792.06	0.04
792.362	0.04
792.665	0.03
792.967	0.04
793.27	0.04
793.572	0.04
793.874	0.04
794.177	0.04
794.479	0.04
794.781	0.04
795.083	0.04
795.385	0.04
795.687	0.03
795.989	0.04
796.29	0.04
796.592	0.05
796.894	0.04
797.195	0.04
797.497	0.05
797.798	0.04
798.1	0.04
798.401	0.04
798.702	0.05
799.003	0.04
799.304	0.04
799.605	0.05
799.906	0.05
800.207	0.04
800.508	0.04
800.809	0.04
801.11	0.04
801.41	0.04
801.711	0.04
802.011	0.04
802.312	0.03
802.612	0.03
802.913	0.03
803.213	0.03
803.513	0.03
803.813	0.04
804.113	0.04
804.413	0.04
804.713	0.04
805.013	0.04
805.313	0.04
805.613	0.04
805.912	0.04
806.212	0.04
806.511	0.04
806.811	0.04
807.11	0.04
807.41	0.04
807.709	0.04
808.008	0.04
808.307	0.05
808.606	0.05
808.905	0.04
809.204	0.04
809.503	0.05
809.802	0.04
810.101	0.04
810.399	0.04
810.698	0.04
810.997	0.05
811.295	0.04
811.593	0.04
811.892	0.04
812.19	0.04
812.488	0.05
812.786	0.05
813.084	0.05
813.383	0.05
813.68	0.06
813.978	0.05
814.276	0.06
814.574	0.05
814.872	0.05
815.169	0.05
815.467	0.05
815.764	0.05
816.062	0.05
816.359	0.05
816.656	0.05
816.954	0.05
817.251	0.05
817.548	0.06
817.845	0.06
818.142	0.06
818.439	0.06
818.735	0.06
819.032	0.06
819.329	0.05
819.626	0.06
819.922	0.05
820.219	0.06
820.515	0.06
820.811	0.05
821.108	0.05
821.404	0.05
821.7	0.05
821.996	0.05
822.292	0.04
822.588	0.05
822.884	0.05
823.18	0.05
823.475	0.05
823.771	0.05
824.067	0.05
824.362	0.06
824.658	0.06
824.953	0.06
825.249	0.06
825.544	0.05
825.839	0.05
826.134	0.06
826.429	0.06
826.724	0.06
827.019	0.06
827.314	0.06
827.609	0.05
827.904	0.04
828.198	0.05
828.493	0.04
828.787	0.05
829.082	0.05
829.376	0.05
829.671	0.05
829.965	0.05
830.259	0.06
830.553	0.06
830.847	0.06
831.141	0.07
831.435	0.06
831.729	0.06
832.023	0.07
832.317	0.06
832.61	0.06
832.904	0.07
833.197	0.06
833.491	0.06
833.784	0.07
834.077	0.06
834.371	0.07
834.664	0.06
834.957	0.07
835.25	0.07
835.543	0.06
835.836	0.06
836.129	0.06
836.421	0.06
836.714	0.06
837.007	0.06
837.299	0.06
837.592	0.06
837.884	0.06
838.177	0.05
838.469	0.05
838.761	0.06
839.053	0.05
839.345	0.06
839.637	0.06
839.929	0.06
840.221	0.07
840.513	0.07
840.805	0.07
841.096	0.07
841.388	0.07
841.68	0.07
841.971	0.07
842.262	0.07
842.554	0.07
842.845	0.07
843.136	0.07
843.427	0.07
843.718	0.07
844.009	0.07
844.3	0.07
844.591	0.07
844.882	0.07
845.173	0.06
845.463	0.07
845.754	0.07
846.044	0.06
846.335	0.07
846.625	0.06
846.915	0.07
847.206	0.07
847.496	0.07
847.786	0.06
848.076	0.07
848.366	0.07
848.656	0.06
848.945	0.07
849.235	0.07
849.525	0.06
849.814	0.06
850.104	0.06
850.393	0.07
850.683	0.06
850.972	0.07
851.261	0.06
851.551	0.07
851.84	0.06
852.129	0.06
852.418	0.08
852.707	0.07
852.995	0.07
853.284	0.07
853.573	0.06
853.862	0.07
854.15	0.06
854.439	0.08
854.727	0.07
855.015	0.06
855.304	0.07
855.592	0.07
855.88	0.05
856.168	0.05
856.456	0.06
856.744	0.07
857.032	0.06
857.32	0.07
857.607	0.09
857.895	0.06
858.183	0.08
858.47	0.05
858.757	0.06
859.045	0.07
859.332	0.06
859.619	0.06
859.907	0.06
860.194	0.07
860.481	0.08
860.768	0.08
861.054	0.07
861.341	0.07
861.628	0.05
861.915	0.08
862.201	0.06
862.488	0.06
862.774	0.07
863.061	0.06
863.347	0.06
863.633	0.07
863.919	0.05
864.205	0.07
864.491	0.05
864.777	0.04
865.063	0.05
865.349	0.06
865.635	0.07
865.92	0.05
866.206	0.03
866.492	0.05
866.777	0.08
867.062	0.1
867.348	0.07
867.633	0.05
867.918	0.07
868.203	0.08
868.488	0.07
868.773	0.04
869.058	0.06
869.343	0.04
869.628	0.06
869.912	0.02
870.197	0.05
870.482	0.06
870.766	0.04
871.05	0.01
871.335	0.04
871.619	0.05
871.903	0.03
872.187	0.03
872.471	0.04
872.755	0.05
873.039	0.04
873.323	0.04
873.607	0.04
873.89	0.04
874.174	-0.02
874.458	0.05
874.741	-0
875.024	0.04
875.308	0.01
875.591	-0.02
875.874	-0
876.157	-0
876.44	-0.01
876.723	-0.02
877.006	0.02
877.289	-0.01
877.572	0.05
877.854	0.03
878.137	0.03
878.42	-0.01
878.702	0.03
878.984	-0.01
879.267	-0.07
879.549	-0.01
879.831	0.04
880.113	0.07
880.395	0.01
880.677	-0
880.959	-0.01
