Data from Rubpy_EV_1800_EDTA_Buffered_Absorbance_15-20-46-660.txt Node
Date: Tue Jun 30 15:20:46 BST 2026
User: fpm-admin
Spectrometer: OFX00224
Trigger mode: 0
Integration Time (sec): 7.000000E-2
Scans to average: 3
Nonlinearity correction enabled: false
Boxcar width: 0
Storing dark spectrum: false
XAxis mode: Wavelengths
Number of Pixels in Spectrum: 2136
>>>>>Begin Spectral Data<<<<<
154.91	-0.32
155.289	-0.46
155.669	-0
156.048	-0.12
156.428	-0.33
156.807	-0.23
157.186	0.15
157.566	-0.09
157.945	1.19
158.325	-0
158.704	-0.76
159.083	-0
159.462	0.38
159.842	-0
160.221	0.23
160.6	-0.36
160.979	-0.47
161.359	0.07
161.738	-0.25
162.117	0.34
162.496	-0.15
162.875	-0.07
163.254	-0.26
163.633	-0
164.012	-0.52
164.391	0.16
164.77	0.54
165.149	-0.16
165.528	-0
165.907	-0.92
166.286	-0.03
166.665	-0.4
167.044	-0.8
167.423	-0
167.802	-0.06
168.181	0.03
168.559	-0
168.938	0.2
169.317	-0.51
169.696	-0
170.074	-0
170.453	-0.33
170.832	0.38
171.21	-0
171.589	-0
171.968	-0
172.346	0.18
172.725	-0.08
173.103	-0.08
173.482	0.39
173.861	0.58
174.239	0.35
174.617	0.46
174.996	-0.12
175.374	-0
175.753	-0
176.131	0.56
176.51	0.04
176.888	-0
177.266	-0
177.645	-0.16
178.023	0.36
178.401	-0
178.779	-0.09
179.158	-0.08
179.536	-0
179.914	-0
180.292	-0.28
180.67	-0
181.048	-0
181.427	0.31
181.805	-0.22
182.183	-0.34
182.561	-0
182.939	-0
183.317	-0.3
183.695	-0
184.073	0.05
184.451	0.35
184.829	0.14
185.206	-0.26
185.584	-0
185.962	0.9
186.34	0.2
186.718	-0
187.096	0.04
187.473	-0
187.851	-0
188.229	0.32
188.607	0.06
188.984	0.08
189.362	0.05
189.74	0.04
190.117	0.01
190.495	0.01
190.872	-0.01
191.25	0.04
191.627	-0.02
192.005	-0.01
192.382	0.1
192.76	-0
193.137	-0.04
193.515	0.03
193.892	-0.02
194.269	0.05
194.647	0.01
195.024	0.02
195.401	0.04
195.779	-0.03
196.156	-0.02
196.533	0.05
196.91	0.14
197.288	0.09
197.665	0.11
198.042	0.06
198.419	0.05
198.796	0.1
199.173	0.11
199.55	0.03
199.927	0.06
200.304	0.04
200.681	0.08
201.058	0.01
201.435	0.01
201.812	0.05
202.189	0.05
202.566	0.01
202.943	0.04
203.32	-0.01
203.697	0.05
204.073	0.05
204.45	0.03
204.827	0.06
205.204	0
205.58	0.05
205.957	0.07
206.334	0.05
206.71	0.05
207.087	0.05
207.464	0.05
207.84	0.12
208.217	0.1
208.593	0.08
208.97	-0.03
209.346	0.09
209.723	-0.01
210.099	-0.01
210.476	0.08
210.852	0.08
211.228	-0.01
211.605	0.02
211.981	-0.02
212.357	0.09
212.733	0.1
213.11	0.09
213.486	0.06
213.862	0.08
214.238	0.12
214.614	-0.05
214.991	0.06
215.367	-0.04
215.743	-0.02
216.119	0.05
216.495	0.08
216.871	0.09
217.247	0.01
217.623	0.01
217.999	0.09
218.375	-0.01
218.751	0.04
219.127	0.17
219.502	0.03
219.878	0.04
220.254	0.08
220.63	0.07
221.006	0.05
221.381	0.13
221.757	0.05
222.133	0.12
222.508	0.1
222.884	0.04
223.26	0.04
223.635	0.04
224.011	0.05
224.386	0.09
224.762	0.03
225.137	0.08
225.513	0.02
225.888	-0
226.264	0.06
226.639	0.09
227.014	0.04
227.39	0.05
227.765	0.06
228.14	-0.02
228.516	0.11
228.891	0.16
229.266	0.03
229.641	0.04
230.017	0.03
230.392	0.1
230.767	0.07
231.142	-0.01
231.517	-0.01
231.892	-0
232.267	0.03
232.642	0.02
233.017	0.03
233.392	0.05
233.767	0.08
234.142	-0.01
234.517	0.12
234.892	0.05
235.267	0.11
235.641	0.03
236.016	0.01
236.391	0.01
236.766	0.03
237.14	0.05
237.515	-0.05
237.89	-0.01
238.264	0.08
238.639	0.05
239.014	0.1
239.388	0.05
239.763	0.05
240.137	0.05
240.512	0.09
240.886	0.03
241.261	0.1
241.635	0.09
242.009	0.01
242.384	0.11
242.758	0.12
243.132	0.07
243.507	0.03
243.881	0.05
244.255	0.06
244.629	0.06
245.004	0
245.378	-0.02
245.752	0.05
246.126	0.06
246.5	0.09
246.874	0.04
247.248	0.04
247.622	0.03
247.996	0.1
248.37	0.02
248.744	0.01
249.118	0.06
249.492	-0.01
249.866	0.02
250.24	0.08
250.613	0.06
250.987	0.06
251.361	0.04
251.735	0.01
252.108	0.08
252.482	0.02
252.856	-0.03
253.229	-0.01
253.603	0.02
253.977	0.08
254.35	0.01
254.724	-0.01
255.097	-0.02
255.471	0.04
255.844	0.06
256.218	0.1
256.591	0.02
256.964	0.06
257.338	0.01
257.711	0.02
258.084	0.05
258.458	0.07
258.831	0.05
259.204	0.03
259.577	-0.01
259.95	0.09
260.323	0.02
260.697	0.01
261.07	0.06
261.443	0.04
261.816	0.03
262.189	0.13
262.562	0.05
262.935	-0.01
263.308	0.05
263.68	0.1
264.053	-0.01
264.426	0.02
264.799	0.06
265.172	0.03
265.545	0.1
265.917	0.1
266.29	0.08
266.663	0.05
267.035	0.06
267.408	0.04
267.781	0.03
268.153	0.11
268.526	0.07
268.898	0.13
269.271	0.03
269.643	0.01
270.016	0.01
270.388	0.03
270.76	0.04
271.133	0.04
271.505	0.08
271.877	0.01
272.25	0.04
272.622	0.02
272.994	0.02
273.366	0.02
273.739	0.05
274.111	0.06
274.483	0.02
274.855	0.09
275.227	0.07
275.599	0.08
275.971	0.01
276.343	0.09
276.715	0.09
277.087	0.08
277.459	0.07
277.831	0.04
278.203	0.09
278.574	0.1
278.946	0.06
279.318	0.05
279.69	0.02
280.061	0.07
280.433	0.06
280.805	0.09
281.176	0.01
281.548	0.03
281.92	0.04
282.291	0.02
282.663	0.06
283.034	0
283.406	0.05
283.777	0.08
284.148	0.06
284.52	0.03
284.891	0.02
285.262	0.05
285.634	0.07
286.005	0.09
286.376	-0.02
286.747	0.03
287.119	-0.03
287.49	0.07
287.861	0.03
288.232	0.05
288.603	0.02
288.974	0.05
289.345	-0.01
289.716	0.09
290.087	0.05
290.458	0.04
290.829	0.11
291.2	0.04
291.571	0.06
291.941	0.04
292.312	0.03
292.683	0.07
293.054	0.01
293.424	0.07
293.795	0.07
294.166	0.1
294.536	0.04
294.907	0.05
295.277	0.04
295.648	0.08
296.018	0.05
296.389	0.04
296.759	0.05
297.13	0.01
297.5	0.09
297.871	0.04
298.241	0.06
298.611	0.09
298.981	0.05
299.352	0.1
299.722	0.05
300.092	0.04
300.462	0.06
300.832	0.07
301.202	0.08
301.573	0.05
301.943	0.01
302.313	0
302.683	0.05
303.053	0.05
303.422	0.05
303.792	0.05
304.162	0.05
304.532	0.06
304.902	0.03
305.272	0.05
305.641	0.05
306.011	0.04
306.381	0.05
306.75	0.05
307.12	0.05
307.49	0.04
307.859	0.06
308.229	0.05
308.598	0.05
308.968	0.04
309.337	0.05
309.707	0.05
310.076	0.05
310.445	0.05
310.815	0.05
311.184	0.05
311.553	0.06
311.923	0.06
312.292	0.06
312.661	0.06
313.03	0.05
313.399	0.05
313.768	0.06
314.137	0.06
314.506	0.06
314.875	0.05
315.244	0.05
315.613	0.05
315.982	0.06
316.351	0.05
316.72	0.05
317.089	0.05
317.458	0.05
317.826	0.05
318.195	0.05
318.564	0.05
318.933	0.05
319.301	0.06
319.67	0.05
320.038	0.05
320.407	0.05
320.775	0.05
321.144	0.05
321.512	0.05
321.881	0.05
322.249	0.05
322.618	0.05
322.986	0.05
323.354	0.05
323.723	0.04
324.091	0.04
324.459	0.04
324.827	0.04
325.195	0.04
325.564	0.04
325.932	0.04
326.3	0.04
326.668	0.04
327.036	0.04
327.404	0.04
327.772	0.04
328.14	0.04
328.508	0.04
328.875	0.05
329.243	0.04
329.611	0.03
329.979	0.03
330.346	0.04
330.714	0.04
331.082	0.04
331.449	0.04
331.817	0.04
332.185	0.04
332.552	0.04
332.92	0.04
333.287	0.05
333.655	0.04
334.022	0.04
334.389	0.04
334.757	0.05
335.124	0.05
335.491	0.05
335.859	0.05
336.226	0.05
336.593	0.04
336.96	0.04
337.327	0.04
337.695	0.05
338.062	0.04
338.429	0.05
338.796	0.05
339.163	0.05
339.53	0.05
339.897	0.05
340.263	0.05
340.63	0.05
340.997	0.05
341.364	0.05
341.731	0.06
342.097	0.06
342.464	0.06
342.831	0.06
343.197	0.06
343.564	0.06
343.931	0.06
344.297	0.07
344.664	0.07
345.03	0.06
345.396	0.07
345.763	0.07
346.129	0.07
346.496	0.07
346.862	0.07
347.228	0.07
347.594	0.07
347.961	0.08
348.327	0.08
348.693	0.08
349.059	0.08
349.425	0.08
349.791	0.08
350.157	0.08
350.523	0.08
350.889	0.09
351.255	0.09
351.621	0.09
351.987	0.09
352.353	0.09
352.719	0.09
353.084	0.1
353.45	0.1
353.816	0.1
354.181	0.11
354.547	0.1
354.913	0.11
355.278	0.12
355.644	0.11
356.009	0.11
356.375	0.12
356.74	0.12
357.106	0.12
357.471	0.12
357.836	0.13
358.202	0.13
358.567	0.13
358.932	0.13
359.297	0.14
359.663	0.14
360.028	0.14
360.393	0.15
360.758	0.15
361.123	0.15
361.488	0.15
361.853	0.15
362.218	0.15
362.583	0.15
362.948	0.16
363.312	0.16
363.677	0.16
364.042	0.17
364.407	0.17
364.772	0.17
365.136	0.17
365.501	0.18
365.865	0.19
366.23	0.19
366.595	0.2
366.959	0.2
367.324	0.19
367.688	0.2
368.052	0.21
368.417	0.21
368.781	0.21
369.145	0.22
369.51	0.22
369.874	0.22
370.238	0.23
370.602	0.22
370.967	0.22
371.331	0.22
371.695	0.22
372.059	0.22
372.423	0.22
372.787	0.22
373.151	0.22
373.515	0.22
373.878	0.22
374.242	0.22
374.606	0.22
374.97	0.22
375.334	0.22
375.697	0.22
376.061	0.22
376.425	0.22
376.788	0.22
377.152	0.23
377.515	0.22
377.879	0.23
378.242	0.24
378.606	0.23
378.969	0.24
379.333	0.24
379.696	0.25
380.059	0.25
380.422	0.25
380.786	0.26
381.149	0.26
381.512	0.27
381.875	0.27
382.238	0.28
382.601	0.29
382.964	0.3
383.327	0.3
383.69	0.31
384.053	0.32
384.416	0.33
384.779	0.34
385.142	0.35
385.504	0.35
385.867	0.36
386.23	0.36
386.593	0.37
386.955	0.37
387.318	0.37
387.68	0.37
388.043	0.37
388.405	0.36
388.768	0.36
389.13	0.36
389.493	0.35
389.855	0.35
390.217	0.35
390.58	0.35
390.942	0.35
391.304	0.35
391.666	0.36
392.028	0.36
392.391	0.38
392.753	0.38
393.115	0.39
393.477	0.41
393.839	0.43
394.201	0.44
394.563	0.46
394.924	0.48
395.286	0.5
395.648	0.52
396.01	0.54
396.371	0.55
396.733	0.56
397.095	0.57
397.456	0.58
397.818	0.58
398.18	0.58
398.541	0.57
398.903	0.55
399.264	0.54
399.625	0.52
399.987	0.5
400.348	0.47
400.709	0.45
401.071	0.44
401.432	0.41
401.793	0.37
402.154	0.35
402.515	0.33
402.876	0.31
403.238	0.28
403.599	0.25
403.96	0.24
404.32	0.22
404.681	0.21
405.042	0.2
405.403	0.18
405.764	0.17
406.125	0.15
406.485	0.14
406.846	0.14
407.207	0.13
407.567	0.12
407.928	0.11
408.288	0.11
408.649	0.1
409.009	0.09
409.37	0.09
409.73	0.08
410.091	0.08
410.451	0.08
410.811	0.08
411.171	0.07
411.532	0.07
411.892	0.06
412.252	0.05
412.612	0.06
412.972	0.06
413.332	0.05
413.692	0.05
414.052	0.04
414.412	0.05
414.772	0.05
415.132	0.04
415.492	0.05
415.851	0.05
416.211	0.04
416.571	0.04
416.931	0.04
417.29	0.04
417.65	0.04
418.009	0.04
418.369	0.03
418.728	0.04
419.088	0.03
419.447	0.03
419.807	0.03
420.166	0.03
420.525	0.04
420.884	0.03
421.244	0.03
421.603	0.03
421.962	0.04
422.321	0.03
422.68	0.03
423.039	0.03
423.398	0.04
423.757	0.03
424.116	0.02
424.475	0.03
424.834	0.03
425.193	0.03
425.551	0.03
425.91	0.02
426.269	0.03
426.628	0.03
426.986	0.03
427.345	0.03
427.703	0.02
428.062	0.02
428.42	0.03
428.779	0.02
429.137	0.03
429.496	0.01
429.854	0.02
430.212	0.02
430.57	0.02
430.929	0.02
431.287	0.02
431.645	0.02
432.003	0.02
432.361	0.03
432.719	0.02
433.077	0.02
433.435	0.01
433.793	0.02
434.151	0.02
434.509	0.02
434.866	0.01
435.224	0.02
435.582	0.02
435.94	0.02
436.297	0.01
436.655	0.02
437.012	0.01
437.37	0.02
437.727	0.02
438.085	0.02
438.442	0.01
438.8	0.01
439.157	0.01
439.514	0.02
439.872	0.02
440.229	0.02
440.586	0.01
440.943	0.02
441.3	0.01
441.657	0.01
442.014	0.02
442.371	0.01
442.728	0.02
443.085	0.01
443.442	0.01
443.799	0.01
444.156	0.02
444.513	0.02
444.869	0.01
445.226	0.01
445.583	0.01
445.939	0.01
446.296	0.01
446.652	0.01
447.009	0.01
447.365	0.01
447.722	0.01
448.078	0.01
448.434	0
448.791	0
449.147	0
449.503	0.01
449.859	0
450.215	-0
450.571	0
450.928	0
451.284	0
451.64	-0
451.995	0
452.351	-0
452.707	-0
453.063	0
453.419	-0.01
453.775	-0.01
454.13	-0.01
454.486	0
454.842	-0
455.197	-0.01
455.553	-0.02
455.908	-0.01
456.264	-0.01
456.619	-0.02
456.975	-0.02
457.33	-0.02
457.685	-0.02
458.04	-0.02
458.396	-0.02
458.751	-0.02
459.106	-0.02
459.461	-0.02
459.816	-0.03
460.171	-0.03
460.526	-0.03
460.881	-0.04
461.236	-0.04
461.591	-0.05
461.946	-0.04
462.301	-0.05
462.655	-0.04
463.01	-0.04
463.365	-0.04
463.719	-0.05
464.074	-0.06
464.428	-0.06
464.783	-0.07
465.137	-0.06
465.492	-0.06
465.846	-0.07
466.201	-0.06
466.555	-0.06
466.909	-0.06
467.263	-0.06
467.618	-0.05
467.972	-0.06
468.326	-0.06
468.68	-0.07
469.034	-0.07
469.388	-0.06
469.742	-0.07
470.096	-0.07
470.45	-0.07
470.804	-0.07
471.157	-0.07
471.511	-0.07
471.865	-0.06
472.218	-0.07
472.572	-0.06
472.926	-0.07
473.279	-0.06
473.633	-0.06
473.986	-0.05
474.34	-0.05
474.693	-0.05
475.046	-0.05
475.4	-0.04
475.753	-0.04
476.106	-0.03
476.459	-0.04
476.812	-0.03
477.165	-0.03
477.519	-0.02
477.872	-0.03
478.224	-0.02
478.577	-0.02
478.93	-0.02
479.283	-0.02
479.636	-0.02
479.989	-0.02
480.341	-0.01
480.694	-0.01
481.047	-0.01
481.399	-0.01
481.752	-0
482.104	-0
482.457	-0.01
482.809	-0
483.162	-0
483.514	0
483.866	0
484.219	0.01
484.571	0
484.923	0
485.275	0
485.627	0.01
485.979	0
486.331	0.01
486.683	0
487.035	0.01
487.387	0.01
487.739	0.01
488.091	0.01
488.443	0.01
488.794	0.02
489.146	0.01
489.498	0.01
489.849	0.01
490.201	0.01
490.552	0.02
490.904	0.01
491.255	0.02
491.607	0.02
491.958	0.02
492.309	0.02
492.661	0.02
493.012	0.01
493.363	0.02
493.714	0.01
494.065	0.02
494.416	0.02
494.767	0.02
495.118	0.02
495.469	0.02
495.82	0.03
496.171	0.02
496.522	0.03
496.872	0.03
497.223	0.03
497.574	0.03
497.924	0.03
498.275	0.02
498.626	0.03
498.976	0.03
499.327	0.03
499.677	0.03
500.027	0.03
500.378	0.03
500.728	0.03
501.078	0.03
501.428	0.03
501.779	0.03
502.129	0.03
502.479	0.03
502.829	0.03
503.179	0.03
503.529	0.03
503.879	0.03
504.229	0.04
504.578	0.03
504.928	0.03
505.278	0.03
505.628	0.04
505.977	0.04
506.327	0.04
506.676	0.04
507.026	0.04
507.375	0.05
507.725	0.04
508.074	0.04
508.424	0.04
508.773	0.04
509.122	0.04
509.471	0.04
509.82	0.04
510.17	0.05
510.519	0.04
510.868	0.05
511.217	0.05
511.566	0.05
511.915	0.04
512.263	0.04
512.612	0.05
512.961	0.05
513.31	0.05
513.659	0.05
514.007	0.05
514.356	0.05
514.704	0.05
515.053	0.05
515.401	0.05
515.75	0.05
516.098	0.05
516.447	0.05
516.795	0.05
517.143	0.05
517.491	0.06
517.839	0.06
518.188	0.06
518.536	0.06
518.884	0.06
519.232	0.06
519.58	0.06
519.928	0.06
520.275	0.06
520.623	0.06
520.971	0.06
521.319	0.06
521.666	0.06
522.014	0.06
522.362	0.06
522.709	0.06
523.057	0.06
523.404	0.06
523.752	0.06
524.099	0.06
524.446	0.07
524.794	0.06
525.141	0.07
525.488	0.07
525.835	0.07
526.182	0.07
526.529	0.07
526.876	0.07
527.223	0.07
527.57	0.07
527.917	0.07
528.264	0.07
528.611	0.07
528.958	0.07
529.304	0.08
529.651	0.07
529.998	0.08
530.344	0.07
530.691	0.07
531.037	0.08
531.384	0.08
531.73	0.08
532.076	0.08
532.423	0.08
532.769	0.08
533.115	0.08
533.461	0.08
533.807	0.08
534.154	0.08
534.5	0.08
534.846	0.08
535.192	0.09
535.537	0.08
535.883	0.09
536.229	0.09
536.575	0.09
536.921	0.08
537.266	0.09
537.612	0.09
537.957	0.09
538.303	0.09
538.649	0.09
538.994	0.09
539.339	0.09
539.685	0.1
540.03	0.1
540.375	0.1
540.721	0.09
541.066	0.1
541.411	0.1
541.756	0.09
542.101	0.1
542.446	0.09
542.791	0.1
543.136	0.1
543.481	0.1
543.825	0.1
544.17	0.1
544.515	0.1
544.86	0.1
545.204	0.1
545.549	0.1
545.893	0.1
546.238	0.11
546.582	0.1
546.927	0.11
547.271	0.11
547.615	0.11
547.96	0.11
548.304	0.11
548.648	0.11
548.992	0.11
549.336	0.11
549.68	0.11
550.024	0.11
550.368	0.12
550.712	0.11
551.056	0.12
551.4	0.11
551.743	0.12
552.087	0.11
552.431	0.12
552.774	0.12
553.118	0.12
553.462	0.12
553.805	0.12
554.148	0.12
554.492	0.12
554.835	0.12
555.178	0.12
555.522	0.12
555.865	0.13
556.208	0.13
556.551	0.13
556.894	0.12
557.237	0.12
557.58	0.13
557.923	0.12
558.266	0.13
558.609	0.12
558.952	0.12
559.294	0.12
559.637	0.13
559.98	0.13
560.322	0.13
560.665	0.13
561.007	0.13
561.35	0.12
561.692	0.13
562.034	0.13
562.377	0.13
562.719	0.13
563.061	0.13
563.403	0.13
563.745	0.13
564.088	0.13
564.43	0.13
564.772	0.13
565.113	0.13
565.455	0.13
565.797	0.13
566.139	0.13
566.481	0.14
566.822	0.13
567.164	0.13
567.506	0.13
567.847	0.14
568.189	0.14
568.53	0.13
568.872	0.13
569.213	0.13
569.554	0.14
569.895	0.13
570.237	0.14
570.578	0.13
570.919	0.13
571.26	0.13
571.601	0.13
571.942	0.13
572.283	0.13
572.624	0.13
572.965	0.13
573.306	0.13
573.646	0.13
573.987	0.13
574.328	0.13
574.668	0.13
575.009	0.13
575.349	0.13
575.69	0.13
576.03	0.13
576.37	0.13
576.711	0.12
577.051	0.13
577.391	0.13
577.731	0.13
578.072	0.13
578.412	0.13
578.752	0.13
579.092	0.13
579.431	0.12
579.771	0.1
580.111	0.08
580.451	0.08
580.791	0.11
581.13	0.13
581.47	0.13
581.81	0.13
582.149	0.13
582.489	0.13
582.828	0.12
583.167	0.1
583.507	0.06
583.846	0.05
584.185	0.06
584.525	0.08
584.864	0.11
585.203	0.13
585.542	0.13
585.881	0.14
586.22	0.14
586.559	0.13
586.898	0.12
587.236	0.11
587.575	0.1
587.914	0.11
588.252	0.12
588.591	0.13
588.93	0.14
589.268	0.13
589.607	0.14
589.945	0.14
590.283	0.13
590.622	0.14
590.96	0.14
591.298	0.14
591.636	0.14
591.974	0.15
592.313	0.15
592.651	0.15
592.989	0.15
593.326	0.15
593.664	0.15
594.002	0.15
594.34	0.15
594.678	0.15
595.015	0.14
595.353	0.13
595.691	0.14
596.028	0.15
596.366	0.15
596.703	0.15
597.04	0.15
597.378	0.16
597.715	0.16
598.052	0.16
598.389	0.16
598.726	0.16
599.064	0.16
599.401	0.16
599.738	0.16
600.074	0.16
600.411	0.16
600.748	0.16
601.085	0.15
601.422	0.15
601.758	0.15
602.095	0.15
602.432	0.15
602.768	0.15
603.105	0.16
603.441	0.16
603.777	0.16
604.114	0.16
604.45	0.16
604.786	0.17
605.122	0.16
605.459	0.16
605.795	0.16
606.131	0.16
606.467	0.16
606.803	0.16
607.139	0.16
607.474	0.16
607.81	0.16
608.146	0.16
608.482	0.16
608.817	0.16
609.153	0.16
609.488	0.15
609.824	0.16
610.159	0.16
610.495	0.16
610.83	0.16
611.165	0.16
611.5	0.16
611.836	0.16
612.171	0.16
612.506	0.16
612.841	0.16
613.176	0.16
613.511	0.16
613.845	0.16
614.18	0.16
614.515	0.16
614.85	0.16
615.184	0.16
615.519	0.16
615.854	0.16
616.188	0.16
616.523	0.15
616.857	0.15
617.191	0.15
617.526	0.15
617.86	0.15
618.194	0.15
618.528	0.16
618.862	0.16
619.196	0.15
619.53	0.15
619.864	0.15
620.198	0.15
620.532	0.15
620.866	0.15
621.2	0.16
621.533	0.15
621.867	0.15
622.201	0.16
622.534	0.15
622.868	0.15
623.201	0.15
623.534	0.15
623.868	0.15
624.201	0.15
624.534	0.15
624.868	0.15
625.201	0.15
625.534	0.15
625.867	0.15
626.2	0.15
626.533	0.14
626.865	0.14
627.198	0.14
627.531	0.14
627.864	0.14
628.196	0.14
628.529	0.14
628.862	0.14
629.194	0.14
629.527	0.13
629.859	0.14
630.191	0.14
630.524	0.13
630.856	0.14
631.188	0.13
631.52	0.13
631.852	0.13
632.184	0.13
632.516	0.13
632.848	0.13
633.18	0.13
633.512	0.13
633.844	0.13
634.175	0.13
634.507	0.13
634.839	0.13
635.17	0.12
635.502	0.12
635.833	0.12
636.165	0.12
636.496	0.11
636.827	0.12
637.159	0.12
637.49	0.12
637.821	0.11
638.152	0.11
638.483	0.11
638.814	0.11
639.145	0.11
639.476	0.11
639.807	0.11
640.137	0.11
640.468	0.11
640.799	0.11
641.129	0.1
641.46	0.1
641.791	0.1
642.121	0.1
642.451	0.1
642.782	0.1
643.112	0.1
643.442	0.1
643.773	0.1
644.103	0.1
644.433	0.1
644.763	0.1
645.093	0.1
645.423	0.1
645.753	0.1
646.082	0.09
646.412	0.09
646.742	0.09
647.072	0.09
647.401	0.09
647.731	0.09
648.06	0.09
648.39	0.09
648.719	0.09
649.048	0.09
649.378	0.09
649.707	0.09
650.036	0.09
650.365	0.08
650.694	0.08
651.023	0.09
651.352	0.09
651.681	0.09
652.01	0.09
652.339	0.09
652.668	0.09
652.996	0.09
653.325	0.09
653.654	0.09
653.982	0.09
654.311	0.09
654.639	0.09
654.967	0.09
655.296	0.09
655.624	0.09
655.952	0.09
656.28	0.09
656.609	0.08
656.937	0.09
657.265	0.09
657.593	0.04
657.92	0
658.248	0
658.576	0
658.904	0
659.231	0.01
659.559	0.06
659.887	0.09
660.214	0.09
660.542	0.09
660.869	0.09
661.196	0.09
661.524	0.09
661.851	0.09
662.178	0.09
662.505	0.09
662.832	0.09
663.159	0.09
663.486	0.09
663.813	0.09
664.14	0.09
664.467	0.09
664.794	0.09
665.12	0.09
665.447	0.09
665.774	0.09
666.1	0.08
666.427	0.08
666.753	0.08
667.079	0.08
667.406	0.08
667.732	0.08
668.058	0.08
668.384	0.08
668.71	0.08
669.036	0.08
669.362	0.08
669.688	0.08
670.014	0.08
670.34	0.08
670.666	0.08
670.991	0.08
671.317	0.08
671.643	0.08
671.968	0.09
672.294	0.08
672.619	0.08
672.945	0.09
673.27	0.08
673.595	0.08
673.92	0.08
674.246	0.08
674.571	0.08
674.896	0.08
675.221	0.08
675.546	0.08
675.87	0.08
676.195	0.08
676.52	0.08
676.845	0.08
677.169	0.08
677.494	0.07
677.819	0.07
678.143	0.07
678.468	0.07
678.792	0.07
679.116	0.07
679.44	0.07
679.765	0.07
680.089	0.07
680.413	0.07
680.737	0.06
681.061	0.06
681.385	0.06
681.709	0.06
682.033	0.06
682.356	0.06
682.68	0.06
683.004	0.07
683.327	0.06
683.651	0.06
683.974	0.06
684.298	0.06
684.621	0.06
684.944	0.06
685.268	0.06
685.591	0.06
685.914	0.06
686.237	0.05
686.56	0.05
686.883	0.05
687.206	0.05
687.529	0.05
687.852	0.05
688.175	0.05
688.497	0.05
688.82	0.05
689.142	0.05
689.465	0.05
689.787	0.05
690.11	0.05
690.432	0.05
690.755	0.05
691.077	0.05
691.399	0.05
691.721	0.05
692.043	0.04
692.365	0.04
692.687	0.04
693.009	0.04
693.331	0.04
693.653	0.04
693.974	0.04
694.296	0.03
694.618	0.04
694.939	0.03
695.261	0.03
695.582	0.04
695.904	0.04
696.225	0.04
696.546	0.04
696.868	0.04
697.189	0.04
697.51	0.04
697.831	0.03
698.152	0.04
698.473	0.03
698.794	0.03
699.114	0.03
699.435	0.02
699.756	0.02
700.077	0.02
700.397	0.02
700.718	0.02
701.038	0.03
701.359	0.03
701.679	0.03
701.999	0.03
702.32	0.03
702.64	0.03
702.96	0.03
703.28	0.03
703.6	0.03
703.92	0.03
704.24	0.02
704.56	0.02
704.879	0.02
705.199	0.02
705.519	0.02
705.838	0.02
706.158	0.02
706.478	0.02
706.797	0.02
707.116	0.03
707.436	0.02
707.755	0.02
708.074	0.02
708.393	0.02
708.712	0.02
709.031	0.01
709.35	0.01
709.669	0.01
709.988	0.01
710.307	0.01
710.626	0.01
710.944	0.01
711.263	0.02
711.582	0.02
711.9	0.02
712.219	0.02
712.537	0.02
712.855	0.02
713.174	0.02
713.492	0.02
713.81	0.02
714.128	0.02
714.446	0.02
714.764	0.02
715.082	0.01
715.4	0.01
715.718	0.01
716.035	0.01
716.353	0.02
716.671	0.01
716.988	0.02
717.306	0.01
717.623	0.02
717.941	0.02
718.258	0.02
718.575	0.02
718.893	0.02
719.21	0.02
719.527	0.02
719.844	0.02
720.161	0.02
720.478	0.02
720.795	0.02
721.112	0.02
721.428	0.02
721.745	0.03
722.062	0.03
722.378	0.03
722.695	0.03
723.011	0.03
723.328	0.03
723.644	0.03
723.96	0.03
724.276	0.02
724.593	0.02
724.909	0.03
725.225	0.02
725.541	0.02
725.857	0.03
726.173	0.03
726.488	0.03
726.804	0.03
727.12	0.03
727.435	0.03
727.751	0.03
728.067	0.03
728.382	0.03
728.697	0.02
729.013	0.03
729.328	0.03
729.643	0.03
729.958	0.03
730.273	0.02
730.588	0.02
730.903	0.02
731.218	0.02
731.533	0.02
731.848	0.02
732.163	0.02
732.477	0.02
732.792	0.02
733.107	0.02
733.421	0.02
733.736	0.02
734.05	0.02
734.364	0.02
734.678	0.02
734.993	0.02
735.307	0.02
735.621	0.02
735.935	0.02
736.249	0.02
736.563	0.02
736.877	0.03
737.19	0.03
737.504	0.03
737.818	0.03
738.131	0.03
738.445	0.03
738.758	0.03
739.072	0.03
739.385	0.03
739.698	0.03
740.012	0.02
740.325	0.03
740.638	0.03
740.951	0.03
741.264	0.03
741.577	0.02
741.89	0.03
742.203	0.03
742.515	0.03
742.828	0.02
743.141	0.02
743.453	0.02
743.766	0.02
744.078	0.02
744.391	0.02
744.703	0.02
745.015	0.02
745.327	0.02
745.639	0.02
745.952	0.02
746.264	0.02
746.575	0.02
746.887	0.02
747.199	0.02
747.511	0.02
747.823	0.02
748.134	0.02
748.446	0.02
748.757	0.02
749.069	0.02
749.38	0.02
749.692	0.02
750.003	0.02
750.314	0.02
750.625	0.03
750.936	0.02
751.248	0.02
751.559	0.02
751.869	0.02
752.18	0.02
752.491	0.02
752.802	0.02
753.112	0.02
753.423	0.02
753.734	0.02
754.044	0.02
754.355	0.02
754.665	0.02
754.975	0.02
755.285	0.02
755.596	0.02
755.906	0.01
756.216	0.01
756.526	0.01
756.836	0.01
757.146	0.01
757.455	0.02
757.765	0.02
758.075	0.01
758.385	0.02
758.694	0.02
759.004	0.02
759.313	0.01
759.622	0.02
759.932	0.01
760.241	0.01
760.55	0.01
760.859	0.01
761.168	0.01
761.477	0.01
761.786	0.01
762.095	0.01
762.404	0.01
762.713	0.01
763.021	0.01
763.33	0.01
763.639	0.01
763.947	0.01
764.256	0.01
764.564	0.01
764.872	0.01
765.181	0.01
765.489	0.01
765.797	0.01
766.105	0.01
766.413	0.01
766.721	0
767.029	0
767.337	0
767.644	0
767.952	0
768.26	0.01
768.567	0.01
768.875	0.01
769.182	0.01
769.49	0.01
769.797	0.01
770.104	0.01
770.411	0.01
770.718	0.01
771.026	0.01
771.333	0.01
771.639	0.01
771.946	0.01
772.253	0.01
772.56	0.01
772.867	0.01
773.173	0.01
773.48	0
773.786	0
774.093	0
774.399	0
774.705	0
775.012	0
775.318	0
775.624	-0
775.93	-0
776.236	-0
776.542	0
776.848	0
777.154	0
777.459	0
777.765	0.01
778.071	0.01
778.376	0.01
778.682	0.01
778.987	0.01
779.292	0
779.598	0.01
779.903	0.01
780.208	0.01
780.513	0
780.818	0
781.123	0
781.428	0.01
781.733	0.01
782.038	0.01
782.343	0.01
782.647	0.01
782.952	0.01
783.256	0.01
783.561	0.01
783.865	0.01
784.17	0.01
784.474	0.01
784.778	0.01
785.082	0.01
785.386	0.01
785.69	0
785.994	0.01
786.298	0.01
786.602	0.01
786.906	0
787.209	0.01
787.513	0.01
787.817	0.01
788.12	0.01
788.424	0.01
788.727	0.01
789.03	0.01
789.333	0.01
789.637	0.01
789.94	0.01
790.243	0.01
790.546	0.01
790.849	0.01
791.152	0.01
791.454	0.01
791.757	0.01
792.06	0.01
792.362	0.01
792.665	0.01
792.967	0.01
793.27	0.01
793.572	0.01
793.874	0.01
794.177	0.01
794.479	0.01
794.781	0.01
795.083	0
795.385	0
795.687	0
795.989	0.01
796.29	0.01
796.592	0.01
796.894	0.02
797.195	0.01
797.497	0.01
797.798	0.01
798.1	0.01
798.401	0.01
798.702	0.01
799.003	0.01
799.304	0.02
799.605	0.02
799.906	0.02
800.207	0.02
800.508	0.01
800.809	0.01
801.11	0.01
801.41	0.01
801.711	0.01
802.011	0
802.312	0
802.612	0
802.913	0
803.213	0.01
803.513	0
803.813	0.01
804.113	0.01
804.413	0.01
804.713	0.01
805.013	0.01
805.313	0.01
805.613	0.01
805.912	0.01
806.212	0.01
806.511	0.01
806.811	0.01
807.11	0.01
807.41	0.01
807.709	0.01
808.008	0.01
808.307	0.01
808.606	0.01
808.905	0.01
809.204	0.01
809.503	0.01
809.802	0.01
810.101	0.01
810.399	0.01
810.698	0.01
810.997	0.01
811.295	0.01
811.593	0.02
811.892	0.01
812.19	0.01
812.488	0.01
812.786	0.02
813.084	0.02
813.383	0.01
813.68	0.02
813.978	0.02
814.276	0.02
814.574	0.01
814.872	0.02
815.169	0.01
815.467	0.01
815.764	0.01
816.062	0.01
816.359	0.02
816.656	0.01
816.954	0.02
817.251	0.02
817.548	0.02
817.845	0.02
818.142	0.02
818.439	0.02
818.735	0.02
819.032	0.02
819.329	0.02
819.626	0.02
819.922	0.02
820.219	0.02
820.515	0.02
820.811	0.02
821.108	0.02
821.404	0.01
821.7	0.02
821.996	0.02
822.292	0.02
822.588	0.02
822.884	0.02
823.18	0.02
823.475	0.02
823.771	0.02
824.067	0.02
824.362	0.02
824.658	0.02
824.953	0.03
825.249	0.02
825.544	0.02
825.839	0.02
826.134	0.02
826.429	0.02
826.724	0.03
827.019	0.03
827.314	0.03
827.609	0.02
827.904	0.02
828.198	0.02
828.493	0.02
828.787	0.02
829.082	0.02
829.376	0.01
829.671	0.02
829.965	0.02
830.259	0.02
830.553	0.02
830.847	0.03
831.141	0.03
831.435	0.03
831.729	0.03
832.023	0.03
832.317	0.03
832.61	0.03
832.904	0.04
833.197	0.02
833.491	0.03
833.784	0.03
834.077	0.02
834.371	0.03
834.664	0.02
834.957	0.03
835.25	0.03
835.543	0.03
835.836	0.03
836.129	0.03
836.421	0.03
836.714	0.03
837.007	0.02
837.299	0.02
837.592	0.02
837.884	0.03
838.177	0.03
838.469	0.03
838.761	0.02
839.053	0.03
839.345	0.03
839.637	0.03
839.929	0.03
840.221	0.04
840.513	0.03
840.805	0.04
841.096	0.04
841.388	0.04
841.68	0.03
841.971	0.03
842.262	0.03
842.554	0.03
842.845	0.03
843.136	0.04
843.427	0.03
843.718	0.03
844.009	0.03
844.3	0.03
844.591	0.03
844.882	0.02
845.173	0.02
845.463	0.03
845.754	0.03
846.044	0.03
846.335	0.03
846.625	0.03
846.915	0.03
847.206	0.02
847.496	0.04
847.786	0.03
848.076	0.03
848.366	0.03
848.656	0.03
848.945	0.03
849.235	0.04
849.525	0.03
849.814	0.02
850.104	0.02
850.393	0.02
850.683	0.02
850.972	0.02
851.261	0.03
851.551	0.03
851.84	0.03
852.129	0.03
852.418	0.04
852.707	0.03
852.995	0.03
853.284	0.03
853.573	0.03
853.862	0.03
854.15	0.03
854.439	0.04
854.727	0.03
855.015	0.03
855.304	0.04
855.592	0.03
855.88	0.02
856.168	0.02
856.456	0.04
856.744	0.03
857.032	0.03
857.32	0.04
857.607	0.04
857.895	0.02
858.183	0.04
858.47	0.02
858.757	0.01
859.045	0.04
859.332	0.03
859.619	0.02
859.907	0.03
860.194	0.02
860.481	0.03
860.768	0.04
861.054	0.04
861.341	0.03
861.628	0.03
861.915	0.02
862.201	0.03
862.488	0.02
862.774	0.03
863.061	0.02
863.347	0.02
863.633	0.03
863.919	0.02
864.205	0.03
864.491	0.02
864.777	0.02
865.063	0.01
865.349	0.03
865.635	0.03
865.92	0.03
866.206	0.03
866.492	0.01
866.777	0.03
867.062	0.03
867.348	0.02
867.633	0.03
867.918	-0.02
868.203	0.01
868.488	0.04
868.773	0.02
869.058	0.04
869.343	0.03
869.628	0.01
869.912	0
870.197	0.04
870.482	0.04
870.766	0.01
871.05	-0
871.335	0.01
871.619	0.02
871.903	0.02
872.187	0.04
872.471	0.04
872.755	0
873.039	0
873.323	0.05
873.607	0.01
873.89	-0.02
874.174	0
874.458	-0.01
874.741	-0.01
875.024	0.03
875.308	-0.02
875.591	-0
875.874	-0.01
876.157	0.01
876.44	-0
876.723	0
877.006	-0.04
877.289	-0.02
877.572	0.04
877.854	-0.01
878.137	0.02
878.42	0.03
878.702	0.01
878.984	-0
879.267	-0.03
879.549	0.01
879.831	0.03
880.113	0.04
880.395	0.02
880.677	0.02
880.959	-0.01
