Data from Rubpy_EV_1800_EDTA_Buffered_Absorbance_15-21-17-706.txt Node
Date: Tue Jun 30 15:21:17 BST 2026
User: fpm-admin
Spectrometer: OFX00224
Trigger mode: 0
Integration Time (sec): 7.000000E-2
Scans to average: 3
Nonlinearity correction enabled: false
Boxcar width: 0
Storing dark spectrum: false
XAxis mode: Wavelengths
Number of Pixels in Spectrum: 2136
>>>>>Begin Spectral Data<<<<<
154.91	-0
155.289	-0
155.669	-0
156.048	0.08
156.428	-0.51
156.807	-0.13
157.186	-0
157.566	-0.3
157.945	0.89
158.325	0.12
158.704	-0
159.083	1
159.462	0.12
159.842	-0.51
160.221	0.22
160.6	-0.29
160.979	-0.15
161.359	-0.22
161.738	0.3
162.117	0.21
162.496	-0.08
162.875	0.25
163.254	-0
163.633	-0
164.012	-0.38
164.391	-0.07
164.77	1.08
165.149	-0.13
165.528	-0.33
165.907	-0
166.286	0.02
166.665	-0.66
167.044	-0.9
167.423	-0
167.802	-0
168.181	-0.01
168.559	-0
168.938	-0.27
169.317	-0
169.696	0.32
170.074	-0.34
170.453	0.43
170.832	-0
171.21	0.56
171.589	-0.2
171.968	-0
172.346	-0.67
172.725	-0.11
173.103	-0
173.482	0.07
173.861	0.1
174.239	-0
174.617	0.56
174.996	-0.49
175.374	-0.48
175.753	-0.22
176.131	0.53
176.51	0.49
176.888	-0
177.266	1.55
177.645	-0.14
178.023	0.34
178.401	-0.19
178.779	0.39
179.158	0.39
179.536	0.21
179.914	-0
180.292	-0.1
180.67	0.15
181.048	-0
181.427	0.1
181.805	1.26
182.183	-0
182.561	0.2
182.939	-0
183.317	-0.1
183.695	-0
184.073	0.6
184.451	0.1
184.829	0.05
185.206	-0.81
185.584	-0.01
185.962	-0
186.34	-0
186.718	-0
187.096	0.51
187.473	-0
187.851	-0
188.229	-0.03
188.607	0.07
188.984	0.03
189.362	0.1
189.74	0.02
190.117	0.11
190.495	0.06
190.872	0.1
191.25	0.02
191.627	0
192.005	-0.05
192.382	0.02
192.76	-0
193.137	0.11
193.515	-0.02
193.892	0.27
194.269	0.08
194.647	0.12
195.024	0.02
195.401	0.09
195.779	0
196.156	0.01
196.533	0.06
196.91	0.21
197.288	0.11
197.665	0.15
198.042	0.09
198.419	0.05
198.796	0.07
199.173	0.11
199.55	0.05
199.927	0.11
200.304	0.03
200.681	0.1
201.058	0.06
201.435	0.06
201.812	0.01
202.189	0.07
202.566	0.06
202.943	0.1
203.32	-0
203.697	0.02
204.073	0.15
204.45	0.14
204.827	0.13
205.204	0.01
205.58	0.05
205.957	-0.02
206.334	0.03
206.71	0.07
207.087	0.11
207.464	-0.04
207.84	0.1
208.217	0.07
208.593	0.08
208.97	0
209.346	0.05
209.723	0
210.099	-0
210.476	0.07
210.852	0.04
211.228	0.03
211.605	0.09
211.981	0.05
212.357	0.01
212.733	0.05
213.11	0.06
213.486	0.11
213.862	0.02
214.238	0.14
214.614	-0.01
214.991	0.08
215.367	0.01
215.743	0.07
216.119	0.05
216.495	0.14
216.871	0.12
217.247	0.11
217.623	0.02
217.999	0.14
218.375	0.08
218.751	0.05
219.127	0.15
219.502	0.09
219.878	0.09
220.254	0.09
220.63	0.08
221.006	0.07
221.381	0.08
221.757	0.05
222.133	0.06
222.508	0.1
222.884	0
223.26	0.13
223.635	0.02
224.011	0.08
224.386	0.09
224.762	0.03
225.137	0.06
225.513	0.05
225.888	-0.03
226.264	-0
226.639	0.07
227.014	0.13
227.39	0.1
227.765	0.17
228.14	0.08
228.516	0.06
228.891	0.2
229.266	0.07
229.641	0.14
230.017	0.03
230.392	0.17
230.767	0.12
231.142	0.03
231.517	0.08
231.892	0.12
232.267	0.07
232.642	0.06
233.017	0.07
233.392	0.1
233.767	0.15
234.142	0.02
234.517	0.14
234.892	0.15
235.267	0.14
235.641	0.11
236.016	0.04
236.391	-0.01
236.766	0.14
237.14	0
237.515	0.04
237.89	0.03
238.264	0.05
238.639	0.01
239.014	0.07
239.388	0.02
239.763	0.06
240.137	0.07
240.512	0.07
240.886	0.1
241.261	0.05
241.635	0.07
242.009	-0.02
242.384	0.21
242.758	0.16
243.132	0.13
243.507	0
243.881	0
244.255	0.09
244.629	0.05
245.004	-0.05
245.378	0
245.752	0.08
246.126	0.09
246.5	0.05
246.874	0.09
247.248	0.05
247.622	0.01
247.996	0.12
248.37	0.06
248.744	0.06
249.118	0.06
249.492	-0.01
249.866	0.03
250.24	0.06
250.613	0.03
250.987	0.07
251.361	0.13
251.735	0.07
252.108	0.09
252.482	0.07
252.856	0.1
253.229	-0.02
253.603	0.04
253.977	0.1
254.35	0.05
254.724	-0.02
255.097	0.1
255.471	0.06
255.844	-0
256.218	0.09
256.591	0.05
256.964	0.09
257.338	0.06
257.711	0.06
258.084	0.05
258.458	0.07
258.831	0.13
259.204	0.05
259.577	0.02
259.95	0.11
260.323	0.06
260.697	0.13
261.07	0.06
261.443	0.1
261.816	0.04
262.189	0.09
262.562	0.07
262.935	0.03
263.308	0.04
263.68	0.14
264.053	0.04
264.426	0.09
264.799	0.1
265.172	0.09
265.545	0.07
265.917	0.12
266.29	0.09
266.663	0.09
267.035	0.09
267.408	0.08
267.781	0.02
268.153	0.1
268.526	0.13
268.898	0.11
269.271	0.12
269.643	0.07
270.016	0.03
270.388	0.04
270.76	0.1
271.133	0.07
271.505	0.07
271.877	0.05
272.25	0.02
272.622	0.07
272.994	0.05
273.366	0.08
273.739	0.08
274.111	0.09
274.483	0.03
274.855	0.11
275.227	0.08
275.599	0.09
275.971	0.04
276.343	0.11
276.715	0.12
277.087	0.07
277.459	0.03
277.831	0.11
278.203	0.13
278.574	0.08
278.946	0.08
279.318	0.08
279.69	0.06
280.061	0.11
280.433	0.06
280.805	0.08
281.176	0.04
281.548	0.13
281.92	0.06
282.291	0.08
282.663	0.07
283.034	0.03
283.406	0.05
283.777	0.1
284.148	0.07
284.52	0.06
284.891	-0
285.262	0.09
285.634	0.07
286.005	0.08
286.376	0.01
286.747	0.07
287.119	0.11
287.49	0.12
287.861	0.08
288.232	0.04
288.603	0.02
288.974	0.13
289.345	0.01
289.716	0.08
290.087	0.06
290.458	0.06
290.829	0.08
291.2	0.12
291.571	0.08
291.941	0.09
292.312	0.06
292.683	0.06
293.054	0.07
293.424	0.08
293.795	0.12
294.166	0.1
294.536	0.08
294.907	0.11
295.277	0.11
295.648	0.08
296.018	0.07
296.389	0.1
296.759	0.08
297.13	0.05
297.5	0.09
297.871	0.06
298.241	0.08
298.611	0.07
298.981	0.06
299.352	0.16
299.722	0.06
300.092	0.05
300.462	0.08
300.832	0.05
301.202	0.09
301.573	0.08
301.943	0.06
302.313	0.02
302.683	0.06
303.053	0.04
303.422	0.05
303.792	0.08
304.162	0.06
304.532	0.08
304.902	0.06
305.272	0.06
305.641	0.06
306.011	0.06
306.381	0.07
306.75	0.07
307.12	0.06
307.49	0.08
307.859	0.08
308.229	0.07
308.598	0.07
308.968	0.07
309.337	0.07
309.707	0.07
310.076	0.07
310.445	0.07
310.815	0.07
311.184	0.07
311.553	0.08
311.923	0.08
312.292	0.08
312.661	0.08
313.03	0.08
313.399	0.08
313.768	0.08
314.137	0.08
314.506	0.08
314.875	0.08
315.244	0.07
315.613	0.07
315.982	0.08
316.351	0.08
316.72	0.08
317.089	0.08
317.458	0.07
317.826	0.07
318.195	0.08
318.564	0.07
318.933	0.07
319.301	0.07
319.67	0.07
320.038	0.07
320.407	0.07
320.775	0.07
321.144	0.07
321.512	0.07
321.881	0.07
322.249	0.07
322.618	0.07
322.986	0.06
323.354	0.06
323.723	0.07
324.091	0.06
324.459	0.06
324.827	0.06
325.195	0.06
325.564	0.05
325.932	0.06
326.3	0.06
326.668	0.06
327.036	0.06
327.404	0.05
327.772	0.05
328.14	0.06
328.508	0.06
328.875	0.07
329.243	0.06
329.611	0.06
329.979	0.05
330.346	0.06
330.714	0.05
331.082	0.06
331.449	0.07
331.817	0.06
332.185	0.06
332.552	0.06
332.92	0.06
333.287	0.06
333.655	0.06
334.022	0.06
334.389	0.06
334.757	0.07
335.124	0.07
335.491	0.07
335.859	0.07
336.226	0.07
336.593	0.07
336.96	0.07
337.327	0.07
337.695	0.07
338.062	0.07
338.429	0.07
338.796	0.07
339.163	0.07
339.53	0.07
339.897	0.08
340.263	0.07
340.63	0.08
340.997	0.08
341.364	0.08
341.731	0.08
342.097	0.08
342.464	0.08
342.831	0.09
343.197	0.09
343.564	0.09
343.931	0.09
344.297	0.09
344.664	0.09
345.03	0.1
345.396	0.1
345.763	0.1
346.129	0.1
346.496	0.1
346.862	0.1
347.228	0.11
347.594	0.11
347.961	0.11
348.327	0.11
348.693	0.11
349.059	0.11
349.425	0.12
349.791	0.11
350.157	0.12
350.523	0.12
350.889	0.12
351.255	0.12
351.621	0.13
351.987	0.13
352.353	0.13
352.719	0.13
353.084	0.14
353.45	0.14
353.816	0.15
354.181	0.15
354.547	0.15
354.913	0.15
355.278	0.16
355.644	0.16
356.009	0.16
356.375	0.17
356.74	0.17
357.106	0.18
357.471	0.17
357.836	0.18
358.202	0.18
358.567	0.19
358.932	0.19
359.297	0.2
359.663	0.2
360.028	0.21
360.393	0.21
360.758	0.21
361.123	0.21
361.488	0.22
361.853	0.21
362.218	0.22
362.583	0.22
362.948	0.23
363.312	0.23
363.677	0.23
364.042	0.23
364.407	0.24
364.772	0.24
365.136	0.25
365.501	0.25
365.865	0.26
366.23	0.27
366.595	0.28
366.959	0.28
367.324	0.28
367.688	0.29
368.052	0.3
368.417	0.3
368.781	0.31
369.145	0.31
369.51	0.31
369.874	0.31
370.238	0.32
370.602	0.31
370.967	0.32
371.331	0.31
371.695	0.31
372.059	0.31
372.423	0.31
372.787	0.31
373.151	0.31
373.515	0.31
373.878	0.3
374.242	0.31
374.606	0.3
374.97	0.31
375.334	0.31
375.697	0.31
376.061	0.31
376.425	0.31
376.788	0.32
377.152	0.32
377.515	0.32
377.879	0.32
378.242	0.33
378.606	0.33
378.969	0.33
379.333	0.34
379.696	0.35
380.059	0.35
380.422	0.36
380.786	0.36
381.149	0.37
381.512	0.38
381.875	0.38
382.238	0.4
382.601	0.41
382.964	0.42
383.327	0.42
383.69	0.44
384.053	0.45
384.416	0.46
384.779	0.48
385.142	0.49
385.504	0.49
385.867	0.5
386.23	0.5
386.593	0.51
386.955	0.51
387.318	0.51
387.68	0.51
388.043	0.51
388.405	0.51
388.768	0.5
389.13	0.5
389.493	0.49
389.855	0.49
390.217	0.48
390.58	0.49
390.942	0.49
391.304	0.49
391.666	0.5
392.028	0.51
392.391	0.52
392.753	0.53
393.115	0.55
393.477	0.57
393.839	0.59
394.201	0.62
394.563	0.64
394.924	0.67
395.286	0.68
395.648	0.72
396.01	0.74
396.371	0.76
396.733	0.78
397.095	0.8
397.456	0.8
397.818	0.8
398.18	0.79
398.541	0.78
398.903	0.76
399.264	0.75
399.625	0.72
399.987	0.7
400.348	0.66
400.709	0.63
401.071	0.6
401.432	0.56
401.793	0.52
402.154	0.49
402.515	0.45
402.876	0.42
403.238	0.39
403.599	0.36
403.96	0.34
404.32	0.31
404.681	0.29
405.042	0.27
405.403	0.25
405.764	0.24
406.125	0.21
406.485	0.2
406.846	0.19
407.207	0.18
407.567	0.17
407.928	0.16
408.288	0.15
408.649	0.14
409.009	0.13
409.37	0.12
409.73	0.12
410.091	0.11
410.451	0.11
410.811	0.11
411.171	0.1
411.532	0.1
411.892	0.09
412.252	0.09
412.612	0.08
412.972	0.08
413.332	0.08
413.692	0.07
414.052	0.07
414.412	0.07
414.772	0.06
415.132	0.06
415.492	0.06
415.851	0.06
416.211	0.06
416.571	0.06
416.931	0.06
417.29	0.06
417.65	0.06
418.009	0.05
418.369	0.05
418.728	0.05
419.088	0.05
419.447	0.05
419.807	0.05
420.166	0.04
420.525	0.05
420.884	0.04
421.244	0.04
421.603	0.04
421.962	0.05
422.321	0.04
422.68	0.05
423.039	0.05
423.398	0.04
423.757	0.04
424.116	0.04
424.475	0.04
424.834	0.03
425.193	0.04
425.551	0.04
425.91	0.03
426.269	0.03
426.628	0.03
426.986	0.03
427.345	0.04
427.703	0.03
428.062	0.03
428.42	0.03
428.779	0.03
429.137	0.04
429.496	0.03
429.854	0.03
430.212	0.03
430.57	0.03
430.929	0.03
431.287	0.02
431.645	0.03
432.003	0.03
432.361	0.03
432.719	0.03
433.077	0.03
433.435	0.02
433.793	0.03
434.151	0.03
434.509	0.02
434.866	0.03
435.224	0.02
435.582	0.02
435.94	0.03
436.297	0.02
436.655	0.03
437.012	0.03
437.37	0.02
437.727	0.03
438.085	0.02
438.442	0.02
438.8	0.02
439.157	0.02
439.514	0.03
439.872	0.03
440.229	0.03
440.586	0.02
440.943	0.03
441.3	0.02
441.657	0.02
442.014	0.02
442.371	0.03
442.728	0.03
443.085	0.02
443.442	0.02
443.799	0.02
444.156	0.01
444.513	0.02
444.869	0.02
445.226	0.01
445.583	0.02
445.939	0.02
446.296	0.01
446.652	0.01
447.009	0.02
447.365	0.01
447.722	0.01
448.078	0.01
448.434	0.01
448.791	0.01
449.147	0.01
449.503	0.01
449.859	0.01
450.215	0
450.571	0.01
450.928	0.01
451.284	0.01
451.64	0.01
451.995	0.01
452.351	0
452.707	0
453.063	0.01
453.419	-0
453.775	0.01
454.13	-0
454.486	0
454.842	-0.01
455.197	-0
455.553	-0.01
455.908	-0.01
456.264	-0.01
456.619	-0.01
456.975	-0.01
457.33	-0.01
457.685	-0.02
458.04	-0.01
458.396	-0.02
458.751	-0.01
459.106	-0.03
459.461	-0.02
459.816	-0.02
460.171	-0.02
460.526	-0.02
460.881	-0.04
461.236	-0.03
461.591	-0.03
461.946	-0.04
462.301	-0.05
462.655	-0.04
463.01	-0.04
463.365	-0.04
463.719	-0.05
464.074	-0.06
464.428	-0.06
464.783	-0.06
465.137	-0.05
465.492	-0.06
465.846	-0.06
466.201	-0.06
466.555	-0.06
466.909	-0.05
467.263	-0.06
467.618	-0.05
467.972	-0.05
468.326	-0.05
468.68	-0.06
469.034	-0.07
469.388	-0.06
469.742	-0.06
470.096	-0.06
470.45	-0.06
470.804	-0.07
471.157	-0.06
471.511	-0.07
471.865	-0.05
472.218	-0.06
472.572	-0.05
472.926	-0.06
473.279	-0.06
473.633	-0.05
473.986	-0.05
474.34	-0.04
474.693	-0.04
475.046	-0.04
475.4	-0.04
475.753	-0.04
476.106	-0.03
476.459	-0.03
476.812	-0.02
477.165	-0.02
477.519	-0.02
477.872	-0.02
478.224	-0.02
478.577	-0.01
478.93	-0.02
479.283	-0.01
479.636	-0.01
479.989	-0.01
480.341	-0.01
480.694	-0.01
481.047	-0
481.399	-0
481.752	0
482.104	0
482.457	0
482.809	0
483.162	0
483.514	0.01
483.866	0.01
484.219	0.02
484.571	0.01
484.923	0.01
485.275	0.01
485.627	0.02
485.979	0.01
486.331	0.02
486.683	0.01
487.035	0.02
487.387	0.02
487.739	0.02
488.091	0.02
488.443	0.02
488.794	0.02
489.146	0.02
489.498	0.02
489.849	0.02
490.201	0.02
490.552	0.02
490.904	0.02
491.255	0.03
491.607	0.03
491.958	0.03
492.309	0.03
492.661	0.03
493.012	0.03
493.363	0.03
493.714	0.03
494.065	0.03
494.416	0.03
494.767	0.03
495.118	0.04
495.469	0.04
495.82	0.04
496.171	0.04
496.522	0.04
496.872	0.04
497.223	0.04
497.574	0.04
497.924	0.04
498.275	0.04
498.626	0.04
498.976	0.04
499.327	0.04
499.677	0.04
500.027	0.04
500.378	0.04
500.728	0.04
501.078	0.05
501.428	0.04
501.779	0.04
502.129	0.05
502.479	0.05
502.829	0.04
503.179	0.04
503.529	0.05
503.879	0.05
504.229	0.05
504.578	0.05
504.928	0.05
505.278	0.05
505.628	0.06
505.977	0.05
506.327	0.05
506.676	0.06
507.026	0.06
507.375	0.06
507.725	0.06
508.074	0.06
508.424	0.06
508.773	0.06
509.122	0.07
509.471	0.06
509.82	0.06
510.17	0.07
510.519	0.06
510.868	0.07
511.217	0.06
511.566	0.07
511.915	0.06
512.263	0.06
512.612	0.07
512.961	0.07
513.31	0.07
513.659	0.07
514.007	0.07
514.356	0.07
514.704	0.07
515.053	0.07
515.401	0.08
515.75	0.08
516.098	0.08
516.447	0.07
516.795	0.08
517.143	0.08
517.491	0.08
517.839	0.08
518.188	0.08
518.536	0.08
518.884	0.08
519.232	0.08
519.58	0.08
519.928	0.08
520.275	0.08
520.623	0.09
520.971	0.09
521.319	0.09
521.666	0.09
522.014	0.09
522.362	0.09
522.709	0.09
523.057	0.09
523.404	0.09
523.752	0.09
524.099	0.09
524.446	0.09
524.794	0.09
525.141	0.09
525.488	0.09
525.835	0.09
526.182	0.09
526.529	0.1
526.876	0.1
527.223	0.1
527.57	0.1
527.917	0.1
528.264	0.1
528.611	0.1
528.958	0.1
529.304	0.11
529.651	0.11
529.998	0.11
530.344	0.11
530.691	0.11
531.037	0.11
531.384	0.11
531.73	0.11
532.076	0.11
532.423	0.11
532.769	0.12
533.115	0.11
533.461	0.11
533.807	0.11
534.154	0.11
534.5	0.11
534.846	0.12
535.192	0.12
535.537	0.12
535.883	0.12
536.229	0.12
536.575	0.12
536.921	0.12
537.266	0.12
537.612	0.12
537.957	0.12
538.303	0.13
538.649	0.13
538.994	0.13
539.339	0.13
539.685	0.13
540.03	0.13
540.375	0.13
540.721	0.14
541.066	0.14
541.411	0.14
541.756	0.14
542.101	0.14
542.446	0.14
542.791	0.14
543.136	0.14
543.481	0.14
543.825	0.14
544.17	0.15
544.515	0.14
544.86	0.14
545.204	0.15
545.549	0.15
545.893	0.15
546.238	0.15
546.582	0.15
546.927	0.15
547.271	0.15
547.615	0.16
547.96	0.15
548.304	0.15
548.648	0.16
548.992	0.16
549.336	0.16
549.68	0.15
550.024	0.16
550.368	0.16
550.712	0.16
551.056	0.16
551.4	0.16
551.743	0.16
552.087	0.16
552.431	0.17
552.774	0.17
553.118	0.17
553.462	0.17
553.805	0.17
554.148	0.17
554.492	0.17
554.835	0.17
555.178	0.17
555.522	0.17
555.865	0.17
556.208	0.17
556.551	0.18
556.894	0.17
557.237	0.17
557.58	0.18
557.923	0.17
558.266	0.18
558.609	0.17
558.952	0.17
559.294	0.18
559.637	0.18
559.98	0.18
560.322	0.18
560.665	0.18
561.007	0.18
561.35	0.18
561.692	0.18
562.034	0.18
562.377	0.18
562.719	0.18
563.061	0.18
563.403	0.18
563.745	0.18
564.088	0.18
564.43	0.19
564.772	0.18
565.113	0.18
565.455	0.19
565.797	0.19
566.139	0.19
566.481	0.19
566.822	0.19
567.164	0.19
567.506	0.19
567.847	0.19
568.189	0.19
568.53	0.19
568.872	0.19
569.213	0.19
569.554	0.19
569.895	0.19
570.237	0.19
570.578	0.19
570.919	0.19
571.26	0.19
571.601	0.19
571.942	0.19
572.283	0.19
572.624	0.19
572.965	0.18
573.306	0.19
573.646	0.18
573.987	0.19
574.328	0.19
574.668	0.19
575.009	0.19
575.349	0.19
575.69	0.18
576.03	0.18
576.37	0.18
576.711	0.18
577.051	0.18
577.391	0.18
577.731	0.19
578.072	0.19
578.412	0.18
578.752	0.18
579.092	0.18
579.431	0.17
579.771	0.15
580.111	0.14
580.451	0.14
580.791	0.17
581.13	0.18
581.47	0.18
581.81	0.18
582.149	0.18
582.489	0.19
582.828	0.18
583.167	0.15
583.507	0.12
583.846	0.1
584.185	0.11
584.525	0.13
584.864	0.16
585.203	0.18
585.542	0.19
585.881	0.19
586.22	0.2
586.559	0.19
586.898	0.18
587.236	0.17
587.575	0.16
587.914	0.16
588.252	0.18
588.591	0.19
588.93	0.2
589.268	0.19
589.607	0.19
589.945	0.2
590.283	0.19
590.622	0.2
590.96	0.2
591.298	0.2
591.636	0.2
591.974	0.21
592.313	0.21
592.651	0.22
592.989	0.22
593.326	0.22
593.664	0.22
594.002	0.22
594.34	0.21
594.678	0.21
595.015	0.21
595.353	0.19
595.691	0.2
596.028	0.21
596.366	0.21
596.703	0.22
597.04	0.22
597.378	0.22
597.715	0.23
598.052	0.23
598.389	0.23
598.726	0.23
599.064	0.23
599.401	0.23
599.738	0.23
600.074	0.23
600.411	0.23
600.748	0.23
601.085	0.22
601.422	0.22
601.758	0.21
602.095	0.22
602.432	0.22
602.768	0.22
603.105	0.23
603.441	0.23
603.777	0.23
604.114	0.23
604.45	0.23
604.786	0.23
605.122	0.23
605.459	0.23
605.795	0.23
606.131	0.23
606.467	0.23
606.803	0.23
607.139	0.23
607.474	0.23
607.81	0.23
608.146	0.23
608.482	0.23
608.817	0.23
609.153	0.22
609.488	0.22
609.824	0.22
610.159	0.23
610.495	0.22
610.83	0.22
611.165	0.23
611.5	0.23
611.836	0.23
612.171	0.23
612.506	0.23
612.841	0.23
613.176	0.23
613.511	0.23
613.845	0.23
614.18	0.22
614.515	0.23
614.85	0.23
615.184	0.22
615.519	0.23
615.854	0.22
616.188	0.22
616.523	0.22
616.857	0.22
617.191	0.22
617.526	0.22
617.86	0.22
618.194	0.22
618.528	0.22
618.862	0.22
619.196	0.22
619.53	0.22
619.864	0.22
620.198	0.21
620.532	0.21
620.866	0.22
621.2	0.22
621.533	0.22
621.867	0.22
622.201	0.22
622.534	0.21
622.868	0.21
623.201	0.21
623.534	0.21
623.868	0.21
624.201	0.21
624.534	0.21
624.868	0.21
625.201	0.21
625.534	0.21
625.867	0.2
626.2	0.21
626.533	0.2
626.865	0.2
627.198	0.2
627.531	0.2
627.864	0.2
628.196	0.2
628.529	0.2
628.862	0.2
629.194	0.19
629.527	0.19
629.859	0.19
630.191	0.19
630.524	0.19
630.856	0.19
631.188	0.19
631.52	0.19
631.852	0.18
632.184	0.19
632.516	0.18
632.848	0.18
633.18	0.18
633.512	0.18
633.844	0.18
634.175	0.18
634.507	0.18
634.839	0.17
635.17	0.17
635.502	0.17
635.833	0.17
636.165	0.17
636.496	0.17
636.827	0.16
637.159	0.16
637.49	0.16
637.821	0.16
638.152	0.16
638.483	0.16
638.814	0.16
639.145	0.16
639.476	0.15
639.807	0.15
640.137	0.15
640.468	0.15
640.799	0.15
641.129	0.15
641.46	0.14
641.791	0.15
642.121	0.15
642.451	0.15
642.782	0.15
643.112	0.14
643.442	0.14
643.773	0.14
644.103	0.14
644.433	0.14
644.763	0.14
645.093	0.14
645.423	0.14
645.753	0.13
646.082	0.13
646.412	0.13
646.742	0.13
647.072	0.13
647.401	0.13
647.731	0.13
648.06	0.13
648.39	0.13
648.719	0.13
649.048	0.13
649.378	0.13
649.707	0.13
650.036	0.13
650.365	0.13
650.694	0.12
651.023	0.12
651.352	0.12
651.681	0.12
652.01	0.12
652.339	0.12
652.668	0.12
652.996	0.12
653.325	0.12
653.654	0.12
653.982	0.12
654.311	0.12
654.639	0.13
654.967	0.13
655.296	0.12
655.624	0.13
655.952	0.13
656.28	0.12
656.609	0.12
656.937	0.12
657.265	0.12
657.593	0.07
657.92	0
658.248	0
658.576	0
658.904	0
659.231	0.03
659.559	0.09
659.887	0.12
660.214	0.13
660.542	0.13
660.869	0.13
661.196	0.13
661.524	0.13
661.851	0.13
662.178	0.13
662.505	0.13
662.832	0.13
663.159	0.13
663.486	0.12
663.813	0.13
664.14	0.12
664.467	0.12
664.794	0.12
665.12	0.12
665.447	0.12
665.774	0.12
666.1	0.12
666.427	0.12
666.753	0.12
667.079	0.11
667.406	0.11
667.732	0.11
668.058	0.12
668.384	0.11
668.71	0.12
669.036	0.12
669.362	0.12
669.688	0.12
670.014	0.12
670.34	0.12
670.666	0.12
670.991	0.11
671.317	0.12
671.643	0.12
671.968	0.12
672.294	0.12
672.619	0.12
672.945	0.12
673.27	0.11
673.595	0.11
673.92	0.11
674.246	0.11
674.571	0.11
674.896	0.11
675.221	0.11
675.546	0.11
675.87	0.11
676.195	0.11
676.52	0.11
676.845	0.11
677.169	0.11
677.494	0.1
677.819	0.1
678.143	0.1
678.468	0.1
678.792	0.1
679.116	0.1
679.44	0.1
679.765	0.1
680.089	0.1
680.413	0.09
680.737	0.09
681.061	0.09
681.385	0.09
681.709	0.09
682.033	0.09
682.356	0.09
682.68	0.09
683.004	0.09
683.327	0.09
683.651	0.08
683.974	0.09
684.298	0.08
684.621	0.08
684.944	0.08
685.268	0.08
685.591	0.08
685.914	0.08
686.237	0.07
686.56	0.07
686.883	0.07
687.206	0.07
687.529	0.07
687.852	0.07
688.175	0.07
688.497	0.07
688.82	0.07
689.142	0.07
689.465	0.07
689.787	0.07
690.11	0.07
690.432	0.07
690.755	0.07
691.077	0.07
691.399	0.06
691.721	0.06
692.043	0.06
692.365	0.06
692.687	0.06
693.009	0.06
693.331	0.05
693.653	0.05
693.974	0.05
694.296	0.05
694.618	0.05
694.939	0.05
695.261	0.05
695.582	0.05
695.904	0.05
696.225	0.06
696.546	0.06
696.868	0.05
697.189	0.05
697.51	0.05
697.831	0.05
698.152	0.05
698.473	0.05
698.794	0.04
699.114	0.04
699.435	0.03
699.756	0.03
700.077	0.03
700.397	0.04
700.718	0.04
701.038	0.04
701.359	0.04
701.679	0.04
701.999	0.04
702.32	0.04
702.64	0.04
702.96	0.04
703.28	0.04
703.6	0.04
703.92	0.04
704.24	0.04
704.56	0.03
704.879	0.03
705.199	0.03
705.519	0.03
705.838	0.03
706.158	0.03
706.478	0.03
706.797	0.04
707.116	0.04
707.436	0.03
707.755	0.03
708.074	0.04
708.393	0.03
708.712	0.03
709.031	0.02
709.35	0.01
709.669	0.01
709.988	0.01
710.307	0.02
710.626	0.02
710.944	0.02
711.263	0.03
711.582	0.03
711.9	0.03
712.219	0.03
712.537	0.03
712.855	0.03
713.174	0.03
713.492	0.02
713.81	0.03
714.128	0.03
714.446	0.03
714.764	0.02
715.082	0.02
715.4	0.02
715.718	0.02
716.035	0.02
716.353	0.02
716.671	0.02
716.988	0.02
717.306	0.02
717.623	0.03
717.941	0.03
718.258	0.03
718.575	0.03
718.893	0.03
719.21	0.03
719.527	0.03
719.844	0.03
720.161	0.03
720.478	0.03
720.795	0.03
721.112	0.03
721.428	0.04
721.745	0.04
722.062	0.04
722.378	0.04
722.695	0.04
723.011	0.04
723.328	0.04
723.644	0.04
723.96	0.04
724.276	0.04
724.593	0.04
724.909	0.04
725.225	0.04
725.541	0.04
725.857	0.04
726.173	0.04
726.488	0.04
726.804	0.04
727.12	0.04
727.435	0.04
727.751	0.04
728.067	0.04
728.382	0.04
728.697	0.04
729.013	0.04
729.328	0.04
729.643	0.04
729.958	0.04
730.273	0.04
730.588	0.04
730.903	0.04
731.218	0.03
731.533	0.03
731.848	0.03
732.163	0.04
732.477	0.03
732.792	0.03
733.107	0.03
733.421	0.03
733.736	0.03
734.05	0.03
734.364	0.03
734.678	0.03
734.993	0.03
735.307	0.03
735.621	0.03
735.935	0.04
736.249	0.03
736.563	0.03
736.877	0.04
737.19	0.04
737.504	0.04
737.818	0.04
738.131	0.04
738.445	0.04
738.758	0.04
739.072	0.04
739.385	0.04
739.698	0.04
740.012	0.04
740.325	0.04
740.638	0.04
740.951	0.04
741.264	0.04
741.577	0.04
741.89	0.04
742.203	0.04
742.515	0.04
742.828	0.04
743.141	0.03
743.453	0.03
743.766	0.04
744.078	0.04
744.391	0.04
744.703	0.03
745.015	0.03
745.327	0.03
745.639	0.03
745.952	0.03
746.264	0.04
746.575	0.03
746.887	0.03
747.199	0.03
747.511	0.03
747.823	0.03
748.134	0.03
748.446	0.03
748.757	0.03
749.069	0.03
749.38	0.03
749.692	0.03
750.003	0.04
750.314	0.03
750.625	0.03
750.936	0.03
751.248	0.03
751.559	0.03
751.869	0.02
752.18	0.02
752.491	0.02
752.802	0.03
753.112	0.02
753.423	0.02
753.734	0.03
754.044	0.03
754.355	0.03
754.665	0.03
754.975	0.02
755.285	0.02
755.596	0.02
755.906	0.02
756.216	0.02
756.526	0.02
756.836	0.02
757.146	0.02
757.455	0.02
757.765	0.02
758.075	0.02
758.385	0.02
758.694	0.02
759.004	0.02
759.313	0.02
759.622	0.02
759.932	0.02
760.241	0.02
760.55	0.02
760.859	0.01
761.168	0.01
761.477	0.01
761.786	0.01
762.095	0.01
762.404	0.01
762.713	0.01
763.021	0.01
763.33	0.01
763.639	0.01
763.947	0.01
764.256	0.01
764.564	0.01
764.872	0.01
765.181	0.01
765.489	0.01
765.797	0.01
766.105	0.01
766.413	0.01
766.721	0.01
767.029	0.01
767.337	0.01
767.644	0.01
767.952	0.01
768.26	0.01
768.567	0.01
768.875	0.01
769.182	0.01
769.49	0.01
769.797	0.01
770.104	0.01
770.411	0.01
770.718	0.01
771.026	0.02
771.333	0.01
771.639	0.01
771.946	0.01
772.253	0.01
772.56	0.01
772.867	0.01
773.173	0.01
773.48	0.01
773.786	0.01
774.093	0.01
774.399	0
774.705	0
775.012	0
775.318	0
775.624	0
775.93	0
776.236	-0
776.542	0
776.848	0
777.154	0
777.459	0.01
777.765	0.01
778.071	0.01
778.376	0.01
778.682	0.01
778.987	0.01
779.292	0.01
779.598	0.01
779.903	0.01
780.208	0.01
780.513	0.01
780.818	0.01
781.123	0.01
781.428	0.01
781.733	0.01
782.038	0.01
782.343	0.01
782.647	0.01
782.952	0.01
783.256	0.01
783.561	0.01
783.865	0.01
784.17	0.01
784.474	0.01
784.778	0.01
785.082	0.01
785.386	0.01
785.69	0.01
785.994	0.01
786.298	0.01
786.602	0.01
786.906	0.01
787.209	0.01
787.513	0.01
787.817	0.01
788.12	0.01
788.424	0.01
788.727	0.01
789.03	0.01
789.333	0.01
789.637	0.01
789.94	0.01
790.243	0.01
790.546	0.01
790.849	0.01
791.152	0.01
791.454	0.01
791.757	0.01
792.06	0.01
792.362	0.01
792.665	0.01
792.967	0.01
793.27	0.01
793.572	0.01
793.874	0.01
794.177	0.01
794.479	0.01
794.781	0.01
795.083	0.01
795.385	0.01
795.687	0
795.989	0.01
796.29	0.01
796.592	0.02
796.894	0.02
797.195	0.02
797.497	0.02
797.798	0.02
798.1	0.01
798.401	0.02
798.702	0.02
799.003	0.01
799.304	0.02
799.605	0.02
799.906	0.02
800.207	0.01
800.508	0.01
800.809	0.01
801.11	0.01
801.41	0.01
801.711	0.01
802.011	0.01
802.312	0.01
802.612	0
802.913	0
803.213	0
803.513	0
803.813	0.01
804.113	0.01
804.413	0.01
804.713	0.01
805.013	0.01
805.313	0.01
805.613	0.01
805.912	0.01
806.212	0.02
806.511	0.01
806.811	0.01
807.11	0.01
807.41	0.01
807.709	0.02
808.008	0.01
808.307	0.02
808.606	0.02
808.905	0.01
809.204	0.01
809.503	0.02
809.802	0.01
810.101	0.01
810.399	0.01
810.698	0.01
810.997	0.02
811.295	0.01
811.593	0.02
811.892	0.02
812.19	0.01
812.488	0.02
812.786	0.02
813.084	0.02
813.383	0.02
813.68	0.02
813.978	0.02
814.276	0.03
814.574	0.02
814.872	0.02
815.169	0.02
815.467	0.02
815.764	0.01
816.062	0.02
816.359	0.02
816.656	0.02
816.954	0.02
817.251	0.02
817.548	0.02
817.845	0.02
818.142	0.02
818.439	0.03
818.735	0.03
819.032	0.02
819.329	0.02
819.626	0.02
819.922	0.02
820.219	0.02
820.515	0.02
820.811	0.02
821.108	0.02
821.404	0.02
821.7	0.02
821.996	0.02
822.292	0.02
822.588	0.01
822.884	0.02
823.18	0.02
823.475	0.02
823.771	0.02
824.067	0.02
824.362	0.02
824.658	0.02
824.953	0.03
825.249	0.02
825.544	0.02
825.839	0.02
826.134	0.02
826.429	0.03
826.724	0.03
827.019	0.03
827.314	0.03
827.609	0.02
827.904	0.01
828.198	0.02
828.493	0.02
828.787	0.02
829.082	0.02
829.376	0.02
829.671	0.02
829.965	0.02
830.259	0.03
830.553	0.03
830.847	0.03
831.141	0.03
831.435	0.03
831.729	0.03
832.023	0.03
832.317	0.03
832.61	0.03
832.904	0.03
833.197	0.03
833.491	0.03
833.784	0.03
834.077	0.02
834.371	0.02
834.664	0.02
834.957	0.02
835.25	0.02
835.543	0.03
835.836	0.03
836.129	0.03
836.421	0.03
836.714	0.03
837.007	0.02
837.299	0.03
837.592	0.02
837.884	0.03
838.177	0.03
838.469	0.02
838.761	0.03
839.053	0.02
839.345	0.03
839.637	0.03
839.929	0.04
840.221	0.04
840.513	0.04
840.805	0.04
841.096	0.04
841.388	0.04
841.68	0.04
841.971	0.03
842.262	0.03
842.554	0.04
842.845	0.04
843.136	0.04
843.427	0.03
843.718	0.03
844.009	0.03
844.3	0.04
844.591	0.03
844.882	0.02
845.173	0.02
845.463	0.03
845.754	0.03
846.044	0.03
846.335	0.03
846.625	0.03
846.915	0.03
847.206	0.03
847.496	0.05
847.786	0.03
848.076	0.04
848.366	0.04
848.656	0.04
848.945	0.03
849.235	0.04
849.525	0.03
849.814	0.03
850.104	0.02
850.393	0.02
850.683	0.03
850.972	0.03
851.261	0.02
851.551	0.04
851.84	0.03
852.129	0.03
852.418	0.03
852.707	0.03
852.995	0.03
853.284	0.03
853.573	0.03
853.862	0.03
854.15	0.05
854.439	0.04
854.727	0.04
855.015	0.04
855.304	0.03
855.592	0.02
855.88	0.02
856.168	0.02
856.456	0.03
856.744	0.04
857.032	0.03
857.32	0.05
857.607	0.04
857.895	0.03
858.183	0.04
858.47	0.03
858.757	0.02
859.045	0.03
859.332	0.03
859.619	0.03
859.907	0.03
860.194	0.02
860.481	0.04
860.768	0.03
861.054	0.05
861.341	0.03
861.628	0.03
861.915	0.03
862.201	0.02
862.488	0.02
862.774	0.02
863.061	0.03
863.347	0.02
863.633	0.02
863.919	0.02
864.205	0.03
864.491	0.01
864.777	0.03
865.063	-0
865.349	0.01
865.635	0.03
865.92	0.04
866.206	0
866.492	0.01
866.777	0.03
867.062	0.03
867.348	0.03
867.633	0.02
867.918	-0
868.203	0.04
868.488	0.01
868.773	0.02
869.058	0.02
869.343	-0.01
869.628	0.01
869.912	-0
870.197	0.02
870.482	0.01
870.766	-0.01
871.05	0.01
871.335	0.02
871.619	0.03
871.903	-0.03
872.187	0.04
872.471	-0
872.755	-0.02
873.039	0.01
873.323	0.05
873.607	0.01
873.89	0.02
874.174	-0.04
874.458	-0.01
874.741	-0.03
875.024	0
875.308	0.02
875.591	-0.02
875.874	-0.01
876.157	0.03
876.44	0
876.723	-0
877.006	-0
877.289	-0.01
877.572	0.01
877.854	0.01
878.137	-0.02
878.42	-0.03
878.702	-0.02
878.984	0.08
879.267	-0.03
879.549	-0
879.831	0.03
880.113	0.1
880.395	0.02
880.677	-0.04
880.959	0.01
