Data from Rubpy_EV_1800_EDTA_Buffered_Absorbance_15-35-22-627.txt Node
Date: Tue Jun 30 15:35:22 BST 2026
User: fpm-admin
Spectrometer: OFX00224
Trigger mode: 0
Integration Time (sec): 7.000000E-2
Scans to average: 3
Nonlinearity correction enabled: false
Boxcar width: 0
Storing dark spectrum: false
XAxis mode: Wavelengths
Number of Pixels in Spectrum: 2136
>>>>>Begin Spectral Data<<<<<
154.91	0.14
155.289	-0.43
155.669	-0
156.048	-0
156.428	0.41
156.807	0.54
157.186	-0
157.566	-0
157.945	0.38
158.325	-0
158.704	-0
159.083	-0
159.462	0.21
159.842	1
160.221	0.32
160.6	-0.11
160.979	-0.08
161.359	-0.1
161.738	-0
162.117	-0
162.496	-0
162.875	0.25
163.254	-0
163.633	-0
164.012	-0.16
164.391	0.11
164.77	-0.18
165.149	-0.01
165.528	-0
165.907	-0
166.286	0.53
166.665	-0.36
167.044	-0.94
167.423	0.9
167.802	-0
168.181	0.19
168.559	-0
168.938	-0.48
169.317	-0.22
169.696	-0.19
170.074	-0.66
170.453	0.3
170.832	0.18
171.21	1.04
171.589	-0
171.968	-0
172.346	-0
172.725	-0.15
173.103	0.5
173.482	0.1
173.861	1.02
174.239	-0
174.617	0.29
174.996	-0
175.374	-0.05
175.753	-0
176.131	0.34
176.51	0.06
176.888	-0
177.266	-0
177.645	-0.26
178.023	-0
178.401	-0.23
178.779	-0.07
179.158	0.36
179.536	-0.25
179.914	-0
180.292	-0.34
180.67	-0.06
181.048	-0.87
181.427	0.12
181.805	0.18
182.183	0.7
182.561	1.2
182.939	-0.53
183.317	-0
183.695	-0.22
184.073	1.12
184.451	-0.17
184.829	-0.29
185.206	-0
185.584	-0.03
185.962	-0
186.34	0.73
186.718	-1.28
187.096	0.57
187.473	-0
187.851	-0
188.229	-0
188.607	0.17
188.984	0.23
189.362	0.23
189.74	0.27
190.117	0.17
190.495	0.33
190.872	0.1
191.25	0.22
191.627	0.1
192.005	0.2
192.382	0.23
192.76	0.19
193.137	0.15
193.515	0.07
193.892	0.17
194.269	0.2
194.647	0.2
195.024	0.22
195.401	0.22
195.779	0.1
196.156	0.11
196.533	0.17
196.91	0.2
197.288	0.21
197.665	0.29
198.042	0.28
198.419	0.19
198.796	0.24
199.173	0.28
199.55	0.11
199.927	0.19
200.304	0.24
200.681	0.26
201.058	0.21
201.435	0.27
201.812	0.4
202.189	0.17
202.566	0.15
202.943	0.17
203.32	0.19
203.697	0.13
204.073	0.24
204.45	0.15
204.827	0.24
205.204	0.1
205.58	0.13
205.957	0.11
206.334	0.07
206.71	0.17
207.087	0.26
207.464	0.05
207.84	0.24
208.217	0.23
208.593	0.13
208.97	0.1
209.346	0.15
209.723	0.1
210.099	0.15
210.476	0.21
210.852	0.23
211.228	0.17
211.605	0.18
211.981	0.18
212.357	0.07
212.733	0.16
213.11	0.2
213.486	0.17
213.862	0.18
214.238	0.18
214.614	0.12
214.991	0.14
215.367	0.12
215.743	0.14
216.119	0.14
216.495	0.16
216.871	0.14
217.247	0.19
217.623	0.1
217.999	0.26
218.375	0.11
218.751	0.1
219.127	0.27
219.502	0.12
219.878	0.11
220.254	0.21
220.63	0.18
221.006	0.11
221.381	0.29
221.757	0.26
222.133	0.27
222.508	0.2
222.884	0.19
223.26	0.18
223.635	0.18
224.011	0.24
224.386	0.19
224.762	0.2
225.137	0.19
225.513	0.19
225.888	0.12
226.264	0.14
226.639	0.2
227.014	0.17
227.39	0.27
227.765	0.3
228.14	0.09
228.516	0.18
228.891	0.33
229.266	0.2
229.641	0.27
230.017	0.28
230.392	0.29
230.767	0.25
231.142	0.11
231.517	0.23
231.892	0.22
232.267	0.2
232.642	0.21
233.017	0.21
233.392	0.2
233.767	0.3
234.142	0.16
234.517	0.21
234.892	0.24
235.267	0.18
235.641	0.15
236.016	0.23
236.391	0.19
236.766	0.15
237.14	0.1
237.515	0.19
237.89	0.29
238.264	0.32
238.639	0.22
239.014	0.21
239.388	0.18
239.763	0.16
240.137	0.21
240.512	0.21
240.886	0.25
241.261	0.17
241.635	0.25
242.009	0.2
242.384	0.2
242.758	0.29
243.132	0.22
243.507	0.15
243.881	0.23
244.255	0.16
244.629	0.2
245.004	0.16
245.378	0.15
245.752	0.27
246.126	0.2
246.5	0.18
246.874	0.23
247.248	0.17
247.622	0.22
247.996	0.25
248.37	0.18
248.744	0.23
249.118	0.18
249.492	0.18
249.866	0.2
250.24	0.24
250.613	0.14
250.987	0.2
251.361	0.15
251.735	0.21
252.108	0.16
252.482	0.21
252.856	0.15
253.229	0.15
253.603	0.14
253.977	0.27
254.35	0.15
254.724	0.1
255.097	0.19
255.471	0.16
255.844	0.14
256.218	0.23
256.591	0.13
256.964	0.25
257.338	0.17
257.711	0.27
258.084	0.13
258.458	0.2
258.831	0.27
259.204	0.14
259.577	0.15
259.95	0.2
260.323	0.2
260.697	0.16
261.07	0.16
261.443	0.36
261.816	0.19
262.189	0.14
262.562	0.23
262.935	0.15
263.308	0.19
263.68	0.16
264.053	0.14
264.426	0.22
264.799	0.22
265.172	0.21
265.545	0.21
265.917	0.22
266.29	0.16
266.663	0.24
267.035	0.24
267.408	0.15
267.781	0.16
268.153	0.17
268.526	0.26
268.898	0.24
269.271	0.27
269.643	0.17
270.016	0.17
270.388	0.22
270.76	0.27
271.133	0.15
271.505	0.23
271.877	0.14
272.25	0.14
272.622	0.15
272.994	0.2
273.366	0.19
273.739	0.19
274.111	0.24
274.483	0.14
274.855	0.27
275.227	0.24
275.599	0.23
275.971	0.18
276.343	0.25
276.715	0.24
277.087	0.21
277.459	0.2
277.831	0.22
278.203	0.23
278.574	0.28
278.946	0.25
279.318	0.18
279.69	0.11
280.061	0.27
280.433	0.23
280.805	0.15
281.176	0.17
281.548	0.24
281.92	0.22
282.291	0.2
282.663	0.21
283.034	0.22
283.406	0.21
283.777	0.2
284.148	0.23
284.52	0.18
284.891	0.18
285.262	0.21
285.634	0.21
286.005	0.23
286.376	0.21
286.747	0.23
287.119	0.23
287.49	0.22
287.861	0.21
288.232	0.22
288.603	0.17
288.974	0.22
289.345	0.18
289.716	0.2
290.087	0.17
290.458	0.18
290.829	0.24
291.2	0.16
291.571	0.15
291.941	0.16
292.312	0.16
292.683	0.22
293.054	0.19
293.424	0.21
293.795	0.23
294.166	0.23
294.536	0.21
294.907	0.25
295.277	0.23
295.648	0.17
296.018	0.17
296.389	0.23
296.759	0.2
297.13	0.15
297.5	0.22
297.871	0.21
298.241	0.23
298.611	0.18
298.981	0.18
299.352	0.21
299.722	0.19
300.092	0.17
300.462	0.22
300.832	0.19
301.202	0.21
301.573	0.15
301.943	0.17
302.313	0.16
302.683	0.17
303.053	0.14
303.422	0.16
303.792	0.18
304.162	0.17
304.532	0.18
304.902	0.16
305.272	0.18
305.641	0.18
306.011	0.17
306.381	0.18
306.75	0.18
307.12	0.17
307.49	0.19
307.859	0.19
308.229	0.18
308.598	0.19
308.968	0.19
309.337	0.19
309.707	0.19
310.076	0.19
310.445	0.2
310.815	0.2
311.184	0.2
311.553	0.2
311.923	0.2
312.292	0.21
312.661	0.21
313.03	0.2
313.399	0.2
313.768	0.21
314.137	0.21
314.506	0.2
314.875	0.2
315.244	0.2
315.613	0.2
315.982	0.21
316.351	0.2
316.72	0.2
317.089	0.2
317.458	0.19
317.826	0.19
318.195	0.2
318.564	0.2
318.933	0.2
319.301	0.19
319.67	0.19
320.038	0.18
320.407	0.19
320.775	0.19
321.144	0.18
321.512	0.18
321.881	0.18
322.249	0.18
322.618	0.18
322.986	0.18
323.354	0.18
323.723	0.18
324.091	0.16
324.459	0.18
324.827	0.17
325.195	0.17
325.564	0.16
325.932	0.16
326.3	0.17
326.668	0.17
327.036	0.17
327.404	0.16
327.772	0.16
328.14	0.17
328.508	0.17
328.875	0.18
329.243	0.17
329.611	0.17
329.979	0.17
330.346	0.17
330.714	0.17
331.082	0.17
331.449	0.18
331.817	0.18
332.185	0.18
332.552	0.18
332.92	0.18
333.287	0.19
333.655	0.18
334.022	0.19
334.389	0.18
334.757	0.19
335.124	0.2
335.491	0.19
335.859	0.2
336.226	0.2
336.593	0.2
336.96	0.2
337.327	0.21
337.695	0.21
338.062	0.21
338.429	0.21
338.796	0.22
339.163	0.22
339.53	0.22
339.897	0.23
340.263	0.23
340.63	0.24
340.997	0.24
341.364	0.24
341.731	0.25
342.097	0.26
342.464	0.25
342.831	0.26
343.197	0.26
343.564	0.27
343.931	0.27
344.297	0.28
344.664	0.28
345.03	0.28
345.396	0.29
345.763	0.29
346.129	0.3
346.496	0.3
346.862	0.31
347.228	0.31
347.594	0.31
347.961	0.32
348.327	0.32
348.693	0.33
349.059	0.33
349.425	0.34
349.791	0.34
350.157	0.34
350.523	0.35
350.889	0.37
351.255	0.37
351.621	0.37
351.987	0.38
352.353	0.39
352.719	0.4
353.084	0.41
353.45	0.41
353.816	0.42
354.181	0.43
354.547	0.44
354.913	0.44
355.278	0.46
355.644	0.46
356.009	0.47
356.375	0.48
356.74	0.49
357.106	0.49
357.471	0.51
357.836	0.53
358.202	0.53
358.567	0.54
358.932	0.55
359.297	0.56
359.663	0.57
360.028	0.58
360.393	0.58
360.758	0.59
361.123	0.6
361.488	0.61
361.853	0.61
362.218	0.61
362.583	0.62
362.948	0.63
363.312	0.65
363.677	0.65
364.042	0.66
364.407	0.66
364.772	0.68
365.136	0.69
365.501	0.7
365.865	0.72
366.23	0.73
366.595	0.75
366.959	0.76
367.324	0.77
367.688	0.78
368.052	0.79
368.417	0.8
368.781	0.81
369.145	0.83
369.51	0.83
369.874	0.83
370.238	0.84
370.602	0.83
370.967	0.83
371.331	0.83
371.695	0.83
372.059	0.83
372.423	0.81
372.787	0.81
373.151	0.8
373.515	0.81
373.878	0.81
374.242	0.8
374.606	0.81
374.97	0.81
375.334	0.81
375.697	0.81
376.061	0.81
376.425	0.81
376.788	0.81
377.152	0.82
377.515	0.83
377.879	0.83
378.242	0.85
378.606	0.84
378.969	0.85
379.333	0.86
379.696	0.88
380.059	0.89
380.422	0.9
380.786	0.91
381.149	0.93
381.512	0.95
381.875	0.96
382.238	0.97
382.601	1.01
382.964	1.03
383.327	1.06
383.69	1.07
384.053	1.11
384.416	1.13
384.779	1.15
385.142	1.18
385.504	1.19
385.867	1.21
386.23	1.22
386.593	1.23
386.955	1.25
387.318	1.25
387.68	1.23
388.043	1.23
388.405	1.22
388.768	1.22
389.13	1.2
389.493	1.19
389.855	1.17
390.217	1.18
390.58	1.18
390.942	1.18
391.304	1.19
391.666	1.2
392.028	1.21
392.391	1.24
392.753	1.27
393.115	1.31
393.477	1.36
393.839	1.39
394.201	1.45
394.563	1.5
394.924	1.55
395.286	1.6
395.648	1.63
396.01	1.66
396.371	1.68
396.733	1.72
397.095	1.74
397.456	1.73
397.818	1.74
398.18	1.71
398.541	1.69
398.903	1.68
399.264	1.65
399.625	1.63
399.987	1.58
400.348	1.52
400.709	1.46
401.071	1.39
401.432	1.31
401.793	1.23
402.154	1.17
402.515	1.08
402.876	1.02
403.238	0.94
403.599	0.89
403.96	0.82
404.32	0.76
404.681	0.71
405.042	0.66
405.403	0.62
405.764	0.58
406.125	0.53
406.485	0.49
406.846	0.47
407.207	0.44
407.567	0.41
407.928	0.38
408.288	0.36
408.649	0.35
409.009	0.32
409.37	0.31
409.73	0.29
410.091	0.28
410.451	0.27
410.811	0.26
411.171	0.24
411.532	0.24
411.892	0.23
412.252	0.21
412.612	0.21
412.972	0.19
413.332	0.19
413.692	0.18
414.052	0.17
414.412	0.17
414.772	0.17
415.132	0.16
415.492	0.16
415.851	0.16
416.211	0.14
416.571	0.14
416.931	0.14
417.29	0.13
417.65	0.13
418.009	0.13
418.369	0.12
418.728	0.13
419.088	0.12
419.447	0.12
419.807	0.11
420.166	0.11
420.525	0.12
420.884	0.11
421.244	0.11
421.603	0.1
421.962	0.11
422.321	0.1
422.68	0.11
423.039	0.1
423.398	0.1
423.757	0.1
424.116	0.1
424.475	0.09
424.834	0.09
425.193	0.09
425.551	0.09
425.91	0.09
426.269	0.08
426.628	0.08
426.986	0.09
427.345	0.09
427.703	0.08
428.062	0.09
428.42	0.08
428.779	0.08
429.137	0.09
429.496	0.08
429.854	0.08
430.212	0.08
430.57	0.08
430.929	0.07
431.287	0.08
431.645	0.07
432.003	0.07
432.361	0.07
432.719	0.07
433.077	0.07
433.435	0.08
433.793	0.08
434.151	0.07
434.509	0.07
434.866	0.07
435.224	0.08
435.582	0.07
435.94	0.07
436.297	0.07
436.655	0.07
437.012	0.06
437.37	0.07
437.727	0.07
438.085	0.06
438.442	0.07
438.8	0.07
439.157	0.07
439.514	0.07
439.872	0.06
440.229	0.06
440.586	0.06
440.943	0.06
441.3	0.06
441.657	0.05
442.014	0.06
442.371	0.06
442.728	0.06
443.085	0.05
443.442	0.05
443.799	0.05
444.156	0.05
444.513	0.05
444.869	0.05
445.226	0.05
445.583	0.06
445.939	0.05
446.296	0.05
446.652	0.05
447.009	0.05
447.365	0.05
447.722	0.05
448.078	0.05
448.434	0.04
448.791	0.04
449.147	0.04
449.503	0.06
449.859	0.05
450.215	0.05
450.571	0.04
450.928	0.05
451.284	0.04
451.64	0.04
451.995	0.04
452.351	0.04
452.707	0.04
453.063	0.04
453.419	0.03
453.775	0.03
454.13	0.03
454.486	0.03
454.842	0.03
455.197	0.03
455.553	0.02
455.908	0.03
456.264	0.02
456.619	0.02
456.975	0.02
457.33	0.02
457.685	0.01
458.04	0.02
458.396	0.02
458.751	0.02
459.106	0.01
459.461	0.01
459.816	0.01
460.171	0.01
460.526	0.01
460.881	-0
461.236	-0.01
461.591	-0
461.946	-0.01
462.301	-0.02
462.655	-0.01
463.01	-0
463.365	-0.01
463.719	-0.02
464.074	-0.02
464.428	-0.02
464.783	-0.03
465.137	-0.02
465.492	-0.03
465.846	-0.02
466.201	-0.03
466.555	-0.03
466.909	-0.02
467.263	-0.03
467.618	-0.02
467.972	-0.02
468.326	-0.02
468.68	-0.02
469.034	-0.03
469.388	-0.02
469.742	-0.03
470.096	-0.02
470.45	-0.03
470.804	-0.03
471.157	-0.03
471.511	-0.03
471.865	-0.02
472.218	-0.02
472.572	-0.02
472.926	-0.02
473.279	-0.02
473.633	-0.01
473.986	-0.01
474.34	-0
474.693	-0
475.046	0
475.4	0.01
475.753	0.01
476.106	0.02
476.459	0.01
476.812	0.03
477.165	0.02
477.519	0.03
477.872	0.03
478.224	0.03
478.577	0.04
478.93	0.04
479.283	0.04
479.636	0.04
479.989	0.04
480.341	0.05
480.694	0.05
481.047	0.05
481.399	0.05
481.752	0.06
482.104	0.06
482.457	0.06
482.809	0.06
483.162	0.06
483.514	0.07
483.866	0.07
484.219	0.07
484.571	0.07
484.923	0.07
485.275	0.08
485.627	0.08
485.979	0.08
486.331	0.09
486.683	0.08
487.035	0.08
487.387	0.09
487.739	0.09
488.091	0.09
488.443	0.09
488.794	0.09
489.146	0.09
489.498	0.09
489.849	0.09
490.201	0.09
490.552	0.1
490.904	0.1
491.255	0.1
491.607	0.1
491.958	0.1
492.309	0.1
492.661	0.11
493.012	0.11
493.363	0.11
493.714	0.11
494.065	0.11
494.416	0.11
494.767	0.12
495.118	0.12
495.469	0.12
495.82	0.12
496.171	0.13
496.522	0.12
496.872	0.12
497.223	0.13
497.574	0.13
497.924	0.13
498.275	0.13
498.626	0.14
498.976	0.14
499.327	0.14
499.677	0.14
500.027	0.14
500.378	0.15
500.728	0.14
501.078	0.15
501.428	0.14
501.779	0.14
502.129	0.15
502.479	0.15
502.829	0.15
503.179	0.15
503.529	0.15
503.879	0.15
504.229	0.16
504.578	0.16
504.928	0.16
505.278	0.16
505.628	0.17
505.977	0.17
506.327	0.17
506.676	0.17
507.026	0.17
507.375	0.18
507.725	0.18
508.074	0.18
508.424	0.18
508.773	0.18
509.122	0.19
509.471	0.19
509.82	0.19
510.17	0.19
510.519	0.19
510.868	0.19
511.217	0.2
511.566	0.19
511.915	0.2
512.263	0.2
512.612	0.2
512.961	0.2
513.31	0.2
513.659	0.21
514.007	0.21
514.356	0.2
514.704	0.21
515.053	0.21
515.401	0.22
515.75	0.22
516.098	0.22
516.447	0.22
516.795	0.22
517.143	0.22
517.491	0.22
517.839	0.23
518.188	0.23
518.536	0.23
518.884	0.23
519.232	0.23
519.58	0.23
519.928	0.23
520.275	0.24
520.623	0.24
520.971	0.25
521.319	0.24
521.666	0.25
522.014	0.24
522.362	0.25
522.709	0.25
523.057	0.25
523.404	0.25
523.752	0.25
524.099	0.26
524.446	0.26
524.794	0.26
525.141	0.26
525.488	0.26
525.835	0.26
526.182	0.27
526.529	0.27
526.876	0.27
527.223	0.27
527.57	0.27
527.917	0.28
528.264	0.28
528.611	0.28
528.958	0.28
529.304	0.29
529.651	0.29
529.998	0.29
530.344	0.29
530.691	0.29
531.037	0.29
531.384	0.3
531.73	0.3
532.076	0.3
532.423	0.3
532.769	0.3
533.115	0.3
533.461	0.31
533.807	0.31
534.154	0.31
534.5	0.31
534.846	0.31
535.192	0.32
535.537	0.32
535.883	0.32
536.229	0.32
536.575	0.33
536.921	0.33
537.266	0.33
537.612	0.33
537.957	0.33
538.303	0.34
538.649	0.34
538.994	0.34
539.339	0.35
539.685	0.35
540.03	0.35
540.375	0.35
540.721	0.36
541.066	0.36
541.411	0.36
541.756	0.36
542.101	0.37
542.446	0.36
542.791	0.37
543.136	0.37
543.481	0.37
543.825	0.37
544.17	0.38
544.515	0.38
544.86	0.39
545.204	0.39
545.549	0.39
545.893	0.39
546.238	0.39
546.582	0.39
546.927	0.4
547.271	0.4
547.615	0.4
547.96	0.41
548.304	0.41
548.648	0.41
548.992	0.41
549.336	0.41
549.68	0.41
550.024	0.42
550.368	0.42
550.712	0.42
551.056	0.42
551.4	0.43
551.743	0.43
552.087	0.43
552.431	0.43
552.774	0.43
553.118	0.44
553.462	0.44
553.805	0.44
554.148	0.44
554.492	0.44
554.835	0.45
555.178	0.45
555.522	0.45
555.865	0.45
556.208	0.45
556.551	0.45
556.894	0.45
557.237	0.46
557.58	0.46
557.923	0.45
558.266	0.46
558.609	0.46
558.952	0.46
559.294	0.46
559.637	0.46
559.98	0.46
560.322	0.47
560.665	0.47
561.007	0.46
561.35	0.46
561.692	0.47
562.034	0.47
562.377	0.47
562.719	0.47
563.061	0.47
563.403	0.47
563.745	0.47
564.088	0.47
564.43	0.48
564.772	0.47
565.113	0.48
565.455	0.48
565.797	0.48
566.139	0.48
566.481	0.49
566.822	0.48
567.164	0.49
567.506	0.49
567.847	0.49
568.189	0.49
568.53	0.49
568.872	0.49
569.213	0.49
569.554	0.49
569.895	0.49
570.237	0.49
570.578	0.49
570.919	0.49
571.26	0.49
571.601	0.49
571.942	0.49
572.283	0.49
572.624	0.49
572.965	0.49
573.306	0.49
573.646	0.49
573.987	0.49
574.328	0.49
574.668	0.49
575.009	0.49
575.349	0.49
575.69	0.49
576.03	0.48
576.37	0.48
576.711	0.48
577.051	0.48
577.391	0.48
577.731	0.49
578.072	0.49
578.412	0.49
578.752	0.49
579.092	0.49
579.431	0.48
579.771	0.46
580.111	0.44
580.451	0.44
580.791	0.46
581.13	0.49
581.47	0.49
581.81	0.49
582.149	0.49
582.489	0.49
582.828	0.49
583.167	0.46
583.507	0.42
583.846	0.4
584.185	0.41
584.525	0.44
584.864	0.47
585.203	0.49
585.542	0.51
585.881	0.51
586.22	0.52
586.559	0.51
586.898	0.49
587.236	0.48
587.575	0.47
587.914	0.48
588.252	0.5
588.591	0.51
588.93	0.52
589.268	0.51
589.607	0.52
589.945	0.52
590.283	0.52
590.622	0.52
590.96	0.53
591.298	0.54
591.636	0.54
591.974	0.54
592.313	0.54
592.651	0.55
592.989	0.55
593.326	0.56
593.664	0.56
594.002	0.56
594.34	0.56
594.678	0.56
595.015	0.55
595.353	0.54
595.691	0.54
596.028	0.56
596.366	0.56
596.703	0.57
597.04	0.57
597.378	0.58
597.715	0.58
598.052	0.58
598.389	0.59
598.726	0.59
599.064	0.59
599.401	0.59
599.738	0.59
600.074	0.59
600.411	0.59
600.748	0.59
601.085	0.59
601.422	0.58
601.758	0.58
602.095	0.58
602.432	0.59
602.768	0.58
603.105	0.59
603.441	0.59
603.777	0.6
604.114	0.6
604.45	0.6
604.786	0.6
605.122	0.6
605.459	0.6
605.795	0.6
606.131	0.59
606.467	0.59
606.803	0.59
607.139	0.6
607.474	0.6
607.81	0.59
608.146	0.59
608.482	0.59
608.817	0.59
609.153	0.58
609.488	0.58
609.824	0.58
610.159	0.58
610.495	0.58
610.83	0.58
611.165	0.58
611.5	0.58
611.836	0.58
612.171	0.57
612.506	0.58
612.841	0.58
613.176	0.58
613.511	0.58
613.845	0.57
614.18	0.57
614.515	0.58
614.85	0.57
615.184	0.57
615.519	0.57
615.854	0.57
616.188	0.56
616.523	0.56
616.857	0.56
617.191	0.56
617.526	0.56
617.86	0.55
618.194	0.55
618.528	0.56
618.862	0.55
619.196	0.55
619.53	0.55
619.864	0.55
620.198	0.54
620.532	0.54
620.866	0.54
621.2	0.54
621.533	0.54
621.867	0.54
622.201	0.54
622.534	0.53
622.868	0.54
623.201	0.53
623.534	0.53
623.868	0.53
624.201	0.52
624.534	0.52
624.868	0.52
625.201	0.52
625.534	0.51
625.867	0.51
626.2	0.51
626.533	0.51
626.865	0.51
627.198	0.5
627.531	0.5
627.864	0.5
628.196	0.5
628.529	0.5
628.862	0.49
629.194	0.49
629.527	0.48
629.859	0.49
630.191	0.48
630.524	0.48
630.856	0.47
631.188	0.47
631.52	0.47
631.852	0.47
632.184	0.47
632.516	0.46
632.848	0.46
633.18	0.46
633.512	0.46
633.844	0.45
634.175	0.44
634.507	0.44
634.839	0.44
635.17	0.44
635.502	0.43
635.833	0.42
636.165	0.42
636.496	0.42
636.827	0.42
637.159	0.41
637.49	0.41
637.821	0.41
638.152	0.41
638.483	0.4
638.814	0.4
639.145	0.39
639.476	0.39
639.807	0.39
640.137	0.38
640.468	0.38
640.799	0.38
641.129	0.37
641.46	0.37
641.791	0.37
642.121	0.37
642.451	0.37
642.782	0.36
643.112	0.36
643.442	0.36
643.773	0.36
644.103	0.35
644.433	0.35
644.763	0.35
645.093	0.35
645.423	0.34
645.753	0.34
646.082	0.34
646.412	0.34
646.742	0.34
647.072	0.33
647.401	0.33
647.731	0.33
648.06	0.33
648.39	0.33
648.719	0.33
649.048	0.33
649.378	0.33
649.707	0.33
650.036	0.32
650.365	0.32
650.694	0.32
651.023	0.32
651.352	0.32
651.681	0.32
652.01	0.32
652.339	0.32
652.668	0.32
652.996	0.32
653.325	0.32
653.654	0.32
653.982	0.31
654.311	0.32
654.639	0.32
654.967	0.32
655.296	0.31
655.624	0.32
655.952	0.32
656.28	0.31
656.609	0.31
656.937	0.31
657.265	0.32
657.593	0.27
657.92	0.12
658.248	0.06
658.576	0.04
658.904	0.11
659.231	0.19
659.559	0.27
659.887	0.3
660.214	0.31
660.542	0.31
660.869	0.31
661.196	0.32
661.524	0.31
661.851	0.31
662.178	0.31
662.505	0.31
662.832	0.31
663.159	0.31
663.486	0.3
663.813	0.31
664.14	0.3
664.467	0.3
664.794	0.3
665.12	0.3
665.447	0.3
665.774	0.3
666.1	0.3
666.427	0.3
666.753	0.29
667.079	0.29
667.406	0.29
667.732	0.29
668.058	0.29
668.384	0.29
668.71	0.29
669.036	0.29
669.362	0.29
669.688	0.29
670.014	0.29
670.34	0.28
670.666	0.28
670.991	0.28
671.317	0.29
671.643	0.28
671.968	0.29
672.294	0.28
672.619	0.28
672.945	0.28
673.27	0.28
673.595	0.28
673.92	0.27
674.246	0.27
674.571	0.27
674.896	0.27
675.221	0.27
675.546	0.27
675.87	0.27
676.195	0.26
676.52	0.26
676.845	0.26
677.169	0.26
677.494	0.25
677.819	0.25
678.143	0.25
678.468	0.24
678.792	0.24
679.116	0.25
679.44	0.25
679.765	0.24
680.089	0.24
680.413	0.23
680.737	0.23
681.061	0.23
681.385	0.23
681.709	0.22
682.033	0.22
682.356	0.22
682.68	0.22
683.004	0.22
683.327	0.21
683.651	0.21
683.974	0.21
684.298	0.21
684.621	0.21
684.944	0.2
685.268	0.2
685.591	0.2
685.914	0.2
686.237	0.19
686.56	0.19
686.883	0.18
687.206	0.18
687.529	0.18
687.852	0.17
688.175	0.17
688.497	0.17
688.82	0.17
689.142	0.17
689.465	0.17
689.787	0.17
690.11	0.17
690.432	0.17
690.755	0.17
691.077	0.16
691.399	0.16
691.721	0.16
692.043	0.15
692.365	0.15
692.687	0.15
693.009	0.15
693.331	0.14
693.653	0.14
693.974	0.14
694.296	0.14
694.618	0.14
694.939	0.14
695.261	0.13
695.582	0.13
695.904	0.13
696.225	0.13
696.546	0.14
696.868	0.13
697.189	0.13
697.51	0.13
697.831	0.13
698.152	0.12
698.473	0.12
698.794	0.11
699.114	0.11
699.435	0.1
699.756	0.1
700.077	0.1
700.397	0.11
700.718	0.11
701.038	0.11
701.359	0.11
701.679	0.11
701.999	0.11
702.32	0.11
702.64	0.11
702.96	0.11
703.28	0.11
703.6	0.11
703.92	0.1
704.24	0.1
704.56	0.1
704.879	0.09
705.199	0.1
705.519	0.1
705.838	0.09
706.158	0.1
706.478	0.09
706.797	0.09
707.116	0.09
707.436	0.09
707.755	0.09
708.074	0.1
708.393	0.09
708.712	0.09
709.031	0.07
709.35	0.07
709.669	0.07
709.988	0.07
710.307	0.07
710.626	0.07
710.944	0.08
711.263	0.08
711.582	0.09
711.9	0.09
712.219	0.08
712.537	0.09
712.855	0.09
713.174	0.08
713.492	0.08
713.81	0.09
714.128	0.09
714.446	0.09
714.764	0.08
715.082	0.08
715.4	0.08
715.718	0.08
716.035	0.08
716.353	0.08
716.671	0.08
716.988	0.08
717.306	0.07
717.623	0.08
717.941	0.08
718.258	0.09
718.575	0.09
718.893	0.09
719.21	0.08
719.527	0.09
719.844	0.09
720.161	0.09
720.478	0.09
720.795	0.09
721.112	0.09
721.428	0.1
721.745	0.1
722.062	0.1
722.378	0.1
722.695	0.1
723.011	0.1
723.328	0.1
723.644	0.1
723.96	0.1
724.276	0.1
724.593	0.1
724.909	0.1
725.225	0.1
725.541	0.1
725.857	0.1
726.173	0.1
726.488	0.11
726.804	0.1
727.12	0.1
727.435	0.11
727.751	0.1
728.067	0.1
728.382	0.1
728.697	0.1
729.013	0.1
729.328	0.1
729.643	0.1
729.958	0.1
730.273	0.1
730.588	0.1
730.903	0.1
731.218	0.1
731.533	0.1
731.848	0.1
732.163	0.1
732.477	0.1
732.792	0.1
733.107	0.09
733.421	0.09
733.736	0.09
734.05	0.1
734.364	0.09
734.678	0.1
734.993	0.1
735.307	0.1
735.621	0.1
735.935	0.1
736.249	0.1
736.563	0.1
736.877	0.1
737.19	0.1
737.504	0.1
737.818	0.1
738.131	0.1
738.445	0.1
738.758	0.1
739.072	0.1
739.385	0.1
739.698	0.1
740.012	0.1
740.325	0.1
740.638	0.1
740.951	0.1
741.264	0.1
741.577	0.09
741.89	0.1
742.203	0.1
742.515	0.1
742.828	0.1
743.141	0.09
743.453	0.09
743.766	0.09
744.078	0.1
744.391	0.09
744.703	0.09
745.015	0.09
745.327	0.09
745.639	0.09
745.952	0.09
746.264	0.09
746.575	0.09
746.887	0.09
747.199	0.09
747.511	0.09
747.823	0.08
748.134	0.08
748.446	0.08
748.757	0.08
749.069	0.08
749.38	0.08
749.692	0.08
750.003	0.08
750.314	0.08
750.625	0.08
750.936	0.07
751.248	0.07
751.559	0.07
751.869	0.07
752.18	0.07
752.491	0.06
752.802	0.06
753.112	0.06
753.423	0.06
753.734	0.07
754.044	0.07
754.355	0.07
754.665	0.06
754.975	0.06
755.285	0.06
755.596	0.06
755.906	0.05
756.216	0.05
756.526	0.05
756.836	0.06
757.146	0.05
757.455	0.06
757.765	0.06
758.075	0.05
758.385	0.05
758.694	0.05
759.004	0.05
759.313	0.05
759.622	0.05
759.932	0.05
760.241	0.05
760.55	0.05
760.859	0.04
761.168	0.04
761.477	0.04
761.786	0.04
762.095	0.03
762.404	0.03
762.713	0.04
763.021	0.03
763.33	0.04
763.639	0.03
763.947	0.03
764.256	0.03
764.564	0.04
764.872	0.04
765.181	0.03
765.489	0.03
765.797	0.03
766.105	0.03
766.413	0.03
766.721	0.03
767.029	0.03
767.337	0.03
767.644	0.03
767.952	0.03
768.26	0.03
768.567	0.03
768.875	0.04
769.182	0.04
769.49	0.03
769.797	0.04
770.104	0.03
770.411	0.03
770.718	0.03
771.026	0.04
771.333	0.03
771.639	0.03
771.946	0.03
772.253	0.03
772.56	0.03
772.867	0.03
773.173	0.03
773.48	0.03
773.786	0.02
774.093	0.02
774.399	0.02
774.705	0.02
775.012	0.02
775.318	0.02
775.624	0.02
775.93	0.02
776.236	0.02
776.542	0.02
776.848	0.02
777.154	0.03
777.459	0.03
777.765	0.03
778.071	0.03
778.376	0.03
778.682	0.03
778.987	0.03
779.292	0.03
779.598	0.03
779.903	0.03
780.208	0.03
780.513	0.03
780.818	0.03
781.123	0.03
781.428	0.03
781.733	0.03
782.038	0.03
782.343	0.03
782.647	0.03
782.952	0.03
783.256	0.03
783.561	0.03
783.865	0.03
784.17	0.03
784.474	0.03
784.778	0.02
785.082	0.03
785.386	0.02
785.69	0.03
785.994	0.03
786.298	0.03
786.602	0.03
786.906	0.03
787.209	0.03
787.513	0.03
787.817	0.03
788.12	0.03
788.424	0.03
788.727	0.03
789.03	0.03
789.333	0.03
789.637	0.03
789.94	0.03
790.243	0.03
790.546	0.03
790.849	0.03
791.152	0.03
791.454	0.03
791.757	0.03
792.06	0.03
792.362	0.03
792.665	0.03
792.967	0.03
793.27	0.03
793.572	0.03
793.874	0.03
794.177	0.03
794.479	0.03
794.781	0.03
795.083	0.02
795.385	0.03
795.687	0.02
795.989	0.03
796.29	0.03
796.592	0.03
796.894	0.03
797.195	0.03
797.497	0.04
797.798	0.03
798.1	0.03
798.401	0.03
798.702	0.04
799.003	0.03
799.304	0.04
799.605	0.04
799.906	0.04
800.207	0.03
800.508	0.03
800.809	0.03
801.11	0.03
801.41	0.02
801.711	0.03
802.011	0.03
802.312	0.03
802.612	0.02
802.913	0.02
803.213	0.02
803.513	0.02
803.813	0.03
804.113	0.03
804.413	0.03
804.713	0.02
805.013	0.03
805.313	0.03
805.613	0.03
805.912	0.03
806.212	0.03
806.511	0.03
806.811	0.03
807.11	0.03
807.41	0.03
807.709	0.03
808.008	0.03
808.307	0.03
808.606	0.03
808.905	0.03
809.204	0.03
809.503	0.03
809.802	0.03
810.101	0.03
810.399	0.03
810.698	0.03
810.997	0.03
811.295	0.03
811.593	0.03
811.892	0.03
812.19	0.03
812.488	0.03
812.786	0.03
813.084	0.04
813.383	0.04
813.68	0.04
813.978	0.04
814.276	0.04
814.574	0.04
814.872	0.04
815.169	0.04
815.467	0.04
815.764	0.03
816.062	0.03
816.359	0.03
816.656	0.04
816.954	0.04
817.251	0.04
817.548	0.05
817.845	0.05
818.142	0.05
818.439	0.05
818.735	0.05
819.032	0.05
819.329	0.04
819.626	0.04
819.922	0.04
820.219	0.04
820.515	0.04
820.811	0.04
821.108	0.04
821.404	0.04
821.7	0.04
821.996	0.04
822.292	0.04
822.588	0.04
822.884	0.04
823.18	0.04
823.475	0.04
823.771	0.04
824.067	0.04
824.362	0.04
824.658	0.04
824.953	0.05
825.249	0.04
825.544	0.04
825.839	0.04
826.134	0.05
826.429	0.05
826.724	0.05
827.019	0.05
827.314	0.05
827.609	0.04
827.904	0.04
828.198	0.04
828.493	0.04
828.787	0.04
829.082	0.04
829.376	0.04
829.671	0.04
829.965	0.04
830.259	0.04
830.553	0.05
830.847	0.05
831.141	0.06
831.435	0.05
831.729	0.05
832.023	0.05
832.317	0.06
832.61	0.05
832.904	0.06
833.197	0.05
833.491	0.05
833.784	0.05
834.077	0.05
834.371	0.05
834.664	0.04
834.957	0.05
835.25	0.05
835.543	0.05
835.836	0.05
836.129	0.05
836.421	0.05
836.714	0.05
837.007	0.05
837.299	0.05
837.592	0.05
837.884	0.05
838.177	0.06
838.469	0.05
838.761	0.05
839.053	0.05
839.345	0.05
839.637	0.06
839.929	0.06
840.221	0.06
840.513	0.07
840.805	0.06
841.096	0.06
841.388	0.06
841.68	0.06
841.971	0.06
842.262	0.06
842.554	0.06
842.845	0.06
843.136	0.06
843.427	0.05
843.718	0.05
844.009	0.06
844.3	0.05
844.591	0.05
844.882	0.04
845.173	0.05
845.463	0.05
845.754	0.05
846.044	0.05
846.335	0.06
846.625	0.05
846.915	0.05
847.206	0.05
847.496	0.06
847.786	0.06
848.076	0.06
848.366	0.06
848.656	0.05
848.945	0.05
849.235	0.05
849.525	0.06
849.814	0.06
850.104	0.05
850.393	0.05
850.683	0.05
850.972	0.05
851.261	0.04
851.551	0.06
851.84	0.05
852.129	0.05
852.418	0.06
852.707	0.06
852.995	0.05
853.284	0.06
853.573	0.05
853.862	0.05
854.15	0.06
854.439	0.05
854.727	0.06
855.015	0.05
855.304	0.05
855.592	0.05
855.88	0.04
856.168	0.05
856.456	0.05
856.744	0.06
857.032	0.05
857.32	0.06
857.607	0.07
857.895	0.05
858.183	0.07
858.47	0.04
858.757	0.05
859.045	0.05
859.332	0.07
859.619	0.05
859.907	0.05
860.194	0.06
860.481	0.06
860.768	0.07
861.054	0.07
861.341	0.07
861.628	0.06
861.915	0.07
862.201	0.05
862.488	0.06
862.774	0.06
863.061	0.04
863.347	0.05
863.633	0.06
863.919	0.03
864.205	0.06
864.491	0.04
864.777	0.05
865.063	0.04
865.349	0.05
865.635	0.06
865.92	0.07
866.206	0.03
866.492	0.03
866.777	0.06
867.062	0.08
867.348	0.07
867.633	0.04
867.918	0.04
868.203	0.05
868.488	0.05
868.773	0.04
869.058	0.07
869.343	0.04
869.628	0.02
869.912	0.04
870.197	0.03
870.482	0.05
870.766	0.01
871.05	0.04
871.335	0.03
871.619	0.05
871.903	0.02
872.187	0.03
872.471	0.04
872.755	0.06
873.039	0.02
873.323	0.06
873.607	0.01
873.89	0.05
874.174	0.04
874.458	0.01
874.741	0.04
875.024	0.05
875.308	0.02
875.591	0.09
875.874	0.04
876.157	0.06
876.44	0.04
876.723	0.03
877.006	-0.01
877.289	0.08
877.572	0.05
877.854	0.04
878.137	0.04
878.42	0.02
878.702	-0.01
878.984	0.01
879.267	-0.05
879.549	0.03
879.831	0.03
880.113	0.08
880.395	0.05
880.677	0.03
880.959	0.06
