Data from Rubpy_EV_1800_EDTA_Buffered_Absorbance_15-39-15-684.txt Node
Date: Tue Jun 30 15:39:15 BST 2026
User: fpm-admin
Spectrometer: OFX00224
Trigger mode: 0
Integration Time (sec): 7.000000E-2
Scans to average: 3
Nonlinearity correction enabled: false
Boxcar width: 0
Storing dark spectrum: false
XAxis mode: Wavelengths
Number of Pixels in Spectrum: 2136
>>>>>Begin Spectral Data<<<<<
154.91	-0.32
155.289	0.85
155.669	-0
156.048	-0
156.428	-0.3
156.807	0.67
157.186	-0
157.566	0.07
157.945	0.15
158.325	-0.14
158.704	-0
159.083	-0.26
159.462	0.32
159.842	-0
160.221	0.9
160.6	-0.26
160.979	-0.47
161.359	0.51
161.738	-0.35
162.117	0.41
162.496	-0
162.875	-0
163.254	-0.91
163.633	-0
164.012	-0.09
164.391	0.02
164.77	-0.08
165.149	-0.02
165.528	-0.05
165.907	-1.11
166.286	0.03
166.665	-0.16
167.044	-1.16
167.423	-0
167.802	-0
168.181	0.33
168.559	-0
168.938	0.2
169.317	-0.22
169.696	-0
170.074	-0.08
170.453	-0
170.832	0.24
171.21	-0.42
171.589	-0
171.968	-0
172.346	-0.34
172.725	0.06
173.103	-0.04
173.482	-0
173.861	-0
174.239	-0
174.617	0.03
174.996	-0.03
175.374	-0
175.753	-0
176.131	0.64
176.51	0.26
176.888	-0
177.266	-0
177.645	-0.17
178.023	-0
178.401	-0.29
178.779	0.05
179.158	-0.24
179.536	-0.02
179.914	-0
180.292	-0.66
180.67	-0.33
181.048	-0
181.427	-0
181.805	0.21
182.183	-0.17
182.561	-0
182.939	0.3
183.317	-0.48
183.695	0.38
184.073	0.2
184.451	-0.08
184.829	-0.12
185.206	-0.2
185.584	-0.09
185.962	-0
186.34	-0.16
186.718	-0
187.096	0.26
187.473	-0
187.851	-0
188.229	0.07
188.607	0.23
188.984	0.23
189.362	0.19
189.74	0.19
190.117	0.18
190.495	0.14
190.872	0.14
191.25	0.14
191.627	-0
192.005	0.01
192.382	0.14
192.76	0.1
193.137	0.15
193.515	0.08
193.892	0.19
194.269	0.28
194.647	0.18
195.024	0.16
195.401	0.16
195.779	0.16
196.156	0.18
196.533	0.16
196.91	0.18
197.288	0.18
197.665	0.24
198.042	0.21
198.419	0.29
198.796	0.13
199.173	0.23
199.55	0.15
199.927	0.23
200.304	0.13
200.681	0.13
201.058	0.28
201.435	0.18
201.812	0.15
202.189	0.13
202.566	0.15
202.943	0.26
203.32	0.1
203.697	0.27
204.073	0.16
204.45	0.19
204.827	0.3
205.204	0.17
205.58	0.2
205.957	0.07
206.334	0.2
206.71	0.19
207.087	0.24
207.464	0.16
207.84	0.27
208.217	0.21
208.593	0.23
208.97	0.13
209.346	0.15
209.723	0.1
210.099	0.16
210.476	0.2
210.852	0.14
211.228	0.05
211.605	0.3
211.981	0.15
212.357	0.13
212.733	0.19
213.11	0.25
213.486	0.2
213.862	0.2
214.238	0.27
214.614	0.22
214.991	0.21
215.367	0.25
215.743	0.29
216.119	0.12
216.495	0.21
216.871	0.2
217.247	0.24
217.623	0.1
217.999	0.41
218.375	0.12
218.751	0.15
219.127	0.26
219.502	0.15
219.878	0.15
220.254	0.28
220.63	0.2
221.006	0.16
221.381	0.17
221.757	0.21
222.133	0.2
222.508	0.25
222.884	0.3
223.26	0.24
223.635	0.15
224.011	0.17
224.386	0.22
224.762	0.11
225.137	0.18
225.513	0.18
225.888	0.24
226.264	0.22
226.639	0.24
227.014	0.25
227.39	0.19
227.765	0.19
228.14	0.09
228.516	0.19
228.891	0.23
229.266	0.15
229.641	0.26
230.017	0.15
230.392	0.31
230.767	0.25
231.142	0.18
231.517	0.08
231.892	0.22
232.267	0.26
232.642	0.19
233.017	0.29
233.392	0.29
233.767	0.23
234.142	0.2
234.517	0.25
234.892	0.21
235.267	0.22
235.641	0.18
236.016	0.15
236.391	0.2
236.766	0.13
237.14	0.19
237.515	0.15
237.89	0.23
238.264	0.16
238.639	0.18
239.014	0.17
239.388	0.17
239.763	0.2
240.137	0.19
240.512	0.22
240.886	0.16
241.261	0.15
241.635	0.16
242.009	0.2
242.384	0.23
242.758	0.35
243.132	0.21
243.507	0.1
243.881	0.2
244.255	0.23
244.629	0.28
245.004	0.14
245.378	0.27
245.752	0.22
246.126	0.21
246.5	0.22
246.874	0.21
247.248	0.14
247.622	0.21
247.996	0.23
248.37	0.25
248.744	0.26
249.118	0.25
249.492	0.14
249.866	0.23
250.24	0.16
250.613	0.21
250.987	0.24
251.361	0.25
251.735	0.22
252.108	0.23
252.482	0.2
252.856	0.21
253.229	0.16
253.603	0.15
253.977	0.17
254.35	0.23
254.724	0.13
255.097	0.16
255.471	0.24
255.844	0.22
256.218	0.21
256.591	0.18
256.964	0.2
257.338	0.19
257.711	0.21
258.084	0.21
258.458	0.11
258.831	0.14
259.204	0.21
259.577	0.23
259.95	0.25
260.323	0.23
260.697	0.2
261.07	0.2
261.443	0.3
261.816	0.21
262.189	0.24
262.562	0.18
262.935	0.22
263.308	0.18
263.68	0.27
264.053	0.26
264.426	0.23
264.799	0.19
265.172	0.19
265.545	0.24
265.917	0.27
266.29	0.21
266.663	0.26
267.035	0.29
267.408	0.29
267.781	0.17
268.153	0.22
268.526	0.29
268.898	0.2
269.271	0.13
269.643	0.15
270.016	0.22
270.388	0.17
270.76	0.28
271.133	0.18
271.505	0.27
271.877	0.21
272.25	0.16
272.622	0.17
272.994	0.22
273.366	0.21
273.739	0.19
274.111	0.22
274.483	0.13
274.855	0.29
275.227	0.24
275.599	0.26
275.971	0.25
276.343	0.2
276.715	0.26
277.087	0.21
277.459	0.22
277.831	0.23
278.203	0.29
278.574	0.26
278.946	0.25
279.318	0.21
279.69	0.16
280.061	0.25
280.433	0.2
280.805	0.29
281.176	0.14
281.548	0.21
281.92	0.24
282.291	0.17
282.663	0.21
283.034	0.19
283.406	0.19
283.777	0.23
284.148	0.23
284.52	0.17
284.891	0.22
285.262	0.24
285.634	0.21
286.005	0.22
286.376	0.2
286.747	0.25
287.119	0.22
287.49	0.21
287.861	0.16
288.232	0.19
288.603	0.18
288.974	0.17
289.345	0.17
289.716	0.26
290.087	0.24
290.458	0.2
290.829	0.26
291.2	0.21
291.571	0.25
291.941	0.14
292.312	0.21
292.683	0.22
293.054	0.19
293.424	0.22
293.795	0.24
294.166	0.28
294.536	0.21
294.907	0.27
295.277	0.27
295.648	0.19
296.018	0.21
296.389	0.21
296.759	0.26
297.13	0.17
297.5	0.21
297.871	0.22
298.241	0.24
298.611	0.22
298.981	0.2
299.352	0.27
299.722	0.2
300.092	0.21
300.462	0.2
300.832	0.23
301.202	0.22
301.573	0.2
301.943	0.18
302.313	0.17
302.683	0.16
303.053	0.18
303.422	0.16
303.792	0.2
304.162	0.19
304.532	0.19
304.902	0.2
305.272	0.19
305.641	0.2
306.011	0.19
306.381	0.21
306.75	0.2
307.12	0.2
307.49	0.2
307.859	0.21
308.229	0.21
308.598	0.21
308.968	0.21
309.337	0.22
309.707	0.21
310.076	0.22
310.445	0.23
310.815	0.23
311.184	0.23
311.553	0.23
311.923	0.23
312.292	0.23
312.661	0.23
313.03	0.23
313.399	0.23
313.768	0.24
314.137	0.24
314.506	0.24
314.875	0.23
315.244	0.23
315.613	0.23
315.982	0.24
316.351	0.23
316.72	0.23
317.089	0.23
317.458	0.22
317.826	0.22
318.195	0.23
318.564	0.22
318.933	0.22
319.301	0.22
319.67	0.22
320.038	0.21
320.407	0.22
320.775	0.22
321.144	0.21
321.512	0.21
321.881	0.2
322.249	0.21
322.618	0.21
322.986	0.2
323.354	0.2
323.723	0.2
324.091	0.19
324.459	0.2
324.827	0.2
325.195	0.19
325.564	0.19
325.932	0.19
326.3	0.19
326.668	0.19
327.036	0.19
327.404	0.19
327.772	0.19
328.14	0.19
328.508	0.19
328.875	0.2
329.243	0.2
329.611	0.19
329.979	0.19
330.346	0.19
330.714	0.2
331.082	0.2
331.449	0.2
331.817	0.2
332.185	0.2
332.552	0.2
332.92	0.2
333.287	0.21
333.655	0.21
334.022	0.21
334.389	0.21
334.757	0.22
335.124	0.22
335.491	0.22
335.859	0.22
336.226	0.23
336.593	0.23
336.96	0.23
337.327	0.23
337.695	0.23
338.062	0.24
338.429	0.24
338.796	0.24
339.163	0.25
339.53	0.25
339.897	0.26
340.263	0.26
340.63	0.26
340.997	0.27
341.364	0.27
341.731	0.28
342.097	0.28
342.464	0.28
342.831	0.29
343.197	0.3
343.564	0.3
343.931	0.3
344.297	0.31
344.664	0.31
345.03	0.32
345.396	0.32
345.763	0.33
346.129	0.33
346.496	0.33
346.862	0.35
347.228	0.34
347.594	0.35
347.961	0.36
348.327	0.36
348.693	0.37
349.059	0.37
349.425	0.39
349.791	0.39
350.157	0.39
350.523	0.4
350.889	0.41
351.255	0.42
351.621	0.43
351.987	0.43
352.353	0.44
352.719	0.44
353.084	0.46
353.45	0.46
353.816	0.47
354.181	0.48
354.547	0.49
354.913	0.5
355.278	0.52
355.644	0.52
356.009	0.53
356.375	0.54
356.74	0.55
357.106	0.57
357.471	0.57
357.836	0.59
358.202	0.6
358.567	0.61
358.932	0.61
359.297	0.63
359.663	0.64
360.028	0.65
360.393	0.66
360.758	0.67
361.123	0.67
361.488	0.69
361.853	0.69
362.218	0.7
362.583	0.7
362.948	0.71
363.312	0.72
363.677	0.73
364.042	0.74
364.407	0.75
364.772	0.76
365.136	0.78
365.501	0.79
365.865	0.81
366.23	0.82
366.595	0.84
366.959	0.85
367.324	0.87
367.688	0.89
368.052	0.89
368.417	0.91
368.781	0.92
369.145	0.94
369.51	0.93
369.874	0.94
370.238	0.94
370.602	0.94
370.967	0.93
371.331	0.94
371.695	0.93
372.059	0.93
372.423	0.92
372.787	0.92
373.151	0.91
373.515	0.92
373.878	0.9
374.242	0.91
374.606	0.91
374.97	0.9
375.334	0.91
375.697	0.91
376.061	0.92
376.425	0.92
376.788	0.92
377.152	0.93
377.515	0.94
377.879	0.95
378.242	0.96
378.606	0.97
378.969	0.97
379.333	0.99
379.696	1
380.059	1.01
380.422	1.03
380.786	1.04
381.149	1.05
381.512	1.07
381.875	1.09
382.238	1.12
382.601	1.15
382.964	1.18
383.327	1.2
383.69	1.23
384.053	1.27
384.416	1.28
384.779	1.31
385.142	1.34
385.504	1.36
385.867	1.39
386.23	1.37
386.593	1.39
386.955	1.4
387.318	1.4
387.68	1.4
388.043	1.39
388.405	1.37
388.768	1.38
389.13	1.35
389.493	1.35
389.855	1.34
390.217	1.34
390.58	1.34
390.942	1.35
391.304	1.35
391.666	1.38
392.028	1.38
392.391	1.41
392.753	1.45
393.115	1.48
393.477	1.53
393.839	1.56
394.201	1.61
394.563	1.68
394.924	1.71
395.286	1.74
395.648	1.79
396.01	1.82
396.371	1.87
396.733	1.86
397.095	1.9
397.456	1.89
397.818	1.88
398.18	1.89
398.541	1.85
398.903	1.83
399.264	1.8
399.625	1.77
399.987	1.73
400.348	1.68
400.709	1.64
401.071	1.58
401.432	1.47
401.793	1.4
402.154	1.31
402.515	1.24
402.876	1.16
403.238	1.08
403.599	1.02
403.96	0.94
404.32	0.88
404.681	0.82
405.042	0.77
405.403	0.7
405.764	0.66
406.125	0.61
406.485	0.57
406.846	0.54
407.207	0.5
407.567	0.47
407.928	0.45
408.288	0.42
408.649	0.4
409.009	0.37
409.37	0.35
409.73	0.33
410.091	0.32
410.451	0.31
410.811	0.29
411.171	0.28
411.532	0.27
411.892	0.26
412.252	0.25
412.612	0.24
412.972	0.23
413.332	0.22
413.692	0.21
414.052	0.2
414.412	0.2
414.772	0.19
415.132	0.18
415.492	0.18
415.851	0.18
416.211	0.17
416.571	0.17
416.931	0.16
417.29	0.16
417.65	0.15
418.009	0.15
418.369	0.14
418.728	0.14
419.088	0.14
419.447	0.13
419.807	0.13
420.166	0.13
420.525	0.13
420.884	0.13
421.244	0.12
421.603	0.12
421.962	0.12
422.321	0.12
422.68	0.12
423.039	0.12
423.398	0.12
423.757	0.12
424.116	0.11
424.475	0.11
424.834	0.1
425.193	0.11
425.551	0.1
425.91	0.1
426.269	0.1
426.628	0.09
426.986	0.11
427.345	0.11
427.703	0.1
428.062	0.09
428.42	0.1
428.779	0.1
429.137	0.1
429.496	0.09
429.854	0.1
430.212	0.09
430.57	0.09
430.929	0.08
431.287	0.08
431.645	0.09
432.003	0.08
432.361	0.08
432.719	0.08
433.077	0.08
433.435	0.08
433.793	0.09
434.151	0.09
434.509	0.08
434.866	0.08
435.224	0.08
435.582	0.07
435.94	0.08
436.297	0.08
436.655	0.08
437.012	0.07
437.37	0.08
437.727	0.08
438.085	0.07
438.442	0.07
438.8	0.07
439.157	0.07
439.514	0.08
439.872	0.07
440.229	0.07
440.586	0.06
440.943	0.07
441.3	0.07
441.657	0.07
442.014	0.07
442.371	0.07
442.728	0.07
443.085	0.06
443.442	0.07
443.799	0.06
444.156	0.06
444.513	0.06
444.869	0.06
445.226	0.06
445.583	0.06
445.939	0.06
446.296	0.06
446.652	0.06
447.009	0.06
447.365	0.05
447.722	0.05
448.078	0.06
448.434	0.05
448.791	0.05
449.147	0.05
449.503	0.05
449.859	0.05
450.215	0.05
450.571	0.05
450.928	0.05
451.284	0.05
451.64	0.05
451.995	0.05
452.351	0.05
452.707	0.04
453.063	0.05
453.419	0.04
453.775	0.03
454.13	0.04
454.486	0.04
454.842	0.03
455.197	0.04
455.553	0.03
455.908	0.04
456.264	0.03
456.619	0.03
456.975	0.03
457.33	0.02
457.685	0.02
458.04	0.02
458.396	0.03
458.751	0.02
459.106	0.02
459.461	0.02
459.816	0.01
460.171	0.01
460.526	0.02
460.881	-0
461.236	0
461.591	0.01
461.946	-0
462.301	-0.01
462.655	-0.01
463.01	-0.01
463.365	0
463.719	-0.02
464.074	-0.01
464.428	-0.01
464.783	-0.02
465.137	-0.01
465.492	-0.02
465.846	-0.02
466.201	-0.03
466.555	-0.02
466.909	-0.02
467.263	-0.02
467.618	-0.02
467.972	-0.01
468.326	-0.02
468.68	-0.02
469.034	-0.02
469.388	-0.02
469.742	-0.02
470.096	-0.02
470.45	-0.02
470.804	-0.02
471.157	-0.02
471.511	-0.02
471.865	-0.01
472.218	-0.02
472.572	-0.01
472.926	-0.01
473.279	-0.01
473.633	-0.01
473.986	-0
474.34	0
474.693	0
475.046	0.01
475.4	0.01
475.753	0.01
476.106	0.02
476.459	0.02
476.812	0.03
477.165	0.03
477.519	0.04
477.872	0.04
478.224	0.04
478.577	0.04
478.93	0.05
479.283	0.05
479.636	0.05
479.989	0.05
480.341	0.06
480.694	0.06
481.047	0.06
481.399	0.06
481.752	0.07
482.104	0.07
482.457	0.07
482.809	0.07
483.162	0.08
483.514	0.08
483.866	0.08
484.219	0.08
484.571	0.08
484.923	0.08
485.275	0.08
485.627	0.09
485.979	0.09
486.331	0.09
486.683	0.1
487.035	0.1
487.387	0.1
487.739	0.1
488.091	0.1
488.443	0.1
488.794	0.1
489.146	0.1
489.498	0.1
489.849	0.11
490.201	0.11
490.552	0.11
490.904	0.11
491.255	0.12
491.607	0.11
491.958	0.12
492.309	0.12
492.661	0.12
493.012	0.13
493.363	0.12
493.714	0.12
494.065	0.13
494.416	0.13
494.767	0.13
495.118	0.13
495.469	0.13
495.82	0.14
496.171	0.14
496.522	0.14
496.872	0.14
497.223	0.14
497.574	0.14
497.924	0.15
498.275	0.14
498.626	0.15
498.976	0.15
499.327	0.15
499.677	0.16
500.027	0.16
500.378	0.16
500.728	0.16
501.078	0.16
501.428	0.16
501.779	0.16
502.129	0.17
502.479	0.17
502.829	0.17
503.179	0.17
503.529	0.17
503.879	0.17
504.229	0.18
504.578	0.17
504.928	0.18
505.278	0.18
505.628	0.19
505.977	0.18
506.327	0.19
506.676	0.19
507.026	0.19
507.375	0.2
507.725	0.2
508.074	0.2
508.424	0.2
508.773	0.2
509.122	0.21
509.471	0.21
509.82	0.21
510.17	0.22
510.519	0.21
510.868	0.22
511.217	0.22
511.566	0.22
511.915	0.22
512.263	0.22
512.612	0.22
512.961	0.23
513.31	0.23
513.659	0.23
514.007	0.23
514.356	0.23
514.704	0.24
515.053	0.23
515.401	0.24
515.75	0.24
516.098	0.24
516.447	0.25
516.795	0.25
517.143	0.25
517.491	0.26
517.839	0.25
518.188	0.26
518.536	0.26
518.884	0.26
519.232	0.27
519.58	0.26
519.928	0.27
520.275	0.27
520.623	0.27
520.971	0.28
521.319	0.28
521.666	0.28
522.014	0.28
522.362	0.28
522.709	0.28
523.057	0.28
523.404	0.29
523.752	0.29
524.099	0.29
524.446	0.29
524.794	0.3
525.141	0.3
525.488	0.3
525.835	0.3
526.182	0.3
526.529	0.3
526.876	0.31
527.223	0.31
527.57	0.31
527.917	0.32
528.264	0.31
528.611	0.32
528.958	0.32
529.304	0.32
529.651	0.32
529.998	0.33
530.344	0.33
530.691	0.33
531.037	0.34
531.384	0.34
531.73	0.33
532.076	0.34
532.423	0.34
532.769	0.34
533.115	0.35
533.461	0.35
533.807	0.35
534.154	0.35
534.5	0.35
534.846	0.36
535.192	0.36
535.537	0.36
535.883	0.37
536.229	0.37
536.575	0.37
536.921	0.37
537.266	0.38
537.612	0.38
537.957	0.38
538.303	0.38
538.649	0.38
538.994	0.39
539.339	0.39
539.685	0.4
540.03	0.4
540.375	0.4
540.721	0.4
541.066	0.41
541.411	0.41
541.756	0.41
542.101	0.41
542.446	0.41
542.791	0.42
543.136	0.42
543.481	0.42
543.825	0.43
544.17	0.44
544.515	0.43
544.86	0.44
545.204	0.44
545.549	0.44
545.893	0.45
546.238	0.45
546.582	0.45
546.927	0.46
547.271	0.46
547.615	0.46
547.96	0.46
548.304	0.46
548.648	0.47
548.992	0.47
549.336	0.47
549.68	0.47
550.024	0.48
550.368	0.48
550.712	0.48
551.056	0.48
551.4	0.49
551.743	0.49
552.087	0.49
552.431	0.49
552.774	0.5
553.118	0.49
553.462	0.5
553.805	0.5
554.148	0.5
554.492	0.5
554.835	0.51
555.178	0.51
555.522	0.51
555.865	0.51
556.208	0.51
556.551	0.52
556.894	0.52
557.237	0.52
557.58	0.52
557.923	0.52
558.266	0.52
558.609	0.53
558.952	0.52
559.294	0.53
559.637	0.53
559.98	0.53
560.322	0.53
560.665	0.53
561.007	0.53
561.35	0.53
561.692	0.53
562.034	0.53
562.377	0.53
562.719	0.53
563.061	0.54
563.403	0.54
563.745	0.54
564.088	0.54
564.43	0.55
564.772	0.55
565.113	0.55
565.455	0.55
565.797	0.55
566.139	0.55
566.481	0.55
566.822	0.55
567.164	0.56
567.506	0.56
567.847	0.56
568.189	0.56
568.53	0.56
568.872	0.56
569.213	0.56
569.554	0.56
569.895	0.56
570.237	0.56
570.578	0.56
570.919	0.56
571.26	0.56
571.601	0.56
571.942	0.56
572.283	0.56
572.624	0.56
572.965	0.56
573.306	0.56
573.646	0.56
573.987	0.56
574.328	0.56
574.668	0.56
575.009	0.56
575.349	0.56
575.69	0.56
576.03	0.56
576.37	0.55
576.711	0.55
577.051	0.56
577.391	0.56
577.731	0.56
578.072	0.56
578.412	0.56
578.752	0.56
579.092	0.56
579.431	0.55
579.771	0.53
580.111	0.51
580.451	0.51
580.791	0.54
581.13	0.56
581.47	0.57
581.81	0.57
582.149	0.57
582.489	0.57
582.828	0.57
583.167	0.54
583.507	0.5
583.846	0.48
584.185	0.49
584.525	0.52
584.864	0.55
585.203	0.57
585.542	0.58
585.881	0.58
586.22	0.59
586.559	0.59
586.898	0.57
587.236	0.56
587.575	0.55
587.914	0.56
588.252	0.58
588.591	0.59
588.93	0.6
589.268	0.59
589.607	0.6
589.945	0.6
590.283	0.6
590.622	0.6
590.96	0.61
591.298	0.61
591.636	0.62
591.974	0.62
592.313	0.63
592.651	0.63
592.989	0.63
593.326	0.64
593.664	0.65
594.002	0.65
594.34	0.64
594.678	0.64
595.015	0.64
595.353	0.62
595.691	0.63
596.028	0.64
596.366	0.65
596.703	0.66
597.04	0.66
597.378	0.66
597.715	0.67
598.052	0.67
598.389	0.67
598.726	0.68
599.064	0.67
599.401	0.68
599.738	0.68
600.074	0.68
600.411	0.68
600.748	0.68
601.085	0.68
601.422	0.67
601.758	0.67
602.095	0.67
602.432	0.68
602.768	0.68
603.105	0.68
603.441	0.68
603.777	0.68
604.114	0.69
604.45	0.69
604.786	0.69
605.122	0.69
605.459	0.69
605.795	0.69
606.131	0.69
606.467	0.68
606.803	0.68
607.139	0.69
607.474	0.68
607.81	0.68
608.146	0.68
608.482	0.68
608.817	0.68
609.153	0.68
609.488	0.67
609.824	0.67
610.159	0.67
610.495	0.67
610.83	0.67
611.165	0.67
611.5	0.67
611.836	0.67
612.171	0.67
612.506	0.67
612.841	0.66
613.176	0.67
613.511	0.66
613.845	0.66
614.18	0.66
614.515	0.66
614.85	0.66
615.184	0.65
615.519	0.65
615.854	0.65
616.188	0.65
616.523	0.65
616.857	0.65
617.191	0.64
617.526	0.64
617.86	0.64
618.194	0.63
618.528	0.63
618.862	0.64
619.196	0.63
619.53	0.63
619.864	0.63
620.198	0.63
620.532	0.63
620.866	0.62
621.2	0.62
621.533	0.62
621.867	0.62
622.201	0.62
622.534	0.62
622.868	0.62
623.201	0.61
623.534	0.61
623.868	0.61
624.201	0.61
624.534	0.6
624.868	0.6
625.201	0.6
625.534	0.6
625.867	0.59
626.2	0.59
626.533	0.59
626.865	0.59
627.198	0.58
627.531	0.58
627.864	0.57
628.196	0.57
628.529	0.57
628.862	0.56
629.194	0.56
629.527	0.56
629.859	0.56
630.191	0.55
630.524	0.56
630.856	0.55
631.188	0.54
631.52	0.54
631.852	0.54
632.184	0.53
632.516	0.53
632.848	0.53
633.18	0.53
633.512	0.52
633.844	0.52
634.175	0.51
634.507	0.51
634.839	0.5
635.17	0.5
635.502	0.5
635.833	0.49
636.165	0.49
636.496	0.48
636.827	0.48
637.159	0.48
637.49	0.47
637.821	0.47
638.152	0.47
638.483	0.47
638.814	0.46
639.145	0.46
639.476	0.45
639.807	0.45
640.137	0.45
640.468	0.44
640.799	0.44
641.129	0.43
641.46	0.43
641.791	0.43
642.121	0.42
642.451	0.43
642.782	0.42
643.112	0.42
643.442	0.41
643.773	0.41
644.103	0.41
644.433	0.41
644.763	0.4
645.093	0.4
645.423	0.4
645.753	0.4
646.082	0.39
646.412	0.39
646.742	0.39
647.072	0.39
647.401	0.39
647.731	0.39
648.06	0.38
648.39	0.38
648.719	0.38
649.048	0.38
649.378	0.38
649.707	0.38
650.036	0.38
650.365	0.37
650.694	0.37
651.023	0.37
651.352	0.36
651.681	0.36
652.01	0.37
652.339	0.37
652.668	0.37
652.996	0.37
653.325	0.37
653.654	0.37
653.982	0.37
654.311	0.37
654.639	0.37
654.967	0.36
655.296	0.37
655.624	0.36
655.952	0.36
656.28	0.36
656.609	0.36
656.937	0.36
657.265	0.36
657.593	0.3
657.92	0.16
658.248	0.1
658.576	0.08
658.904	0.16
659.231	0.24
659.559	0.32
659.887	0.35
660.214	0.36
660.542	0.36
660.869	0.36
661.196	0.36
661.524	0.36
661.851	0.36
662.178	0.36
662.505	0.36
662.832	0.36
663.159	0.36
663.486	0.36
663.813	0.36
664.14	0.35
664.467	0.35
664.794	0.35
665.12	0.35
665.447	0.35
665.774	0.35
666.1	0.34
666.427	0.34
666.753	0.34
667.079	0.34
667.406	0.34
667.732	0.33
668.058	0.34
668.384	0.34
668.71	0.34
669.036	0.33
669.362	0.34
669.688	0.34
670.014	0.33
670.34	0.33
670.666	0.33
670.991	0.33
671.317	0.33
671.643	0.33
671.968	0.33
672.294	0.33
672.619	0.33
672.945	0.33
673.27	0.32
673.595	0.32
673.92	0.32
674.246	0.31
674.571	0.3
674.896	0.3
675.221	0.31
675.546	0.31
675.87	0.3
676.195	0.3
676.52	0.3
676.845	0.3
677.169	0.3
677.494	0.29
677.819	0.29
678.143	0.28
678.468	0.28
678.792	0.28
679.116	0.28
679.44	0.28
679.765	0.28
680.089	0.28
680.413	0.27
680.737	0.27
681.061	0.26
681.385	0.26
681.709	0.26
682.033	0.26
682.356	0.26
682.68	0.26
683.004	0.25
683.327	0.25
683.651	0.24
683.974	0.24
684.298	0.24
684.621	0.24
684.944	0.23
685.268	0.23
685.591	0.23
685.914	0.23
686.237	0.22
686.56	0.22
686.883	0.21
687.206	0.21
687.529	0.21
687.852	0.2
688.175	0.2
688.497	0.2
688.82	0.2
689.142	0.2
689.465	0.2
689.787	0.19
690.11	0.2
690.432	0.19
690.755	0.19
691.077	0.19
691.399	0.18
691.721	0.18
692.043	0.18
692.365	0.18
692.687	0.18
693.009	0.17
693.331	0.17
693.653	0.16
693.974	0.16
694.296	0.16
694.618	0.16
694.939	0.16
695.261	0.15
695.582	0.15
695.904	0.15
696.225	0.16
696.546	0.16
696.868	0.15
697.189	0.15
697.51	0.15
697.831	0.14
698.152	0.15
698.473	0.14
698.794	0.13
699.114	0.13
699.435	0.11
699.756	0.12
700.077	0.12
700.397	0.13
700.718	0.13
701.038	0.13
701.359	0.13
701.679	0.13
701.999	0.13
702.32	0.13
702.64	0.12
702.96	0.13
703.28	0.13
703.6	0.13
703.92	0.12
704.24	0.12
704.56	0.11
704.879	0.11
705.199	0.11
705.519	0.11
705.838	0.11
706.158	0.11
706.478	0.11
706.797	0.11
707.116	0.11
707.436	0.11
707.755	0.11
708.074	0.11
708.393	0.11
708.712	0.1
709.031	0.09
709.35	0.08
709.669	0.08
709.988	0.08
710.307	0.09
710.626	0.09
710.944	0.1
711.263	0.1
711.582	0.1
711.9	0.1
712.219	0.1
712.537	0.1
712.855	0.1
713.174	0.1
713.492	0.09
713.81	0.1
714.128	0.1
714.446	0.1
714.764	0.09
715.082	0.09
715.4	0.1
715.718	0.09
716.035	0.09
716.353	0.09
716.671	0.09
716.988	0.09
717.306	0.09
717.623	0.1
717.941	0.1
718.258	0.1
718.575	0.11
718.893	0.11
719.21	0.11
719.527	0.1
719.844	0.11
720.161	0.11
720.478	0.11
720.795	0.11
721.112	0.11
721.428	0.11
721.745	0.11
722.062	0.11
722.378	0.12
722.695	0.12
723.011	0.12
723.328	0.11
723.644	0.12
723.96	0.12
724.276	0.11
724.593	0.12
724.909	0.12
725.225	0.12
725.541	0.12
725.857	0.12
726.173	0.12
726.488	0.13
726.804	0.12
727.12	0.12
727.435	0.12
727.751	0.12
728.067	0.12
728.382	0.12
728.697	0.12
729.013	0.12
729.328	0.12
729.643	0.12
729.958	0.12
730.273	0.12
730.588	0.12
730.903	0.12
731.218	0.12
731.533	0.12
731.848	0.12
732.163	0.12
732.477	0.12
732.792	0.12
733.107	0.11
733.421	0.11
733.736	0.11
734.05	0.11
734.364	0.12
734.678	0.12
734.993	0.12
735.307	0.12
735.621	0.11
735.935	0.12
736.249	0.11
736.563	0.12
736.877	0.12
737.19	0.12
737.504	0.12
737.818	0.12
738.131	0.12
738.445	0.12
738.758	0.12
739.072	0.12
739.385	0.12
739.698	0.11
740.012	0.11
740.325	0.11
740.638	0.11
740.951	0.11
741.264	0.11
741.577	0.11
741.89	0.11
742.203	0.12
742.515	0.11
742.828	0.11
743.141	0.11
743.453	0.11
743.766	0.11
744.078	0.11
744.391	0.11
744.703	0.11
745.015	0.1
745.327	0.11
745.639	0.1
745.952	0.1
746.264	0.1
746.575	0.1
746.887	0.1
747.199	0.1
747.511	0.1
747.823	0.1
748.134	0.09
748.446	0.1
748.757	0.09
749.069	0.09
749.38	0.09
749.692	0.09
750.003	0.09
750.314	0.09
750.625	0.09
750.936	0.09
751.248	0.08
751.559	0.08
751.869	0.08
752.18	0.08
752.491	0.07
752.802	0.07
753.112	0.07
753.423	0.07
753.734	0.08
754.044	0.08
754.355	0.08
754.665	0.08
754.975	0.07
755.285	0.07
755.596	0.07
755.906	0.07
756.216	0.06
756.526	0.07
756.836	0.07
757.146	0.06
757.455	0.06
757.765	0.07
758.075	0.06
758.385	0.06
758.694	0.06
759.004	0.06
759.313	0.06
759.622	0.06
759.932	0.05
760.241	0.05
760.55	0.05
760.859	0.05
761.168	0.05
761.477	0.05
761.786	0.04
762.095	0.04
762.404	0.04
762.713	0.04
763.021	0.04
763.33	0.04
763.639	0.04
763.947	0.04
764.256	0.04
764.564	0.04
764.872	0.04
765.181	0.04
765.489	0.04
765.797	0.04
766.105	0.04
766.413	0.04
766.721	0.04
767.029	0.03
767.337	0.03
767.644	0.03
767.952	0.03
768.26	0.04
768.567	0.04
768.875	0.04
769.182	0.04
769.49	0.04
769.797	0.04
770.104	0.04
770.411	0.04
770.718	0.04
771.026	0.04
771.333	0.04
771.639	0.04
771.946	0.04
772.253	0.04
772.56	0.04
772.867	0.04
773.173	0.03
773.48	0.03
773.786	0.03
774.093	0.03
774.399	0.03
774.705	0.03
775.012	0.03
775.318	0.02
775.624	0.02
775.93	0.02
776.236	0.02
776.542	0.03
776.848	0.03
777.154	0.03
777.459	0.03
777.765	0.03
778.071	0.03
778.376	0.03
778.682	0.03
778.987	0.03
779.292	0.03
779.598	0.03
779.903	0.03
780.208	0.03
780.513	0.03
780.818	0.03
781.123	0.03
781.428	0.03
781.733	0.03
782.038	0.03
782.343	0.04
782.647	0.03
782.952	0.03
783.256	0.03
783.561	0.03
783.865	0.03
784.17	0.03
784.474	0.03
784.778	0.03
785.082	0.03
785.386	0.03
785.69	0.03
785.994	0.02
786.298	0.03
786.602	0.03
786.906	0.03
787.209	0.03
787.513	0.03
787.817	0.04
788.12	0.03
788.424	0.03
788.727	0.03
789.03	0.03
789.333	0.03
789.637	0.03
789.94	0.03
790.243	0.03
790.546	0.03
790.849	0.03
791.152	0.03
791.454	0.03
791.757	0.03
792.06	0.03
792.362	0.03
792.665	0.03
792.967	0.03
793.27	0.03
793.572	0.03
793.874	0.03
794.177	0.03
794.479	0.03
794.781	0.03
795.083	0.03
795.385	0.03
795.687	0.03
795.989	0.03
796.29	0.03
796.592	0.04
796.894	0.03
797.195	0.03
797.497	0.04
797.798	0.04
798.1	0.03
798.401	0.04
798.702	0.04
799.003	0.04
799.304	0.04
799.605	0.04
799.906	0.04
800.207	0.03
800.508	0.03
800.809	0.03
801.11	0.03
801.41	0.03
801.711	0.03
802.011	0.03
802.312	0.03
802.612	0.02
802.913	0.02
803.213	0.03
803.513	0.02
803.813	0.03
804.113	0.03
804.413	0.03
804.713	0.03
805.013	0.04
805.313	0.03
805.613	0.03
805.912	0.04
806.212	0.03
806.511	0.03
806.811	0.03
807.11	0.03
807.41	0.03
807.709	0.04
808.008	0.04
808.307	0.04
808.606	0.04
808.905	0.04
809.204	0.03
809.503	0.04
809.802	0.03
810.101	0.03
810.399	0.03
810.698	0.03
810.997	0.04
811.295	0.04
811.593	0.04
811.892	0.03
812.19	0.03
812.488	0.04
812.786	0.04
813.084	0.04
813.383	0.04
813.68	0.04
813.978	0.05
814.276	0.05
814.574	0.04
814.872	0.04
815.169	0.04
815.467	0.04
815.764	0.04
816.062	0.03
816.359	0.04
816.656	0.04
816.954	0.04
817.251	0.05
817.548	0.05
817.845	0.05
818.142	0.05
818.439	0.04
818.735	0.05
819.032	0.04
819.329	0.04
819.626	0.04
819.922	0.04
820.219	0.05
820.515	0.04
820.811	0.05
821.108	0.05
821.404	0.04
821.7	0.04
821.996	0.04
822.292	0.04
822.588	0.04
822.884	0.04
823.18	0.04
823.475	0.04
823.771	0.05
824.067	0.05
824.362	0.05
824.658	0.05
824.953	0.05
825.249	0.05
825.544	0.04
825.839	0.04
826.134	0.05
826.429	0.05
826.724	0.05
827.019	0.05
827.314	0.05
827.609	0.04
827.904	0.04
828.198	0.04
828.493	0.04
828.787	0.04
829.082	0.04
829.376	0.04
829.671	0.04
829.965	0.04
830.259	0.04
830.553	0.05
830.847	0.05
831.141	0.05
831.435	0.05
831.729	0.05
832.023	0.06
832.317	0.05
832.61	0.06
832.904	0.05
833.197	0.05
833.491	0.05
833.784	0.06
834.077	0.05
834.371	0.05
834.664	0.05
834.957	0.06
835.25	0.05
835.543	0.05
835.836	0.05
836.129	0.05
836.421	0.06
836.714	0.05
837.007	0.04
837.299	0.05
837.592	0.05
837.884	0.05
838.177	0.05
838.469	0.05
838.761	0.05
839.053	0.04
839.345	0.05
839.637	0.05
839.929	0.05
840.221	0.06
840.513	0.05
840.805	0.06
841.096	0.06
841.388	0.06
841.68	0.05
841.971	0.06
842.262	0.06
842.554	0.06
842.845	0.06
843.136	0.06
843.427	0.06
843.718	0.05
844.009	0.06
844.3	0.06
844.591	0.06
844.882	0.05
845.173	0.06
845.463	0.05
845.754	0.05
846.044	0.06
846.335	0.06
846.625	0.06
846.915	0.06
847.206	0.06
847.496	0.07
847.786	0.06
848.076	0.06
848.366	0.06
848.656	0.05
848.945	0.06
849.235	0.06
849.525	0.06
849.814	0.05
850.104	0.06
850.393	0.05
850.683	0.06
850.972	0.05
851.261	0.05
851.551	0.06
851.84	0.05
852.129	0.07
852.418	0.06
852.707	0.06
852.995	0.06
853.284	0.06
853.573	0.05
853.862	0.05
854.15	0.06
854.439	0.06
854.727	0.06
855.015	0.05
855.304	0.07
855.592	0.06
855.88	0.05
856.168	0.05
856.456	0.06
856.744	0.06
857.032	0.06
857.32	0.06
857.607	0.06
857.895	0.06
858.183	0.06
858.47	0.05
858.757	0.05
859.045	0.05
859.332	0.06
859.619	0.04
859.907	0.06
860.194	0.06
860.481	0.07
860.768	0.07
861.054	0.07
861.341	0.05
861.628	0.05
861.915	0.05
862.201	0.04
862.488	0.05
862.774	0.04
863.061	0.04
863.347	0.05
863.633	0.05
863.919	0.04
864.205	0.02
864.491	0.04
864.777	0.06
865.063	0.03
865.349	0.06
865.635	0.07
865.92	0.07
866.206	0.05
866.492	0.04
866.777	0.07
867.062	0.04
867.348	0.06
867.633	0.05
867.918	0.07
868.203	0.05
868.488	0.06
868.773	0.02
869.058	0.04
869.343	0.04
869.628	0.05
869.912	-0
870.197	0.04
870.482	0.07
870.766	0.03
871.05	0.02
871.335	0.05
871.619	0.04
871.903	0.03
872.187	0.05
872.471	0.03
872.755	0.04
873.039	0.03
873.323	0.05
873.607	-0.01
873.89	0.01
874.174	-0.01
874.458	-0
874.741	-0
875.024	0.05
875.308	0.02
875.591	-0.07
875.874	0.01
876.157	0.04
876.44	-0.03
876.723	0.05
877.006	0.01
877.289	-0
877.572	0.07
877.854	0.09
878.137	0.05
878.42	0.01
878.702	0.02
878.984	0.01
879.267	-0
879.549	0.09
879.831	0.05
880.113	0.09
880.395	0.05
880.677	0.02
880.959	0.04
