Data from Rubpy_EV_1800_EDTA_Buffered_Absorbance_15-38-03-608.txt Node
Date: Tue Jun 30 15:38:03 BST 2026
User: fpm-admin
Spectrometer: OFX00224
Trigger mode: 0
Integration Time (sec): 7.000000E-2
Scans to average: 3
Nonlinearity correction enabled: false
Boxcar width: 0
Storing dark spectrum: false
XAxis mode: Wavelengths
Number of Pixels in Spectrum: 2136
>>>>>Begin Spectral Data<<<<<
154.91	-0
155.289	-0.55
155.669	-0
156.048	-0.75
156.428	-0.32
156.807	0.19
157.186	-0
157.566	0.21
157.945	-0.03
158.325	-0
158.704	-0
159.083	-0
159.462	-0.26
159.842	1
160.221	0.37
160.6	-0.26
160.979	-0.59
161.359	0.2
161.738	-0
162.117	-0
162.496	-0.17
162.875	-0.41
163.254	-0
163.633	-0
164.012	-0.26
164.391	0.05
164.77	-0
165.149	-0.17
165.528	0.51
165.907	-0.82
166.286	-0.09
166.665	0.51
167.044	-0.8
167.423	-0
167.802	-0
168.181	0.16
168.559	-0
168.938	-0.83
169.317	-0.51
169.696	1.06
170.074	-0.34
170.453	-0
170.832	0.3
171.21	-0
171.589	-0.52
171.968	-0
172.346	-0
172.725	-0.17
173.103	-0.22
173.482	-0.01
173.861	0.15
174.239	-0
174.617	-0
174.996	-0.39
175.374	-0
175.753	-0.29
176.131	-0
176.51	-0
176.888	-0
177.266	-0
177.645	-0.14
178.023	1.18
178.401	-0.28
178.779	0.19
179.158	-0
179.536	-0
179.914	-0.37
180.292	0.56
180.67	-0
181.048	-0
181.427	-0
181.805	-0.09
182.183	-0.32
182.561	-0
182.939	-0
183.317	-0.81
183.695	-0
184.073	-0.02
184.451	-0
184.829	0.12
185.206	-0
185.584	-0.01
185.962	-0
186.34	-0
186.718	-0
187.096	0.06
187.473	-0
187.851	-0
188.229	-0.17
188.607	0.08
188.984	0.18
189.362	0.14
189.74	0.14
190.117	0.13
190.495	0.16
190.872	0.04
191.25	0.09
191.627	0.11
192.005	0.05
192.382	0.1
192.76	0.04
193.137	0.13
193.515	0.06
193.892	0.27
194.269	0.19
194.647	0.11
195.024	0.21
195.401	0.19
195.779	0.02
196.156	0.1
196.533	0.1
196.91	0.22
197.288	0.21
197.665	0.23
198.042	0.2
198.419	0.21
198.796	0.08
199.173	0.13
199.55	0.16
199.927	0.13
200.304	0.11
200.681	0.18
201.058	0.2
201.435	0.12
201.812	0.17
202.189	0.11
202.566	0.09
202.943	0.17
203.32	0.18
203.697	0.15
204.073	0.18
204.45	0.16
204.827	0.2
205.204	0.14
205.58	0.15
205.957	0.1
206.334	0.13
206.71	0.18
207.087	0.12
207.464	0.11
207.84	0.23
208.217	0.25
208.593	0.14
208.97	0.09
209.346	0.12
209.723	0.09
210.099	0.05
210.476	0.19
210.852	0.13
211.228	0.1
211.605	0.16
211.981	0.17
212.357	0.09
212.733	0.13
213.11	0.13
213.486	0.12
213.862	0.14
214.238	0.15
214.614	0.16
214.991	0.1
215.367	0.12
215.743	0.26
216.119	0.05
216.495	0.23
216.871	0.15
217.247	0.19
217.623	0.09
217.999	0.18
218.375	0.06
218.751	0.08
219.127	0.19
219.502	0.1
219.878	0.05
220.254	0.2
220.63	0.21
221.006	0.16
221.381	0.12
221.757	0.12
222.133	0.13
222.508	0.2
222.884	0.22
223.26	0.18
223.635	0.18
224.011	0.25
224.386	0.18
224.762	0.1
225.137	0.15
225.513	0.1
225.888	0.17
226.264	0.16
226.639	0.17
227.014	0.3
227.39	0.15
227.765	0.14
228.14	0.1
228.516	0.29
228.891	0.23
229.266	0.1
229.641	0.14
230.017	0.19
230.392	0.2
230.767	0.22
231.142	0.08
231.517	0.11
231.892	0.13
232.267	0.14
232.642	0.1
233.017	0.12
233.392	0.16
233.767	0.18
234.142	0.13
234.517	0.14
234.892	0.14
235.267	0.18
235.641	0.21
236.016	0.19
236.391	0.08
236.766	0.17
237.14	0.14
237.515	0.14
237.89	0.13
238.264	0.11
238.639	0.16
239.014	0.2
239.388	0.1
239.763	0.15
240.137	0.11
240.512	0.14
240.886	0.1
241.261	0.17
241.635	0.2
242.009	0.14
242.384	0.2
242.758	0.2
243.132	0.2
243.507	0.09
243.881	0.12
244.255	0.16
244.629	0.08
245.004	0.2
245.378	0.16
245.752	0.16
246.126	0.19
246.5	0.2
246.874	0.13
247.248	0.15
247.622	0.15
247.996	0.13
248.37	0.07
248.744	0.11
249.118	0.09
249.492	0.14
249.866	0.17
250.24	0.09
250.613	0.1
250.987	0.17
251.361	0.15
251.735	0.17
252.108	0.14
252.482	0.14
252.856	0.13
253.229	0.14
253.603	0.12
253.977	0.27
254.35	0.23
254.724	0.14
255.097	0.16
255.471	0.17
255.844	0.2
256.218	0.2
256.591	0.11
256.964	0.13
257.338	0.09
257.711	0.14
258.084	0.1
258.458	0.2
258.831	0.19
259.204	0.17
259.577	0.2
259.95	0.16
260.323	0.16
260.697	0.1
261.07	0.19
261.443	0.22
261.816	0.16
262.189	0.21
262.562	0.16
262.935	0.16
263.308	0.14
263.68	0.17
264.053	0.27
264.426	0.2
264.799	0.09
265.172	0.22
265.545	0.2
265.917	0.2
266.29	0.23
266.663	0.21
267.035	0.25
267.408	0.2
267.781	0.14
268.153	0.13
268.526	0.23
268.898	0.21
269.271	0.23
269.643	0.19
270.016	0.11
270.388	0.2
270.76	0.17
271.133	0.18
271.505	0.24
271.877	0.16
272.25	0.12
272.622	0.17
272.994	0.19
273.366	0.15
273.739	0.22
274.111	0.17
274.483	0.15
274.855	0.21
275.227	0.16
275.599	0.19
275.971	0.21
276.343	0.19
276.715	0.21
277.087	0.23
277.459	0.22
277.831	0.21
278.203	0.25
278.574	0.24
278.946	0.26
279.318	0.16
279.69	0.17
280.061	0.25
280.433	0.23
280.805	0.17
281.176	0.1
281.548	0.24
281.92	0.17
282.291	0.15
282.663	0.25
283.034	0.17
283.406	0.2
283.777	0.18
284.148	0.25
284.52	0.14
284.891	0.16
285.262	0.19
285.634	0.26
286.005	0.2
286.376	0.18
286.747	0.17
287.119	0.18
287.49	0.23
287.861	0.14
288.232	0.21
288.603	0.18
288.974	0.21
289.345	0.15
289.716	0.23
290.087	0.18
290.458	0.22
290.829	0.17
291.2	0.17
291.571	0.22
291.941	0.2
292.312	0.22
292.683	0.25
293.054	0.16
293.424	0.21
293.795	0.23
294.166	0.23
294.536	0.24
294.907	0.27
295.277	0.21
295.648	0.15
296.018	0.15
296.389	0.14
296.759	0.19
297.13	0.18
297.5	0.21
297.871	0.17
298.241	0.21
298.611	0.18
298.981	0.2
299.352	0.28
299.722	0.2
300.092	0.19
300.462	0.28
300.832	0.23
301.202	0.18
301.573	0.17
301.943	0.19
302.313	0.15
302.683	0.17
303.053	0.17
303.422	0.17
303.792	0.17
304.162	0.18
304.532	0.19
304.902	0.15
305.272	0.18
305.641	0.18
306.011	0.16
306.381	0.2
306.75	0.19
307.12	0.19
307.49	0.2
307.859	0.2
308.229	0.19
308.598	0.19
308.968	0.2
309.337	0.2
309.707	0.19
310.076	0.2
310.445	0.21
310.815	0.21
311.184	0.22
311.553	0.21
311.923	0.22
312.292	0.22
312.661	0.22
313.03	0.22
313.399	0.22
313.768	0.22
314.137	0.22
314.506	0.22
314.875	0.22
315.244	0.22
315.613	0.21
315.982	0.22
316.351	0.21
316.72	0.21
317.089	0.21
317.458	0.21
317.826	0.21
318.195	0.21
318.564	0.2
318.933	0.2
319.301	0.2
319.67	0.2
320.038	0.19
320.407	0.2
320.775	0.2
321.144	0.2
321.512	0.19
321.881	0.19
322.249	0.19
322.618	0.19
322.986	0.19
323.354	0.19
323.723	0.19
324.091	0.18
324.459	0.18
324.827	0.18
325.195	0.18
325.564	0.17
325.932	0.18
326.3	0.18
326.668	0.18
327.036	0.18
327.404	0.17
327.772	0.17
328.14	0.18
328.508	0.17
328.875	0.18
329.243	0.18
329.611	0.17
329.979	0.17
330.346	0.18
330.714	0.18
331.082	0.18
331.449	0.18
331.817	0.18
332.185	0.19
332.552	0.19
332.92	0.19
333.287	0.19
333.655	0.19
334.022	0.2
334.389	0.2
334.757	0.2
335.124	0.21
335.491	0.21
335.859	0.21
336.226	0.21
336.593	0.21
336.96	0.21
337.327	0.21
337.695	0.22
338.062	0.22
338.429	0.22
338.796	0.23
339.163	0.23
339.53	0.23
339.897	0.24
340.263	0.24
340.63	0.25
340.997	0.25
341.364	0.26
341.731	0.26
342.097	0.26
342.464	0.26
342.831	0.27
343.197	0.28
343.564	0.28
343.931	0.28
344.297	0.29
344.664	0.29
345.03	0.3
345.396	0.3
345.763	0.3
346.129	0.31
346.496	0.31
346.862	0.32
347.228	0.32
347.594	0.33
347.961	0.33
348.327	0.33
348.693	0.34
349.059	0.35
349.425	0.36
349.791	0.36
350.157	0.37
350.523	0.37
350.889	0.38
351.255	0.39
351.621	0.39
351.987	0.4
352.353	0.41
352.719	0.41
353.084	0.42
353.45	0.43
353.816	0.44
354.181	0.45
354.547	0.45
354.913	0.47
355.278	0.48
355.644	0.48
356.009	0.49
356.375	0.5
356.74	0.51
357.106	0.52
357.471	0.54
357.836	0.55
358.202	0.56
358.567	0.57
358.932	0.58
359.297	0.59
359.663	0.6
360.028	0.6
360.393	0.61
360.758	0.62
361.123	0.62
361.488	0.63
361.853	0.63
362.218	0.65
362.583	0.66
362.948	0.66
363.312	0.68
363.677	0.68
364.042	0.69
364.407	0.7
364.772	0.71
365.136	0.73
365.501	0.74
365.865	0.75
366.23	0.76
366.595	0.78
366.959	0.79
367.324	0.8
367.688	0.82
368.052	0.83
368.417	0.85
368.781	0.86
369.145	0.87
369.51	0.87
369.874	0.87
370.238	0.88
370.602	0.88
370.967	0.87
371.331	0.87
371.695	0.86
372.059	0.87
372.423	0.85
372.787	0.86
373.151	0.85
373.515	0.85
373.878	0.85
374.242	0.85
374.606	0.85
374.97	0.85
375.334	0.85
375.697	0.84
376.061	0.85
376.425	0.86
376.788	0.85
377.152	0.86
377.515	0.87
377.879	0.89
378.242	0.89
378.606	0.9
378.969	0.91
379.333	0.92
379.696	0.93
380.059	0.95
380.422	0.94
380.786	0.97
381.149	0.99
381.512	1.02
381.875	1.03
382.238	1.04
382.601	1.07
382.964	1.1
383.327	1.12
383.69	1.14
384.053	1.18
384.416	1.21
384.779	1.22
385.142	1.25
385.504	1.25
385.867	1.29
386.23	1.29
386.593	1.31
386.955	1.31
387.318	1.31
387.68	1.31
388.043	1.29
388.405	1.31
388.768	1.28
389.13	1.28
389.493	1.26
389.855	1.26
390.217	1.27
390.58	1.26
390.942	1.25
391.304	1.26
391.666	1.27
392.028	1.31
392.391	1.31
392.753	1.35
393.115	1.38
393.477	1.42
393.839	1.47
394.201	1.51
394.563	1.57
394.924	1.61
395.286	1.64
395.648	1.7
396.01	1.72
396.371	1.74
396.733	1.76
397.095	1.79
397.456	1.8
397.818	1.8
398.18	1.82
398.541	1.77
398.903	1.72
399.264	1.7
399.625	1.69
399.987	1.64
400.348	1.59
400.709	1.54
401.071	1.46
401.432	1.4
401.793	1.3
402.154	1.23
402.515	1.15
402.876	1.09
403.238	1.01
403.599	0.95
403.96	0.88
404.32	0.81
404.681	0.76
405.042	0.7
405.403	0.66
405.764	0.61
406.125	0.56
406.485	0.53
406.846	0.5
407.207	0.46
407.567	0.44
407.928	0.41
408.288	0.39
408.649	0.37
409.009	0.35
409.37	0.33
409.73	0.32
410.091	0.3
410.451	0.29
410.811	0.28
411.171	0.26
411.532	0.25
411.892	0.24
412.252	0.23
412.612	0.22
412.972	0.21
413.332	0.2
413.692	0.2
414.052	0.19
414.412	0.19
414.772	0.18
415.132	0.17
415.492	0.17
415.851	0.16
416.211	0.15
416.571	0.16
416.931	0.14
417.29	0.15
417.65	0.14
418.009	0.14
418.369	0.13
418.728	0.14
419.088	0.13
419.447	0.13
419.807	0.11
420.166	0.12
420.525	0.12
420.884	0.11
421.244	0.11
421.603	0.11
421.962	0.12
422.321	0.11
422.68	0.12
423.039	0.11
423.398	0.1
423.757	0.11
424.116	0.1
424.475	0.1
424.834	0.1
425.193	0.1
425.551	0.09
425.91	0.09
426.269	0.09
426.628	0.09
426.986	0.09
427.345	0.09
427.703	0.09
428.062	0.09
428.42	0.09
428.779	0.09
429.137	0.09
429.496	0.08
429.854	0.09
430.212	0.08
430.57	0.08
430.929	0.08
431.287	0.08
431.645	0.08
432.003	0.07
432.361	0.08
432.719	0.08
433.077	0.08
433.435	0.08
433.793	0.08
434.151	0.08
434.509	0.07
434.866	0.07
435.224	0.08
435.582	0.07
435.94	0.07
436.297	0.08
436.655	0.08
437.012	0.07
437.37	0.07
437.727	0.07
438.085	0.07
438.442	0.06
438.8	0.06
439.157	0.06
439.514	0.08
439.872	0.07
440.229	0.07
440.586	0.06
440.943	0.06
441.3	0.07
441.657	0.06
442.014	0.06
442.371	0.06
442.728	0.06
443.085	0.05
443.442	0.06
443.799	0.05
444.156	0.05
444.513	0.06
444.869	0.06
445.226	0.05
445.583	0.06
445.939	0.06
446.296	0.05
446.652	0.04
447.009	0.05
447.365	0.05
447.722	0.05
448.078	0.05
448.434	0.04
448.791	0.05
449.147	0.05
449.503	0.05
449.859	0.05
450.215	0.05
450.571	0.04
450.928	0.04
451.284	0.04
451.64	0.04
451.995	0.04
452.351	0.04
452.707	0.04
453.063	0.04
453.419	0.04
453.775	0.04
454.13	0.03
454.486	0.04
454.842	0.03
455.197	0.03
455.553	0.03
455.908	0.03
456.264	0.02
456.619	0.02
456.975	0.02
457.33	0.02
457.685	0.02
458.04	0.01
458.396	0.01
458.751	0.02
459.106	0.01
459.461	0.01
459.816	0.01
460.171	0
460.526	0.01
460.881	-0.01
461.236	0
461.591	-0
461.946	-0.01
462.301	-0.01
462.655	-0.01
463.01	-0.01
463.365	-0.01
463.719	-0.02
464.074	-0.02
464.428	-0.02
464.783	-0.02
465.137	-0.02
465.492	-0.02
465.846	-0.03
466.201	-0.02
466.555	-0.03
466.909	-0.02
467.263	-0.03
467.618	-0.01
467.972	-0.01
468.326	-0.02
468.68	-0.03
469.034	-0.03
469.388	-0.02
469.742	-0.02
470.096	-0.02
470.45	-0.03
470.804	-0.02
471.157	-0.02
471.511	-0.03
471.865	-0.02
472.218	-0.02
472.572	-0.01
472.926	-0.02
473.279	-0.02
473.633	-0.01
473.986	-0.01
474.34	-0
474.693	0
475.046	0
475.4	0.01
475.753	0.02
476.106	0.02
476.459	0.01
476.812	0.02
477.165	0.03
477.519	0.03
477.872	0.03
478.224	0.03
478.577	0.04
478.93	0.04
479.283	0.04
479.636	0.04
479.989	0.05
480.341	0.05
480.694	0.05
481.047	0.05
481.399	0.06
481.752	0.06
482.104	0.06
482.457	0.06
482.809	0.07
483.162	0.06
483.514	0.07
483.866	0.07
484.219	0.07
484.571	0.07
484.923	0.07
485.275	0.08
485.627	0.08
485.979	0.08
486.331	0.09
486.683	0.08
487.035	0.09
487.387	0.09
487.739	0.09
488.091	0.09
488.443	0.09
488.794	0.1
489.146	0.09
489.498	0.09
489.849	0.1
490.201	0.09
490.552	0.1
490.904	0.1
491.255	0.11
491.607	0.11
491.958	0.11
492.309	0.11
492.661	0.11
493.012	0.11
493.363	0.11
493.714	0.12
494.065	0.12
494.416	0.12
494.767	0.12
495.118	0.13
495.469	0.12
495.82	0.13
496.171	0.13
496.522	0.13
496.872	0.13
497.223	0.13
497.574	0.13
497.924	0.14
498.275	0.13
498.626	0.14
498.976	0.14
499.327	0.15
499.677	0.14
500.027	0.14
500.378	0.15
500.728	0.15
501.078	0.15
501.428	0.15
501.779	0.15
502.129	0.16
502.479	0.15
502.829	0.16
503.179	0.15
503.529	0.16
503.879	0.16
504.229	0.17
504.578	0.17
504.928	0.17
505.278	0.17
505.628	0.17
505.977	0.17
506.327	0.18
506.676	0.18
507.026	0.18
507.375	0.19
507.725	0.19
508.074	0.18
508.424	0.19
508.773	0.19
509.122	0.19
509.471	0.19
509.82	0.2
510.17	0.2
510.519	0.2
510.868	0.2
511.217	0.2
511.566	0.2
511.915	0.2
512.263	0.2
512.612	0.21
512.961	0.21
513.31	0.21
513.659	0.22
514.007	0.21
514.356	0.21
514.704	0.22
515.053	0.22
515.401	0.22
515.75	0.23
516.098	0.22
516.447	0.23
516.795	0.23
517.143	0.23
517.491	0.23
517.839	0.23
518.188	0.24
518.536	0.24
518.884	0.24
519.232	0.24
519.58	0.25
519.928	0.25
520.275	0.25
520.623	0.25
520.971	0.25
521.319	0.26
521.666	0.26
522.014	0.26
522.362	0.26
522.709	0.26
523.057	0.26
523.404	0.26
523.752	0.27
524.099	0.27
524.446	0.27
524.794	0.27
525.141	0.28
525.488	0.28
525.835	0.28
526.182	0.28
526.529	0.28
526.876	0.28
527.223	0.28
527.57	0.29
527.917	0.29
528.264	0.29
528.611	0.29
528.958	0.29
529.304	0.3
529.651	0.3
529.998	0.3
530.344	0.3
530.691	0.3
531.037	0.31
531.384	0.32
531.73	0.31
532.076	0.32
532.423	0.31
532.769	0.32
533.115	0.32
533.461	0.32
533.807	0.33
534.154	0.33
534.5	0.33
534.846	0.33
535.192	0.34
535.537	0.33
535.883	0.34
536.229	0.34
536.575	0.35
536.921	0.34
537.266	0.35
537.612	0.35
537.957	0.35
538.303	0.36
538.649	0.36
538.994	0.36
539.339	0.36
539.685	0.37
540.03	0.37
540.375	0.37
540.721	0.37
541.066	0.38
541.411	0.38
541.756	0.38
542.101	0.38
542.446	0.38
542.791	0.39
543.136	0.39
543.481	0.39
543.825	0.4
544.17	0.41
544.515	0.4
544.86	0.4
545.204	0.41
545.549	0.41
545.893	0.41
546.238	0.42
546.582	0.42
546.927	0.42
547.271	0.43
547.615	0.43
547.96	0.43
548.304	0.43
548.648	0.44
548.992	0.44
549.336	0.44
549.68	0.44
550.024	0.45
550.368	0.45
550.712	0.45
551.056	0.45
551.4	0.45
551.743	0.45
552.087	0.46
552.431	0.46
552.774	0.46
553.118	0.46
553.462	0.46
553.805	0.47
554.148	0.46
554.492	0.47
554.835	0.47
555.178	0.47
555.522	0.47
555.865	0.48
556.208	0.48
556.551	0.48
556.894	0.48
557.237	0.48
557.58	0.48
557.923	0.48
558.266	0.49
558.609	0.48
558.952	0.49
559.294	0.49
559.637	0.49
559.98	0.49
560.322	0.49
560.665	0.5
561.007	0.49
561.35	0.49
561.692	0.5
562.034	0.5
562.377	0.5
562.719	0.5
563.061	0.5
563.403	0.5
563.745	0.5
564.088	0.5
564.43	0.51
564.772	0.51
565.113	0.51
565.455	0.51
565.797	0.51
566.139	0.51
566.481	0.51
566.822	0.52
567.164	0.52
567.506	0.52
567.847	0.52
568.189	0.52
568.53	0.52
568.872	0.52
569.213	0.52
569.554	0.52
569.895	0.52
570.237	0.52
570.578	0.52
570.919	0.52
571.26	0.52
571.601	0.52
571.942	0.52
572.283	0.52
572.624	0.52
572.965	0.52
573.306	0.52
573.646	0.52
573.987	0.52
574.328	0.52
574.668	0.52
575.009	0.52
575.349	0.52
575.69	0.52
576.03	0.52
576.37	0.51
576.711	0.51
577.051	0.51
577.391	0.51
577.731	0.52
578.072	0.52
578.412	0.52
578.752	0.52
579.092	0.52
579.431	0.51
579.771	0.49
580.111	0.47
580.451	0.47
580.791	0.5
581.13	0.52
581.47	0.52
581.81	0.53
582.149	0.52
582.489	0.53
582.828	0.53
583.167	0.5
583.507	0.46
583.846	0.44
584.185	0.45
584.525	0.47
584.864	0.5
585.203	0.53
585.542	0.54
585.881	0.54
586.22	0.55
586.559	0.54
586.898	0.53
587.236	0.52
587.575	0.51
587.914	0.51
588.252	0.54
588.591	0.55
588.93	0.56
589.268	0.55
589.607	0.55
589.945	0.55
590.283	0.56
590.622	0.56
590.96	0.57
591.298	0.57
591.636	0.58
591.974	0.58
592.313	0.58
592.651	0.59
592.989	0.59
593.326	0.59
593.664	0.6
594.002	0.6
594.34	0.59
594.678	0.6
595.015	0.59
595.353	0.58
595.691	0.58
596.028	0.6
596.366	0.6
596.703	0.61
597.04	0.61
597.378	0.62
597.715	0.62
598.052	0.62
598.389	0.62
598.726	0.63
599.064	0.63
599.401	0.63
599.738	0.63
600.074	0.63
600.411	0.64
600.748	0.63
601.085	0.63
601.422	0.62
601.758	0.62
602.095	0.63
602.432	0.63
602.768	0.62
603.105	0.64
603.441	0.64
603.777	0.64
604.114	0.64
604.45	0.64
604.786	0.64
605.122	0.64
605.459	0.64
605.795	0.64
606.131	0.64
606.467	0.63
606.803	0.63
607.139	0.64
607.474	0.64
607.81	0.63
608.146	0.63
608.482	0.63
608.817	0.63
609.153	0.62
609.488	0.62
609.824	0.62
610.159	0.62
610.495	0.62
610.83	0.62
611.165	0.62
611.5	0.62
611.836	0.62
612.171	0.62
612.506	0.62
612.841	0.62
613.176	0.62
613.511	0.62
613.845	0.62
614.18	0.61
614.515	0.62
614.85	0.61
615.184	0.61
615.519	0.61
615.854	0.61
616.188	0.6
616.523	0.6
616.857	0.6
617.191	0.6
617.526	0.59
617.86	0.59
618.194	0.59
618.528	0.59
618.862	0.59
619.196	0.59
619.53	0.59
619.864	0.58
620.198	0.58
620.532	0.58
620.866	0.58
621.2	0.58
621.533	0.57
621.867	0.58
622.201	0.57
622.534	0.57
622.868	0.57
623.201	0.57
623.534	0.56
623.868	0.56
624.201	0.56
624.534	0.56
624.868	0.56
625.201	0.55
625.534	0.55
625.867	0.55
626.2	0.55
626.533	0.55
626.865	0.54
627.198	0.54
627.531	0.54
627.864	0.53
628.196	0.53
628.529	0.53
628.862	0.52
629.194	0.52
629.527	0.52
629.859	0.52
630.191	0.51
630.524	0.52
630.856	0.51
631.188	0.5
631.52	0.5
631.852	0.5
632.184	0.5
632.516	0.5
632.848	0.49
633.18	0.49
633.512	0.49
633.844	0.48
634.175	0.48
634.507	0.48
634.839	0.47
635.17	0.47
635.502	0.46
635.833	0.46
636.165	0.45
636.496	0.45
636.827	0.45
637.159	0.44
637.49	0.44
637.821	0.44
638.152	0.43
638.483	0.43
638.814	0.43
639.145	0.42
639.476	0.42
639.807	0.42
640.137	0.41
640.468	0.41
640.799	0.41
641.129	0.4
641.46	0.4
641.791	0.39
642.121	0.4
642.451	0.39
642.782	0.39
643.112	0.38
643.442	0.38
643.773	0.38
644.103	0.38
644.433	0.38
644.763	0.37
645.093	0.37
645.423	0.37
645.753	0.37
646.082	0.37
646.412	0.36
646.742	0.36
647.072	0.36
647.401	0.36
647.731	0.36
648.06	0.35
648.39	0.35
648.719	0.35
649.048	0.35
649.378	0.35
649.707	0.35
650.036	0.35
650.365	0.35
650.694	0.34
651.023	0.34
651.352	0.34
651.681	0.34
652.01	0.34
652.339	0.34
652.668	0.34
652.996	0.34
653.325	0.34
653.654	0.33
653.982	0.34
654.311	0.34
654.639	0.34
654.967	0.34
655.296	0.34
655.624	0.34
655.952	0.33
656.28	0.34
656.609	0.33
656.937	0.34
657.265	0.33
657.593	0.28
657.92	0.14
658.248	0.08
658.576	0.06
658.904	0.13
659.231	0.22
659.559	0.29
659.887	0.32
660.214	0.33
660.542	0.33
660.869	0.33
661.196	0.33
661.524	0.33
661.851	0.33
662.178	0.33
662.505	0.33
662.832	0.33
663.159	0.33
663.486	0.33
663.813	0.33
664.14	0.33
664.467	0.33
664.794	0.32
665.12	0.32
665.447	0.32
665.774	0.32
666.1	0.31
666.427	0.31
666.753	0.32
667.079	0.31
667.406	0.31
667.732	0.31
668.058	0.31
668.384	0.31
668.71	0.31
669.036	0.31
669.362	0.31
669.688	0.31
670.014	0.31
670.34	0.31
670.666	0.31
670.991	0.31
671.317	0.31
671.643	0.3
671.968	0.31
672.294	0.3
672.619	0.31
672.945	0.3
673.27	0.3
673.595	0.3
673.92	0.29
674.246	0.29
674.571	0.29
674.896	0.28
675.221	0.29
675.546	0.28
675.87	0.28
676.195	0.28
676.52	0.28
676.845	0.28
677.169	0.28
677.494	0.27
677.819	0.27
678.143	0.26
678.468	0.26
678.792	0.26
679.116	0.26
679.44	0.26
679.765	0.26
680.089	0.25
680.413	0.25
680.737	0.25
681.061	0.24
681.385	0.24
681.709	0.24
682.033	0.24
682.356	0.24
682.68	0.24
683.004	0.24
683.327	0.23
683.651	0.22
683.974	0.22
684.298	0.23
684.621	0.22
684.944	0.22
685.268	0.21
685.591	0.21
685.914	0.21
686.237	0.21
686.56	0.2
686.883	0.2
687.206	0.19
687.529	0.19
687.852	0.18
688.175	0.19
688.497	0.19
688.82	0.19
689.142	0.19
689.465	0.18
689.787	0.18
690.11	0.18
690.432	0.18
690.755	0.18
691.077	0.17
691.399	0.17
691.721	0.17
692.043	0.16
692.365	0.16
692.687	0.16
693.009	0.16
693.331	0.15
693.653	0.15
693.974	0.15
694.296	0.15
694.618	0.15
694.939	0.15
695.261	0.14
695.582	0.14
695.904	0.14
696.225	0.15
696.546	0.15
696.868	0.14
697.189	0.14
697.51	0.14
697.831	0.13
698.152	0.13
698.473	0.13
698.794	0.12
699.114	0.12
699.435	0.1
699.756	0.11
700.077	0.11
700.397	0.12
700.718	0.12
701.038	0.12
701.359	0.12
701.679	0.12
701.999	0.12
702.32	0.12
702.64	0.12
702.96	0.11
703.28	0.12
703.6	0.11
703.92	0.11
704.24	0.11
704.56	0.1
704.879	0.1
705.199	0.1
705.519	0.1
705.838	0.1
706.158	0.1
706.478	0.1
706.797	0.1
707.116	0.1
707.436	0.1
707.755	0.11
708.074	0.1
708.393	0.1
708.712	0.09
709.031	0.08
709.35	0.08
709.669	0.07
709.988	0.08
710.307	0.08
710.626	0.08
710.944	0.09
711.263	0.09
711.582	0.09
711.9	0.09
712.219	0.09
712.537	0.09
712.855	0.09
713.174	0.09
713.492	0.09
713.81	0.09
714.128	0.09
714.446	0.09
714.764	0.09
715.082	0.08
715.4	0.08
715.718	0.08
716.035	0.08
716.353	0.08
716.671	0.08
716.988	0.08
717.306	0.08
717.623	0.09
717.941	0.09
718.258	0.09
718.575	0.1
718.893	0.1
719.21	0.1
719.527	0.1
719.844	0.1
720.161	0.1
720.478	0.1
720.795	0.1
721.112	0.1
721.428	0.1
721.745	0.1
722.062	0.11
722.378	0.11
722.695	0.11
723.011	0.11
723.328	0.1
723.644	0.11
723.96	0.11
724.276	0.11
724.593	0.11
724.909	0.11
725.225	0.11
725.541	0.11
725.857	0.11
726.173	0.11
726.488	0.12
726.804	0.11
727.12	0.11
727.435	0.11
727.751	0.11
728.067	0.11
728.382	0.11
728.697	0.11
729.013	0.11
729.328	0.11
729.643	0.11
729.958	0.11
730.273	0.11
730.588	0.11
730.903	0.11
731.218	0.11
731.533	0.11
731.848	0.11
732.163	0.11
732.477	0.11
732.792	0.11
733.107	0.1
733.421	0.1
733.736	0.1
734.05	0.1
734.364	0.1
734.678	0.11
734.993	0.11
735.307	0.11
735.621	0.11
735.935	0.11
736.249	0.1
736.563	0.11
736.877	0.11
737.19	0.11
737.504	0.11
737.818	0.11
738.131	0.11
738.445	0.11
738.758	0.11
739.072	0.11
739.385	0.11
739.698	0.1
740.012	0.1
740.325	0.1
740.638	0.1
740.951	0.1
741.264	0.1
741.577	0.1
741.89	0.1
742.203	0.1
742.515	0.1
742.828	0.1
743.141	0.1
743.453	0.1
743.766	0.1
744.078	0.1
744.391	0.1
744.703	0.1
745.015	0.1
745.327	0.1
745.639	0.09
745.952	0.09
746.264	0.09
746.575	0.09
746.887	0.09
747.199	0.1
747.511	0.1
747.823	0.09
748.134	0.09
748.446	0.09
748.757	0.09
749.069	0.08
749.38	0.08
749.692	0.09
750.003	0.08
750.314	0.08
750.625	0.08
750.936	0.08
751.248	0.07
751.559	0.07
751.869	0.07
752.18	0.07
752.491	0.07
752.802	0.07
753.112	0.07
753.423	0.07
753.734	0.07
754.044	0.07
754.355	0.07
754.665	0.07
754.975	0.07
755.285	0.07
755.596	0.06
755.906	0.06
756.216	0.06
756.526	0.06
756.836	0.06
757.146	0.06
757.455	0.06
757.765	0.06
758.075	0.06
758.385	0.06
758.694	0.06
759.004	0.06
759.313	0.05
759.622	0.05
759.932	0.05
760.241	0.05
760.55	0.05
760.859	0.04
761.168	0.04
761.477	0.04
761.786	0.04
762.095	0.04
762.404	0.04
762.713	0.04
763.021	0.04
763.33	0.04
763.639	0.04
763.947	0.04
764.256	0.04
764.564	0.04
764.872	0.04
765.181	0.03
765.489	0.04
765.797	0.04
766.105	0.04
766.413	0.03
766.721	0.03
767.029	0.03
767.337	0.03
767.644	0.03
767.952	0.03
768.26	0.03
768.567	0.04
768.875	0.04
769.182	0.04
769.49	0.04
769.797	0.04
770.104	0.03
770.411	0.04
770.718	0.03
771.026	0.04
771.333	0.04
771.639	0.03
771.946	0.03
772.253	0.03
772.56	0.03
772.867	0.03
773.173	0.03
773.48	0.03
773.786	0.03
774.093	0.03
774.399	0.02
774.705	0.02
775.012	0.02
775.318	0.02
775.624	0.02
775.93	0.02
776.236	0.02
776.542	0.02
776.848	0.02
777.154	0.03
777.459	0.02
777.765	0.03
778.071	0.03
778.376	0.03
778.682	0.03
778.987	0.03
779.292	0.03
779.598	0.03
779.903	0.03
780.208	0.03
780.513	0.03
780.818	0.03
781.123	0.03
781.428	0.03
781.733	0.03
782.038	0.03
782.343	0.03
782.647	0.03
782.952	0.03
783.256	0.03
783.561	0.03
783.865	0.03
784.17	0.03
784.474	0.03
784.778	0.03
785.082	0.03
785.386	0.03
785.69	0.03
785.994	0.02
786.298	0.03
786.602	0.03
786.906	0.03
787.209	0.03
787.513	0.03
787.817	0.03
788.12	0.03
788.424	0.03
788.727	0.03
789.03	0.03
789.333	0.03
789.637	0.03
789.94	0.03
790.243	0.03
790.546	0.03
790.849	0.03
791.152	0.03
791.454	0.03
791.757	0.03
792.06	0.03
792.362	0.03
792.665	0.03
792.967	0.02
793.27	0.03
793.572	0.03
793.874	0.03
794.177	0.03
794.479	0.03
794.781	0.03
795.083	0.03
795.385	0.02
795.687	0.02
795.989	0.03
796.29	0.03
796.592	0.03
796.894	0.03
797.195	0.03
797.497	0.03
797.798	0.03
798.1	0.03
798.401	0.03
798.702	0.04
799.003	0.03
799.304	0.04
799.605	0.03
799.906	0.03
800.207	0.03
800.508	0.03
800.809	0.03
801.11	0.03
801.41	0.02
801.711	0.02
802.011	0.02
802.312	0.02
802.612	0.02
802.913	0.02
803.213	0.02
803.513	0.02
803.813	0.03
804.113	0.03
804.413	0.03
804.713	0.03
805.013	0.03
805.313	0.03
805.613	0.03
805.912	0.03
806.212	0.03
806.511	0.03
806.811	0.03
807.11	0.03
807.41	0.03
807.709	0.04
808.008	0.03
808.307	0.03
808.606	0.04
808.905	0.03
809.204	0.03
809.503	0.03
809.802	0.03
810.101	0.03
810.399	0.03
810.698	0.03
810.997	0.04
811.295	0.04
811.593	0.03
811.892	0.03
812.19	0.03
812.488	0.03
812.786	0.04
813.084	0.04
813.383	0.04
813.68	0.04
813.978	0.05
814.276	0.05
814.574	0.04
814.872	0.04
815.169	0.03
815.467	0.04
815.764	0.04
816.062	0.03
816.359	0.04
816.656	0.03
816.954	0.04
817.251	0.04
817.548	0.04
817.845	0.05
818.142	0.05
818.439	0.05
818.735	0.05
819.032	0.04
819.329	0.04
819.626	0.04
819.922	0.04
820.219	0.04
820.515	0.04
820.811	0.04
821.108	0.04
821.404	0.04
821.7	0.03
821.996	0.04
822.292	0.03
822.588	0.04
822.884	0.04
823.18	0.04
823.475	0.04
823.771	0.04
824.067	0.04
824.362	0.04
824.658	0.05
824.953	0.05
825.249	0.05
825.544	0.04
825.839	0.04
826.134	0.05
826.429	0.05
826.724	0.05
827.019	0.05
827.314	0.05
827.609	0.04
827.904	0.03
828.198	0.04
828.493	0.04
828.787	0.04
829.082	0.04
829.376	0.04
829.671	0.04
829.965	0.03
830.259	0.04
830.553	0.05
830.847	0.05
831.141	0.05
831.435	0.05
831.729	0.05
832.023	0.06
832.317	0.05
832.61	0.06
832.904	0.05
833.197	0.05
833.491	0.05
833.784	0.05
834.077	0.05
834.371	0.06
834.664	0.04
834.957	0.05
835.25	0.05
835.543	0.05
835.836	0.05
836.129	0.05
836.421	0.05
836.714	0.05
837.007	0.05
837.299	0.05
837.592	0.05
837.884	0.05
838.177	0.05
838.469	0.04
838.761	0.04
839.053	0.04
839.345	0.05
839.637	0.05
839.929	0.05
840.221	0.06
840.513	0.05
840.805	0.06
841.096	0.05
841.388	0.06
841.68	0.06
841.971	0.05
842.262	0.06
842.554	0.06
842.845	0.06
843.136	0.07
843.427	0.06
843.718	0.05
844.009	0.05
844.3	0.05
844.591	0.05
844.882	0.05
845.173	0.06
845.463	0.06
845.754	0.05
846.044	0.06
846.335	0.05
846.625	0.05
846.915	0.05
847.206	0.06
847.496	0.07
847.786	0.05
848.076	0.05
848.366	0.06
848.656	0.05
848.945	0.05
849.235	0.06
849.525	0.06
849.814	0.06
850.104	0.05
850.393	0.05
850.683	0.05
850.972	0.04
851.261	0.05
851.551	0.05
851.84	0.05
852.129	0.05
852.418	0.06
852.707	0.05
852.995	0.05
853.284	0.06
853.573	0.05
853.862	0.05
854.15	0.05
854.439	0.06
854.727	0.05
855.015	0.05
855.304	0.06
855.592	0.05
855.88	0.05
856.168	0.05
856.456	0.05
856.744	0.06
857.032	0.05
857.32	0.06
857.607	0.06
857.895	0.05
858.183	0.07
858.47	0.04
858.757	0.05
859.045	0.06
859.332	0.04
859.619	0.05
859.907	0.06
860.194	0.05
860.481	0.07
860.768	0.07
861.054	0.06
861.341	0.07
861.628	0.07
861.915	0.05
862.201	0.06
862.488	0.06
862.774	0.05
863.061	0.05
863.347	0.03
863.633	0.05
863.919	0.05
864.205	0.05
864.491	0.03
864.777	0.03
865.063	0.04
865.349	0.05
865.635	0.06
865.92	0.05
866.206	0.04
866.492	0.05
866.777	0.05
867.062	0.06
867.348	0.06
867.633	0.04
867.918	0
868.203	0.04
868.488	0.03
868.773	0.05
869.058	0.05
869.343	0
869.628	0.03
869.912	-0.01
870.197	0.05
870.482	0.04
870.766	0.03
871.05	0.01
871.335	0.04
871.619	0.02
871.903	-0.02
872.187	0.03
872.471	0.04
872.755	0.03
873.039	0.04
873.323	0.03
873.607	0.02
873.89	0.03
874.174	-0
874.458	0.01
874.741	0.01
875.024	0.02
875.308	0.03
875.591	-0
875.874	-0.01
876.157	-0.02
876.44	-0.02
876.723	-0.01
877.006	-0.01
877.289	-0.04
877.572	0.01
877.854	0.05
878.137	0.01
878.42	0.02
878.702	0.01
878.984	-0.03
879.267	-0.02
879.549	0.01
879.831	0.03
880.113	0.08
880.395	0.03
880.677	-0.01
880.959	-0.02
