Data from Rubpy_EV_1800_EDTA_Buffered_Absorbance_15-42-31-747.txt Node
Date: Tue Jun 30 15:42:31 BST 2026
User: fpm-admin
Spectrometer: OFX00224
Trigger mode: 0
Integration Time (sec): 7.000000E-2
Scans to average: 3
Nonlinearity correction enabled: false
Boxcar width: 0
Storing dark spectrum: false
XAxis mode: Wavelengths
Number of Pixels in Spectrum: 2136
>>>>>Begin Spectral Data<<<<<
154.91	-0
155.289	-0.27
155.669	-0.33
156.048	-0.07
156.428	-0.32
156.807	-0.33
157.186	0.1
157.566	-0.09
157.945	0.35
158.325	-0
158.704	-0
159.083	-0.53
159.462	-0
159.842	-0.49
160.221	0.05
160.6	-0.11
160.979	-0.51
161.359	0.6
161.738	-0.27
162.117	0.27
162.496	-0.17
162.875	0.16
163.254	-0
163.633	-0
164.012	-0.22
164.391	0.73
164.77	-0
165.149	-0.15
165.528	0.73
165.907	-0.78
166.286	0.09
166.665	-0.06
167.044	-0.9
167.423	-0
167.802	0.24
168.181	0.35
168.559	-0
168.938	-0.78
169.317	-0
169.696	-0
170.074	-0
170.453	-0.24
170.832	0.3
171.21	-0
171.589	-0.46
171.968	-0
172.346	-0.48
172.725	-0.07
173.103	0.06
173.482	-0.15
173.861	0.06
174.239	-0
174.617	1.46
174.996	-0.47
175.374	-0.1
175.753	0.48
176.131	1.34
176.51	-0
176.888	-0
177.266	-0
177.645	-0.14
178.023	0.69
178.401	-0.28
178.779	0.39
179.158	-0
179.536	0.41
179.914	-0
180.292	-0
180.67	-0
181.048	-0
181.427	1.04
181.805	-0.1
182.183	0.06
182.561	0.6
182.939	-0
183.317	-0.4
183.695	-0
184.073	0.06
184.451	0.68
184.829	0.32
185.206	-0.97
185.584	-0.19
185.962	-0.67
186.34	-0
186.718	-0
187.096	-0.05
187.473	-0
187.851	-0
188.229	0.06
188.607	0.17
188.984	0.14
189.362	0.13
189.74	0.13
190.117	0.18
190.495	0.2
190.872	0.13
191.25	0.15
191.627	0.06
192.005	0.11
192.382	0.05
192.76	0.12
193.137	0.12
193.515	0.03
193.892	0.22
194.269	0.12
194.647	0.11
195.024	0.12
195.401	0.24
195.779	0.12
196.156	0.16
196.533	0.16
196.91	0.31
197.288	0.16
197.665	0.2
198.042	0.16
198.419	0.17
198.796	0.22
199.173	0.28
199.55	0.14
199.927	0.16
200.304	0.21
200.681	0.07
201.058	0.1
201.435	0.2
201.812	0.21
202.189	0.17
202.566	0.13
202.943	0.14
203.32	0.13
203.697	0.15
204.073	0.17
204.45	0.14
204.827	0.14
205.204	0.13
205.58	0.12
205.957	0.07
206.334	0.25
206.71	0.2
207.087	0.19
207.464	0.06
207.84	0.18
208.217	0.13
208.593	0.19
208.97	0.12
209.346	0.21
209.723	0.12
210.099	0.06
210.476	0.19
210.852	0.12
211.228	0.13
211.605	0.13
211.981	0.15
212.357	0.13
212.733	0.22
213.11	0.23
213.486	0.22
213.862	0.1
214.238	0.22
214.614	0.12
214.991	0.17
215.367	0.09
215.743	0.23
216.119	0.11
216.495	0.15
216.871	0.26
217.247	0.19
217.623	0.13
217.999	0.27
218.375	0.11
218.751	0.13
219.127	0.17
219.502	0.08
219.878	0.12
220.254	0.21
220.63	0.22
221.006	0.18
221.381	0.21
221.757	0.16
222.133	0.21
222.508	0.15
222.884	0.25
223.26	0.17
223.635	0.19
224.011	0.16
224.386	0.21
224.762	0.21
225.137	0.19
225.513	0.22
225.888	0.25
226.264	0.16
226.639	0.23
227.014	0.2
227.39	0.16
227.765	0.23
228.14	0.15
228.516	0.29
228.891	0.21
229.266	0.13
229.641	0.3
230.017	0.25
230.392	0.3
230.767	0.19
231.142	0.21
231.517	0.14
231.892	0.17
232.267	0.24
232.642	0.23
233.017	0.25
233.392	0.31
233.767	0.21
234.142	0.18
234.517	0.19
234.892	0.27
235.267	0.26
235.641	0.29
236.016	0.13
236.391	0.16
236.766	0.2
237.14	0.2
237.515	0.13
237.89	0.24
238.264	0.23
238.639	0.19
239.014	0.12
239.388	0.16
239.763	0.17
240.137	0.2
240.512	0.16
240.886	0.23
241.261	0.17
241.635	0.3
242.009	0.13
242.384	0.19
242.758	0.3
243.132	0.17
243.507	0.21
243.881	0.14
244.255	0.25
244.629	0.2
245.004	0.13
245.378	0.16
245.752	0.16
246.126	0.12
246.5	0.14
246.874	0.27
247.248	0.13
247.622	0.09
247.996	0.23
248.37	0.14
248.744	0.17
249.118	0.24
249.492	0.2
249.866	0.18
250.24	0.21
250.613	0.18
250.987	0.25
251.361	0.29
251.735	0.18
252.108	0.23
252.482	0.19
252.856	0.1
253.229	0.2
253.603	0.14
253.977	0.2
254.35	0.2
254.724	0.2
255.097	0.26
255.471	0.18
255.844	0.25
256.218	0.19
256.591	0.13
256.964	0.18
257.338	0.13
257.711	0.18
258.084	0.22
258.458	0.26
258.831	0.17
259.204	0.22
259.577	0.12
259.95	0.33
260.323	0.15
260.697	0.22
261.07	0.22
261.443	0.3
261.816	0.19
262.189	0.28
262.562	0.22
262.935	0.16
263.308	0.22
263.68	0.2
264.053	0.2
264.426	0.29
264.799	0.25
265.172	0.2
265.545	0.29
265.917	0.29
266.29	0.2
266.663	0.18
267.035	0.31
267.408	0.28
267.781	0.21
268.153	0.23
268.526	0.29
268.898	0.19
269.271	0.24
269.643	0.24
270.016	0.22
270.388	0.22
270.76	0.21
271.133	0.27
271.505	0.32
271.877	0.18
272.25	0.2
272.622	0.22
272.994	0.21
273.366	0.21
273.739	0.26
274.111	0.24
274.483	0.22
274.855	0.25
275.227	0.24
275.599	0.33
275.971	0.23
276.343	0.2
276.715	0.27
277.087	0.22
277.459	0.23
277.831	0.24
278.203	0.31
278.574	0.33
278.946	0.23
279.318	0.14
279.69	0.17
280.061	0.28
280.433	0.17
280.805	0.26
281.176	0.24
281.548	0.21
281.92	0.24
282.291	0.27
282.663	0.26
283.034	0.22
283.406	0.27
283.777	0.25
284.148	0.29
284.52	0.16
284.891	0.21
285.262	0.25
285.634	0.21
286.005	0.22
286.376	0.25
286.747	0.28
287.119	0.25
287.49	0.19
287.861	0.15
288.232	0.25
288.603	0.25
288.974	0.2
289.345	0.21
289.716	0.24
290.087	0.2
290.458	0.22
290.829	0.32
291.2	0.23
291.571	0.27
291.941	0.2
292.312	0.18
292.683	0.28
293.054	0.19
293.424	0.23
293.795	0.24
294.166	0.24
294.536	0.27
294.907	0.29
295.277	0.23
295.648	0.2
296.018	0.23
296.389	0.23
296.759	0.24
297.13	0.2
297.5	0.25
297.871	0.21
298.241	0.29
298.611	0.2
298.981	0.23
299.352	0.28
299.722	0.25
300.092	0.17
300.462	0.24
300.832	0.24
301.202	0.26
301.573	0.21
301.943	0.21
302.313	0.17
302.683	0.22
303.053	0.21
303.422	0.22
303.792	0.23
304.162	0.23
304.532	0.24
304.902	0.22
305.272	0.22
305.641	0.23
306.011	0.22
306.381	0.25
306.75	0.22
307.12	0.24
307.49	0.23
307.859	0.24
308.229	0.24
308.598	0.25
308.968	0.25
309.337	0.24
309.707	0.26
310.076	0.27
310.445	0.27
310.815	0.26
311.184	0.26
311.553	0.28
311.923	0.28
312.292	0.27
312.661	0.27
313.03	0.27
313.399	0.28
313.768	0.28
314.137	0.28
314.506	0.28
314.875	0.28
315.244	0.27
315.613	0.27
315.982	0.27
316.351	0.27
316.72	0.27
317.089	0.27
317.458	0.27
317.826	0.27
318.195	0.27
318.564	0.26
318.933	0.26
319.301	0.26
319.67	0.26
320.038	0.25
320.407	0.25
320.775	0.26
321.144	0.25
321.512	0.24
321.881	0.25
322.249	0.24
322.618	0.25
322.986	0.24
323.354	0.24
323.723	0.23
324.091	0.23
324.459	0.24
324.827	0.23
325.195	0.23
325.564	0.22
325.932	0.23
326.3	0.23
326.668	0.23
327.036	0.23
327.404	0.23
327.772	0.23
328.14	0.23
328.508	0.22
328.875	0.23
329.243	0.23
329.611	0.23
329.979	0.23
330.346	0.23
330.714	0.23
331.082	0.24
331.449	0.24
331.817	0.24
332.185	0.24
332.552	0.24
332.92	0.25
333.287	0.25
333.655	0.25
334.022	0.26
334.389	0.26
334.757	0.26
335.124	0.27
335.491	0.27
335.859	0.27
336.226	0.27
336.593	0.27
336.96	0.28
337.327	0.28
337.695	0.28
338.062	0.28
338.429	0.29
338.796	0.3
339.163	0.3
339.53	0.3
339.897	0.31
340.263	0.31
340.63	0.32
340.997	0.32
341.364	0.32
341.731	0.33
342.097	0.34
342.464	0.35
342.831	0.35
343.197	0.36
343.564	0.37
343.931	0.37
344.297	0.38
344.664	0.38
345.03	0.38
345.396	0.39
345.763	0.4
346.129	0.4
346.496	0.41
346.862	0.42
347.228	0.42
347.594	0.42
347.961	0.43
348.327	0.44
348.693	0.44
349.059	0.45
349.425	0.46
349.791	0.47
350.157	0.47
350.523	0.48
350.889	0.49
351.255	0.5
351.621	0.51
351.987	0.51
352.353	0.53
352.719	0.54
353.084	0.56
353.45	0.56
353.816	0.57
354.181	0.58
354.547	0.58
354.913	0.6
355.278	0.62
355.644	0.62
356.009	0.64
356.375	0.65
356.74	0.66
357.106	0.68
357.471	0.69
357.836	0.7
358.202	0.72
358.567	0.73
358.932	0.74
359.297	0.76
359.663	0.76
360.028	0.78
360.393	0.78
360.758	0.8
361.123	0.81
361.488	0.82
361.853	0.82
362.218	0.83
362.583	0.84
362.948	0.84
363.312	0.87
363.677	0.88
364.042	0.88
364.407	0.9
364.772	0.91
365.136	0.93
365.501	0.95
365.865	0.96
366.23	0.97
366.595	1.01
366.959	1.01
367.324	1.03
367.688	1.05
368.052	1.07
368.417	1.07
368.781	1.1
369.145	1.1
369.51	1.1
369.874	1.11
370.238	1.11
370.602	1.12
370.967	1.1
371.331	1.1
371.695	1.1
372.059	1.1
372.423	1.1
372.787	1.08
373.151	1.08
373.515	1.08
373.878	1.09
374.242	1.08
374.606	1.07
374.97	1.08
375.334	1.08
375.697	1.08
376.061	1.08
376.425	1.09
376.788	1.09
377.152	1.09
377.515	1.1
377.879	1.12
378.242	1.13
378.606	1.14
378.969	1.15
379.333	1.16
379.696	1.19
380.059	1.18
380.422	1.2
380.786	1.24
381.149	1.25
381.512	1.27
381.875	1.29
382.238	1.32
382.601	1.34
382.964	1.37
383.327	1.39
383.69	1.44
384.053	1.46
384.416	1.49
384.779	1.53
385.142	1.54
385.504	1.56
385.867	1.61
386.23	1.59
386.593	1.61
386.955	1.63
387.318	1.64
387.68	1.6
388.043	1.61
388.405	1.6
388.768	1.57
389.13	1.57
389.493	1.57
389.855	1.56
390.217	1.55
390.58	1.56
390.942	1.54
391.304	1.57
391.666	1.57
392.028	1.59
392.391	1.61
392.753	1.66
393.115	1.69
393.477	1.73
393.839	1.79
394.201	1.81
394.563	1.88
394.924	1.96
395.286	1.95
395.648	1.98
396.01	1.97
396.371	1.96
396.733	2
397.095	2.03
397.456	1.98
397.818	1.99
398.18	2
398.541	1.98
398.903	1.96
399.264	1.96
399.625	1.93
399.987	1.9
400.348	1.88
400.709	1.82
401.071	1.77
401.432	1.68
401.793	1.58
402.154	1.52
402.515	1.42
402.876	1.35
403.238	1.26
403.599	1.18
403.96	1.1
404.32	1.02
404.681	0.95
405.042	0.89
405.403	0.83
405.764	0.77
406.125	0.71
406.485	0.66
406.846	0.63
407.207	0.59
407.567	0.55
407.928	0.53
408.288	0.5
408.649	0.47
409.009	0.44
409.37	0.41
409.73	0.4
410.091	0.38
410.451	0.36
410.811	0.35
411.171	0.33
411.532	0.32
411.892	0.3
412.252	0.29
412.612	0.28
412.972	0.27
413.332	0.26
413.692	0.25
414.052	0.24
414.412	0.23
414.772	0.22
415.132	0.22
415.492	0.21
415.851	0.21
416.211	0.19
416.571	0.2
416.931	0.19
417.29	0.19
417.65	0.18
418.009	0.18
418.369	0.17
418.728	0.17
419.088	0.16
419.447	0.16
419.807	0.16
420.166	0.16
420.525	0.16
420.884	0.15
421.244	0.15
421.603	0.14
421.962	0.14
422.321	0.14
422.68	0.14
423.039	0.13
423.398	0.14
423.757	0.14
424.116	0.13
424.475	0.13
424.834	0.12
425.193	0.13
425.551	0.12
425.91	0.13
426.269	0.12
426.628	0.12
426.986	0.12
427.345	0.12
427.703	0.12
428.062	0.12
428.42	0.11
428.779	0.11
429.137	0.11
429.496	0.11
429.854	0.11
430.212	0.11
430.57	0.11
430.929	0.1
431.287	0.1
431.645	0.1
432.003	0.1
432.361	0.1
432.719	0.1
433.077	0.1
433.435	0.1
433.793	0.1
434.151	0.1
434.509	0.09
434.866	0.09
435.224	0.09
435.582	0.09
435.94	0.1
436.297	0.09
436.655	0.09
437.012	0.09
437.37	0.09
437.727	0.09
438.085	0.09
438.442	0.09
438.8	0.09
439.157	0.09
439.514	0.09
439.872	0.08
440.229	0.08
440.586	0.08
440.943	0.09
441.3	0.08
441.657	0.08
442.014	0.08
442.371	0.08
442.728	0.08
443.085	0.07
443.442	0.08
443.799	0.07
444.156	0.07
444.513	0.08
444.869	0.08
445.226	0.07
445.583	0.07
445.939	0.07
446.296	0.08
446.652	0.07
447.009	0.07
447.365	0.07
447.722	0.07
448.078	0.06
448.434	0.07
448.791	0.06
449.147	0.06
449.503	0.07
449.859	0.06
450.215	0.06
450.571	0.07
450.928	0.06
451.284	0.06
451.64	0.06
451.995	0.06
452.351	0.06
452.707	0.06
453.063	0.05
453.419	0.05
453.775	0.05
454.13	0.05
454.486	0.06
454.842	0.05
455.197	0.04
455.553	0.05
455.908	0.05
456.264	0.04
456.619	0.04
456.975	0.04
457.33	0.03
457.685	0.03
458.04	0.04
458.396	0.03
458.751	0.04
459.106	0.03
459.461	0.03
459.816	0.02
460.171	0.03
460.526	0.02
460.881	0.01
461.236	0.02
461.591	0.01
461.946	0.01
462.301	0
462.655	0.01
463.01	0
463.365	0.01
463.719	-0
464.074	0
464.428	-0.01
464.783	-0.01
465.137	-0
465.492	-0.01
465.846	-0.01
466.201	-0.01
466.555	-0.01
466.909	-0.01
467.263	-0.01
467.618	-0
467.972	0
468.326	-0.01
468.68	-0
469.034	-0.01
469.388	-0.01
469.742	-0.01
470.096	-0
470.45	-0.01
470.804	-0.01
471.157	-0.01
471.511	-0.01
471.865	0.01
472.218	-0
472.572	-0
472.926	0
473.279	0
473.633	0.01
473.986	0.01
474.34	0.02
474.693	0.02
475.046	0.02
475.4	0.03
475.753	0.03
476.106	0.04
476.459	0.04
476.812	0.05
477.165	0.05
477.519	0.05
477.872	0.06
478.224	0.06
478.577	0.06
478.93	0.06
479.283	0.06
479.636	0.07
479.989	0.07
480.341	0.07
480.694	0.08
481.047	0.08
481.399	0.08
481.752	0.09
482.104	0.09
482.457	0.09
482.809	0.09
483.162	0.09
483.514	0.1
483.866	0.1
484.219	0.11
484.571	0.11
484.923	0.1
485.275	0.11
485.627	0.11
485.979	0.11
486.331	0.11
486.683	0.12
487.035	0.12
487.387	0.12
487.739	0.12
488.091	0.12
488.443	0.13
488.794	0.13
489.146	0.13
489.498	0.13
489.849	0.13
490.201	0.13
490.552	0.14
490.904	0.14
491.255	0.14
491.607	0.14
491.958	0.15
492.309	0.15
492.661	0.15
493.012	0.15
493.363	0.15
493.714	0.15
494.065	0.16
494.416	0.15
494.767	0.16
495.118	0.16
495.469	0.16
495.82	0.16
496.171	0.17
496.522	0.17
496.872	0.17
497.223	0.17
497.574	0.18
497.924	0.18
498.275	0.18
498.626	0.18
498.976	0.18
499.327	0.19
499.677	0.19
500.027	0.19
500.378	0.19
500.728	0.19
501.078	0.2
501.428	0.19
501.779	0.2
502.129	0.21
502.479	0.2
502.829	0.2
503.179	0.2
503.529	0.21
503.879	0.21
504.229	0.22
504.578	0.22
504.928	0.22
505.278	0.22
505.628	0.23
505.977	0.22
506.327	0.23
506.676	0.23
507.026	0.23
507.375	0.24
507.725	0.24
508.074	0.24
508.424	0.24
508.773	0.24
509.122	0.25
509.471	0.25
509.82	0.25
510.17	0.26
510.519	0.25
510.868	0.26
511.217	0.26
511.566	0.26
511.915	0.26
512.263	0.27
512.612	0.27
512.961	0.28
513.31	0.28
513.659	0.28
514.007	0.28
514.356	0.27
514.704	0.28
515.053	0.29
515.401	0.29
515.75	0.29
516.098	0.29
516.447	0.3
516.795	0.3
517.143	0.3
517.491	0.31
517.839	0.31
518.188	0.31
518.536	0.31
518.884	0.31
519.232	0.32
519.58	0.32
519.928	0.32
520.275	0.32
520.623	0.32
520.971	0.33
521.319	0.33
521.666	0.33
522.014	0.33
522.362	0.34
522.709	0.34
523.057	0.34
523.404	0.34
523.752	0.34
524.099	0.35
524.446	0.35
524.794	0.35
525.141	0.35
525.488	0.36
525.835	0.36
526.182	0.36
526.529	0.36
526.876	0.37
527.223	0.37
527.57	0.37
527.917	0.37
528.264	0.38
528.611	0.38
528.958	0.38
529.304	0.38
529.651	0.39
529.998	0.39
530.344	0.4
530.691	0.39
531.037	0.4
531.384	0.4
531.73	0.4
532.076	0.41
532.423	0.41
532.769	0.41
533.115	0.41
533.461	0.42
533.807	0.42
534.154	0.42
534.5	0.42
534.846	0.43
535.192	0.43
535.537	0.43
535.883	0.44
536.229	0.44
536.575	0.44
536.921	0.44
537.266	0.45
537.612	0.45
537.957	0.45
538.303	0.46
538.649	0.46
538.994	0.46
539.339	0.47
539.685	0.47
540.03	0.47
540.375	0.48
540.721	0.48
541.066	0.48
541.411	0.49
541.756	0.48
542.101	0.49
542.446	0.49
542.791	0.5
543.136	0.5
543.481	0.51
543.825	0.51
544.17	0.52
544.515	0.52
544.86	0.52
545.204	0.53
545.549	0.53
545.893	0.53
546.238	0.53
546.582	0.54
546.927	0.54
547.271	0.55
547.615	0.55
547.96	0.55
548.304	0.55
548.648	0.56
548.992	0.56
549.336	0.56
549.68	0.56
550.024	0.57
550.368	0.57
550.712	0.57
551.056	0.58
551.4	0.57
551.743	0.58
552.087	0.58
552.431	0.59
552.774	0.58
553.118	0.59
553.462	0.59
553.805	0.59
554.148	0.6
554.492	0.6
554.835	0.6
555.178	0.61
555.522	0.6
555.865	0.61
556.208	0.61
556.551	0.61
556.894	0.62
557.237	0.61
557.58	0.62
557.923	0.62
558.266	0.62
558.609	0.63
558.952	0.62
559.294	0.62
559.637	0.63
559.98	0.63
560.322	0.63
560.665	0.63
561.007	0.63
561.35	0.63
561.692	0.64
562.034	0.63
562.377	0.64
562.719	0.64
563.061	0.64
563.403	0.64
563.745	0.64
564.088	0.64
564.43	0.64
564.772	0.65
565.113	0.65
565.455	0.66
565.797	0.65
566.139	0.66
566.481	0.66
566.822	0.66
567.164	0.66
567.506	0.66
567.847	0.66
568.189	0.66
568.53	0.67
568.872	0.66
569.213	0.66
569.554	0.67
569.895	0.67
570.237	0.66
570.578	0.67
570.919	0.66
571.26	0.67
571.601	0.66
571.942	0.66
572.283	0.66
572.624	0.66
572.965	0.67
573.306	0.66
573.646	0.66
573.987	0.66
574.328	0.66
574.668	0.67
575.009	0.66
575.349	0.66
575.69	0.66
576.03	0.66
576.37	0.66
576.711	0.66
577.051	0.66
577.391	0.66
577.731	0.67
578.072	0.67
578.412	0.67
578.752	0.67
579.092	0.66
579.431	0.66
579.771	0.64
580.111	0.62
580.451	0.62
580.791	0.65
581.13	0.67
581.47	0.67
581.81	0.67
582.149	0.67
582.489	0.68
582.828	0.67
583.167	0.65
583.507	0.61
583.846	0.58
584.185	0.6
584.525	0.63
584.864	0.66
585.203	0.68
585.542	0.7
585.881	0.7
586.22	0.7
586.559	0.69
586.898	0.68
587.236	0.67
587.575	0.66
587.914	0.67
588.252	0.69
588.591	0.71
588.93	0.71
589.268	0.71
589.607	0.71
589.945	0.72
590.283	0.71
590.622	0.72
590.96	0.73
591.298	0.73
591.636	0.73
591.974	0.74
592.313	0.74
592.651	0.75
592.989	0.75
593.326	0.76
593.664	0.76
594.002	0.76
594.34	0.76
594.678	0.76
595.015	0.76
595.353	0.74
595.691	0.75
596.028	0.76
596.366	0.77
596.703	0.78
597.04	0.79
597.378	0.79
597.715	0.79
598.052	0.79
598.389	0.8
598.726	0.8
599.064	0.8
599.401	0.8
599.738	0.81
600.074	0.8
600.411	0.81
600.748	0.8
601.085	0.8
601.422	0.8
601.758	0.79
602.095	0.8
602.432	0.8
602.768	0.8
603.105	0.81
603.441	0.81
603.777	0.82
604.114	0.81
604.45	0.82
604.786	0.82
605.122	0.82
605.459	0.81
605.795	0.81
606.131	0.8
606.467	0.81
606.803	0.81
607.139	0.81
607.474	0.81
607.81	0.81
608.146	0.8
608.482	0.8
608.817	0.8
609.153	0.79
609.488	0.79
609.824	0.79
610.159	0.79
610.495	0.79
610.83	0.79
611.165	0.79
611.5	0.79
611.836	0.79
612.171	0.79
612.506	0.78
612.841	0.79
613.176	0.78
613.511	0.79
613.845	0.78
614.18	0.78
614.515	0.78
614.85	0.78
615.184	0.77
615.519	0.77
615.854	0.77
616.188	0.77
616.523	0.77
616.857	0.76
617.191	0.76
617.526	0.76
617.86	0.76
618.194	0.75
618.528	0.75
618.862	0.75
619.196	0.74
619.53	0.74
619.864	0.74
620.198	0.74
620.532	0.74
620.866	0.74
621.2	0.73
621.533	0.73
621.867	0.73
622.201	0.73
622.534	0.73
622.868	0.73
623.201	0.72
623.534	0.72
623.868	0.71
624.201	0.71
624.534	0.71
624.868	0.71
625.201	0.7
625.534	0.71
625.867	0.7
626.2	0.69
626.533	0.69
626.865	0.69
627.198	0.69
627.531	0.68
627.864	0.68
628.196	0.68
628.529	0.67
628.862	0.67
629.194	0.66
629.527	0.66
629.859	0.66
630.191	0.66
630.524	0.65
630.856	0.65
631.188	0.64
631.52	0.64
631.852	0.64
632.184	0.63
632.516	0.63
632.848	0.62
633.18	0.62
633.512	0.62
633.844	0.61
634.175	0.61
634.507	0.6
634.839	0.6
635.17	0.59
635.502	0.59
635.833	0.58
636.165	0.57
636.496	0.57
636.827	0.57
637.159	0.56
637.49	0.56
637.821	0.55
638.152	0.54
638.483	0.55
638.814	0.54
639.145	0.54
639.476	0.53
639.807	0.53
640.137	0.53
640.468	0.52
640.799	0.52
641.129	0.5
641.46	0.5
641.791	0.5
642.121	0.5
642.451	0.5
642.782	0.49
643.112	0.49
643.442	0.49
643.773	0.49
644.103	0.49
644.433	0.48
644.763	0.47
645.093	0.48
645.423	0.47
645.753	0.47
646.082	0.46
646.412	0.46
646.742	0.46
647.072	0.45
647.401	0.46
647.731	0.45
648.06	0.45
648.39	0.45
648.719	0.45
649.048	0.45
649.378	0.44
649.707	0.45
650.036	0.44
650.365	0.44
650.694	0.44
651.023	0.44
651.352	0.43
651.681	0.43
652.01	0.43
652.339	0.43
652.668	0.44
652.996	0.43
653.325	0.43
653.654	0.43
653.982	0.43
654.311	0.43
654.639	0.43
654.967	0.43
655.296	0.43
655.624	0.43
655.952	0.43
656.28	0.43
656.609	0.43
656.937	0.42
657.265	0.43
657.593	0.36
657.92	0.22
658.248	0.16
658.576	0.14
658.904	0.22
659.231	0.31
659.559	0.39
659.887	0.42
660.214	0.42
660.542	0.42
660.869	0.42
661.196	0.42
661.524	0.42
661.851	0.42
662.178	0.42
662.505	0.42
662.832	0.42
663.159	0.42
663.486	0.42
663.813	0.42
664.14	0.42
664.467	0.42
664.794	0.41
665.12	0.41
665.447	0.41
665.774	0.41
666.1	0.4
666.427	0.41
666.753	0.4
667.079	0.4
667.406	0.4
667.732	0.4
668.058	0.4
668.384	0.4
668.71	0.4
669.036	0.4
669.362	0.4
669.688	0.4
670.014	0.39
670.34	0.39
670.666	0.39
670.991	0.39
671.317	0.39
671.643	0.39
671.968	0.39
672.294	0.38
672.619	0.39
672.945	0.38
673.27	0.38
673.595	0.37
673.92	0.37
674.246	0.37
674.571	0.36
674.896	0.36
675.221	0.36
675.546	0.36
675.87	0.36
676.195	0.36
676.52	0.36
676.845	0.35
677.169	0.35
677.494	0.34
677.819	0.34
678.143	0.34
678.468	0.33
678.792	0.33
679.116	0.33
679.44	0.33
679.765	0.33
680.089	0.32
680.413	0.32
680.737	0.31
681.061	0.31
681.385	0.31
681.709	0.31
682.033	0.3
682.356	0.3
682.68	0.3
683.004	0.3
683.327	0.29
683.651	0.29
683.974	0.29
684.298	0.29
684.621	0.28
684.944	0.28
685.268	0.27
685.591	0.27
685.914	0.27
686.237	0.26
686.56	0.26
686.883	0.25
687.206	0.25
687.529	0.24
687.852	0.24
688.175	0.24
688.497	0.24
688.82	0.24
689.142	0.24
689.465	0.24
689.787	0.23
690.11	0.23
690.432	0.23
690.755	0.23
691.077	0.22
691.399	0.22
691.721	0.21
692.043	0.21
692.365	0.21
692.687	0.21
693.009	0.2
693.331	0.2
693.653	0.2
693.974	0.2
694.296	0.19
694.618	0.19
694.939	0.19
695.261	0.18
695.582	0.18
695.904	0.18
696.225	0.18
696.546	0.19
696.868	0.18
697.189	0.18
697.51	0.18
697.831	0.17
698.152	0.17
698.473	0.17
698.794	0.16
699.114	0.16
699.435	0.14
699.756	0.14
700.077	0.15
700.397	0.15
700.718	0.15
701.038	0.15
701.359	0.15
701.679	0.15
701.999	0.15
702.32	0.15
702.64	0.15
702.96	0.15
703.28	0.15
703.6	0.15
703.92	0.14
704.24	0.14
704.56	0.13
704.879	0.13
705.199	0.13
705.519	0.13
705.838	0.13
706.158	0.13
706.478	0.13
706.797	0.13
707.116	0.13
707.436	0.13
707.755	0.13
708.074	0.13
708.393	0.13
708.712	0.12
709.031	0.11
709.35	0.1
709.669	0.1
709.988	0.1
710.307	0.11
710.626	0.11
710.944	0.12
711.263	0.12
711.582	0.12
711.9	0.12
712.219	0.12
712.537	0.12
712.855	0.12
713.174	0.12
713.492	0.12
713.81	0.12
714.128	0.12
714.446	0.12
714.764	0.11
715.082	0.11
715.4	0.12
715.718	0.11
716.035	0.11
716.353	0.11
716.671	0.11
716.988	0.11
717.306	0.11
717.623	0.11
717.941	0.12
718.258	0.12
718.575	0.13
718.893	0.13
719.21	0.13
719.527	0.13
719.844	0.13
720.161	0.13
720.478	0.13
720.795	0.13
721.112	0.13
721.428	0.13
721.745	0.14
722.062	0.13
722.378	0.14
722.695	0.14
723.011	0.14
723.328	0.14
723.644	0.14
723.96	0.14
724.276	0.14
724.593	0.14
724.909	0.14
725.225	0.14
725.541	0.14
725.857	0.14
726.173	0.15
726.488	0.15
726.804	0.14
727.12	0.14
727.435	0.14
727.751	0.14
728.067	0.14
728.382	0.14
728.697	0.14
729.013	0.14
729.328	0.14
729.643	0.14
729.958	0.14
730.273	0.14
730.588	0.14
730.903	0.14
731.218	0.14
731.533	0.14
731.848	0.14
732.163	0.15
732.477	0.14
732.792	0.14
733.107	0.13
733.421	0.13
733.736	0.13
734.05	0.14
734.364	0.14
734.678	0.14
734.993	0.14
735.307	0.14
735.621	0.14
735.935	0.14
736.249	0.14
736.563	0.14
736.877	0.14
737.19	0.14
737.504	0.14
737.818	0.14
738.131	0.14
738.445	0.15
738.758	0.14
739.072	0.14
739.385	0.14
739.698	0.14
740.012	0.14
740.325	0.14
740.638	0.14
740.951	0.13
741.264	0.13
741.577	0.13
741.89	0.13
742.203	0.14
742.515	0.13
742.828	0.14
743.141	0.14
743.453	0.13
743.766	0.13
744.078	0.13
744.391	0.13
744.703	0.13
745.015	0.12
745.327	0.12
745.639	0.12
745.952	0.12
746.264	0.12
746.575	0.12
746.887	0.12
747.199	0.12
747.511	0.12
747.823	0.12
748.134	0.11
748.446	0.12
748.757	0.11
749.069	0.11
749.38	0.11
749.692	0.11
750.003	0.11
750.314	0.11
750.625	0.11
750.936	0.1
751.248	0.1
751.559	0.1
751.869	0.09
752.18	0.09
752.491	0.09
752.802	0.09
753.112	0.09
753.423	0.09
753.734	0.1
754.044	0.1
754.355	0.09
754.665	0.09
754.975	0.09
755.285	0.09
755.596	0.08
755.906	0.08
756.216	0.08
756.526	0.08
756.836	0.08
757.146	0.08
757.455	0.08
757.765	0.08
758.075	0.07
758.385	0.07
758.694	0.07
759.004	0.07
759.313	0.07
759.622	0.07
759.932	0.06
760.241	0.07
760.55	0.06
760.859	0.06
761.168	0.06
761.477	0.06
761.786	0.05
762.095	0.05
762.404	0.05
762.713	0.05
763.021	0.05
763.33	0.05
763.639	0.05
763.947	0.05
764.256	0.05
764.564	0.05
764.872	0.05
765.181	0.05
765.489	0.05
765.797	0.05
766.105	0.05
766.413	0.05
766.721	0.04
767.029	0.04
767.337	0.04
767.644	0.04
767.952	0.04
768.26	0.04
768.567	0.05
768.875	0.05
769.182	0.05
769.49	0.05
769.797	0.05
770.104	0.05
770.411	0.05
770.718	0.05
771.026	0.05
771.333	0.05
771.639	0.05
771.946	0.04
772.253	0.04
772.56	0.04
772.867	0.04
773.173	0.04
773.48	0.04
773.786	0.04
774.093	0.03
774.399	0.03
774.705	0.03
775.012	0.03
775.318	0.03
775.624	0.03
775.93	0.03
776.236	0.03
776.542	0.03
776.848	0.03
777.154	0.03
777.459	0.03
777.765	0.04
778.071	0.04
778.376	0.04
778.682	0.04
778.987	0.03
779.292	0.04
779.598	0.04
779.903	0.04
780.208	0.04
780.513	0.04
780.818	0.04
781.123	0.04
781.428	0.04
781.733	0.04
782.038	0.04
782.343	0.04
782.647	0.04
782.952	0.04
783.256	0.04
783.561	0.04
783.865	0.04
784.17	0.04
784.474	0.04
784.778	0.04
785.082	0.04
785.386	0.03
785.69	0.03
785.994	0.03
786.298	0.04
786.602	0.04
786.906	0.03
787.209	0.04
787.513	0.04
787.817	0.04
788.12	0.04
788.424	0.04
788.727	0.04
789.03	0.04
789.333	0.04
789.637	0.04
789.94	0.03
790.243	0.03
790.546	0.03
790.849	0.04
791.152	0.04
791.454	0.04
791.757	0.03
792.06	0.04
792.362	0.03
792.665	0.03
792.967	0.03
793.27	0.04
793.572	0.03
793.874	0.03
794.177	0.04
794.479	0.03
794.781	0.03
795.083	0.03
795.385	0.03
795.687	0.03
795.989	0.04
796.29	0.03
796.592	0.04
796.894	0.04
797.195	0.04
797.497	0.04
797.798	0.04
798.1	0.04
798.401	0.04
798.702	0.05
799.003	0.04
799.304	0.04
799.605	0.04
799.906	0.04
800.207	0.04
800.508	0.04
800.809	0.04
801.11	0.04
801.41	0.03
801.711	0.03
802.011	0.03
802.312	0.03
802.612	0.03
802.913	0.03
803.213	0.03
803.513	0.03
803.813	0.04
804.113	0.03
804.413	0.04
804.713	0.04
805.013	0.04
805.313	0.04
805.613	0.04
805.912	0.04
806.212	0.04
806.511	0.04
806.811	0.04
807.11	0.03
807.41	0.04
807.709	0.04
808.008	0.04
808.307	0.04
808.606	0.05
808.905	0.04
809.204	0.04
809.503	0.04
809.802	0.04
810.101	0.04
810.399	0.04
810.698	0.04
810.997	0.04
811.295	0.04
811.593	0.04
811.892	0.04
812.19	0.04
812.488	0.04
812.786	0.04
813.084	0.05
813.383	0.04
813.68	0.05
813.978	0.05
814.276	0.05
814.574	0.05
814.872	0.05
815.169	0.04
815.467	0.05
815.764	0.05
816.062	0.04
816.359	0.04
816.656	0.05
816.954	0.04
817.251	0.05
817.548	0.05
817.845	0.06
818.142	0.06
818.439	0.05
818.735	0.05
819.032	0.05
819.329	0.05
819.626	0.05
819.922	0.05
820.219	0.05
820.515	0.05
820.811	0.05
821.108	0.05
821.404	0.05
821.7	0.05
821.996	0.04
822.292	0.04
822.588	0.04
822.884	0.05
823.18	0.05
823.475	0.05
823.771	0.05
824.067	0.05
824.362	0.05
824.658	0.05
824.953	0.05
825.249	0.05
825.544	0.05
825.839	0.05
826.134	0.05
826.429	0.06
826.724	0.06
827.019	0.06
827.314	0.05
827.609	0.05
827.904	0.04
828.198	0.04
828.493	0.05
828.787	0.05
829.082	0.04
829.376	0.05
829.671	0.05
829.965	0.05
830.259	0.05
830.553	0.05
830.847	0.06
831.141	0.06
831.435	0.05
831.729	0.05
832.023	0.06
832.317	0.06
832.61	0.06
832.904	0.06
833.197	0.06
833.491	0.07
833.784	0.06
834.077	0.06
834.371	0.06
834.664	0.05
834.957	0.06
835.25	0.06
835.543	0.06
835.836	0.06
836.129	0.06
836.421	0.06
836.714	0.06
837.007	0.06
837.299	0.05
837.592	0.06
837.884	0.05
838.177	0.05
838.469	0.05
838.761	0.05
839.053	0.05
839.345	0.06
839.637	0.06
839.929	0.06
840.221	0.07
840.513	0.07
840.805	0.06
841.096	0.06
841.388	0.07
841.68	0.07
841.971	0.05
842.262	0.06
842.554	0.07
842.845	0.06
843.136	0.07
843.427	0.06
843.718	0.07
844.009	0.06
844.3	0.07
844.591	0.06
844.882	0.06
845.173	0.06
845.463	0.06
845.754	0.06
846.044	0.05
846.335	0.07
846.625	0.06
846.915	0.06
847.206	0.06
847.496	0.08
847.786	0.06
848.076	0.06
848.366	0.07
848.656	0.06
848.945	0.06
849.235	0.06
849.525	0.06
849.814	0.06
850.104	0.05
850.393	0.05
850.683	0.06
850.972	0.06
851.261	0.05
851.551	0.06
851.84	0.06
852.129	0.06
852.418	0.06
852.707	0.07
852.995	0.06
853.284	0.06
853.573	0.06
853.862	0.07
854.15	0.07
854.439	0.07
854.727	0.06
855.015	0.06
855.304	0.06
855.592	0.05
855.88	0.05
856.168	0.05
856.456	0.06
856.744	0.06
857.032	0.06
857.32	0.07
857.607	0.08
857.895	0.05
858.183	0.07
858.47	0.05
858.757	0.05
859.045	0.06
859.332	0.07
859.619	0.06
859.907	0.06
860.194	0.07
860.481	0.06
860.768	0.07
861.054	0.06
861.341	0.06
861.628	0.05
861.915	0.05
862.201	0.06
862.488	0.05
862.774	0.07
863.061	0.07
863.347	0.06
863.633	0.04
863.919	0.07
864.205	0.07
864.491	0.05
864.777	0.06
865.063	0.06
865.349	0.06
865.635	0.09
865.92	0.06
866.206	0.04
866.492	0.06
866.777	0.05
867.062	0.05
867.348	0.08
867.633	0.04
867.918	0.01
868.203	0.03
868.488	0.08
868.773	0.05
869.058	0.08
869.343	0.04
869.628	0.04
869.912	0.01
870.197	0.06
870.482	0.06
870.766	0.03
871.05	0.04
871.335	0.07
871.619	0.04
871.903	0.01
872.187	0.04
872.471	0.03
872.755	0.04
873.039	0.06
873.323	0.04
873.607	0
873.89	0.05
874.174	-0
874.458	0.01
874.741	-0.04
875.024	0
875.308	-0.02
875.591	0.02
875.874	0
876.157	0.05
876.44	0
876.723	0.02
877.006	-0.02
877.289	-0
877.572	0.04
877.854	0.08
878.137	-0.04
878.42	-0
878.702	-0.03
878.984	-0.02
879.267	0.01
879.549	-0.02
879.831	0.02
880.113	0.07
880.395	0.09
880.677	-0.02
880.959	-0.01
