Data from Rubpy_EV_1800_EDTA_Buffered_Absorbance_15-41-24-677.txt Node
Date: Tue Jun 30 15:41:24 BST 2026
User: fpm-admin
Spectrometer: OFX00224
Trigger mode: 0
Integration Time (sec): 7.000000E-2
Scans to average: 3
Nonlinearity correction enabled: false
Boxcar width: 0
Storing dark spectrum: false
XAxis mode: Wavelengths
Number of Pixels in Spectrum: 2136
>>>>>Begin Spectral Data<<<<<
154.91	0.44
155.289	-0
155.669	-0
156.048	-0
156.428	-0.33
156.807	1.15
157.186	-0
157.566	-0.43
157.945	-0
158.325	-0
158.704	-0.18
159.083	-0.46
159.462	-0.15
159.842	0.7
160.221	-0.12
160.6	-0.29
160.979	-0.15
161.359	-0.01
161.738	-0.11
162.117	-0
162.496	0.06
162.875	0.2
163.254	-0
163.633	-0
164.012	0.35
164.391	-0.03
164.77	-0
165.149	0.59
165.528	-0.31
165.907	-0.97
166.286	0.01
166.665	-0.19
167.044	-0.97
167.423	-0
167.802	0.18
168.181	0.91
168.559	0.22
168.938	0.12
169.317	-0.2
169.696	-0.32
170.074	-0
170.453	-0.46
170.832	-0.03
171.21	0.04
171.589	-0
171.968	-0
172.346	0.48
172.725	0.01
173.103	-0.01
173.482	0.02
173.861	0.12
174.239	-0
174.617	0.35
174.996	-0.28
175.374	-0
175.753	-0.08
176.131	-0
176.51	0.59
176.888	-0
177.266	-0
177.645	-0.21
178.023	0.69
178.401	-0.32
178.779	0.25
179.158	-0.06
179.536	0.86
179.914	-0
180.292	-0.07
180.67	-0.06
181.048	-0
181.427	0.52
181.805	0.06
182.183	-0.15
182.561	-0
182.939	-0
183.317	-1.09
183.695	0.78
184.073	0.4
184.451	-0
184.829	-0.04
185.206	0.1
185.584	-0.09
185.962	-0.7
186.34	-0
186.718	-0
187.096	0.19
187.473	-0
187.851	0.2
188.229	0.1
188.607	0.15
188.984	0.13
189.362	0.25
189.74	0.15
190.117	0.15
190.495	0.16
190.872	0.08
191.25	0.05
191.627	0.07
192.005	0.11
192.382	0.12
192.76	0.12
193.137	0.19
193.515	0.15
193.892	0.19
194.269	0.15
194.647	0.17
195.024	0.19
195.401	0.22
195.779	0.15
196.156	0.14
196.533	0.17
196.91	0.32
197.288	0.17
197.665	0.2
198.042	0.24
198.419	0.26
198.796	0.23
199.173	0.19
199.55	0.23
199.927	0.24
200.304	0.17
200.681	0.31
201.058	0.26
201.435	0.16
201.812	0.29
202.189	0.2
202.566	0.14
202.943	0.19
203.32	0.15
203.697	0.16
204.073	0.21
204.45	0.21
204.827	0.13
205.204	0.17
205.58	0.15
205.957	0.09
206.334	0.2
206.71	0.09
207.087	0.23
207.464	0.13
207.84	0.13
208.217	0.19
208.593	0.21
208.97	0.1
209.346	0.15
209.723	0.15
210.099	0.15
210.476	0.15
210.852	0.22
211.228	0.11
211.605	0.18
211.981	0.13
212.357	0.18
212.733	0.15
213.11	0.19
213.486	0.23
213.862	0.19
214.238	0.17
214.614	0.14
214.991	0.18
215.367	0.08
215.743	0.13
216.119	0.26
216.495	0.15
216.871	0.15
217.247	0.19
217.623	0.15
217.999	0.19
218.375	0.14
218.751	0.13
219.127	0.25
219.502	0.12
219.878	0.11
220.254	0.15
220.63	0.17
221.006	0.15
221.381	0.24
221.757	0.16
222.133	0.2
222.508	0.13
222.884	0.31
223.26	0.25
223.635	0.18
224.011	0.18
224.386	0.27
224.762	0.18
225.137	0.15
225.513	0.24
225.888	0.19
226.264	0.18
226.639	0.23
227.014	0.25
227.39	0.17
227.765	0.15
228.14	0.2
228.516	0.19
228.891	0.34
229.266	0.16
229.641	0.21
230.017	0.31
230.392	0.25
230.767	0.22
231.142	0.16
231.517	0.15
231.892	0.2
232.267	0.2
232.642	0.15
233.017	0.22
233.392	0.23
233.767	0.17
234.142	0.15
234.517	0.17
234.892	0.21
235.267	0.18
235.641	0.13
236.016	0.18
236.391	0.11
236.766	0.13
237.14	0.21
237.515	0.07
237.89	0.28
238.264	0.28
238.639	0.19
239.014	0.19
239.388	0.18
239.763	0.13
240.137	0.23
240.512	0.22
240.886	0.34
241.261	0.22
241.635	0.35
242.009	0.17
242.384	0.18
242.758	0.28
243.132	0.26
243.507	0.17
243.881	0.19
244.255	0.18
244.629	0.19
245.004	0.09
245.378	0.1
245.752	0.16
246.126	0.25
246.5	0.25
246.874	0.21
247.248	0.14
247.622	0.17
247.996	0.2
248.37	0.14
248.744	0.18
249.118	0.18
249.492	0.1
249.866	0.17
250.24	0.23
250.613	0.2
250.987	0.24
251.361	0.23
251.735	0.19
252.108	0.15
252.482	0.2
252.856	0.19
253.229	0.21
253.603	0.17
253.977	0.19
254.35	0.22
254.724	0.17
255.097	0.19
255.471	0.22
255.844	0.21
256.218	0.23
256.591	0.13
256.964	0.26
257.338	0.16
257.711	0.2
258.084	0.16
258.458	0.24
258.831	0.19
259.204	0.18
259.577	0.21
259.95	0.29
260.323	0.14
260.697	0.26
261.07	0.24
261.443	0.17
261.816	0.2
262.189	0.29
262.562	0.21
262.935	0.15
263.308	0.16
263.68	0.28
264.053	0.21
264.426	0.25
264.799	0.22
265.172	0.18
265.545	0.23
265.917	0.26
266.29	0.23
266.663	0.21
267.035	0.26
267.408	0.11
267.781	0.2
268.153	0.24
268.526	0.27
268.898	0.27
269.271	0.22
269.643	0.19
270.016	0.25
270.388	0.14
270.76	0.19
271.133	0.21
271.505	0.3
271.877	0.28
272.25	0.21
272.622	0.14
272.994	0.26
273.366	0.24
273.739	0.24
274.111	0.25
274.483	0.26
274.855	0.22
275.227	0.28
275.599	0.29
275.971	0.28
276.343	0.21
276.715	0.2
277.087	0.27
277.459	0.29
277.831	0.21
278.203	0.24
278.574	0.22
278.946	0.32
279.318	0.16
279.69	0.19
280.061	0.22
280.433	0.26
280.805	0.23
281.176	0.22
281.548	0.21
281.92	0.19
282.291	0.25
282.663	0.28
283.034	0.2
283.406	0.23
283.777	0.24
284.148	0.23
284.52	0.26
284.891	0.18
285.262	0.25
285.634	0.21
286.005	0.26
286.376	0.2
286.747	0.2
287.119	0.24
287.49	0.2
287.861	0.19
288.232	0.23
288.603	0.17
288.974	0.31
289.345	0.23
289.716	0.19
290.087	0.23
290.458	0.19
290.829	0.32
291.2	0.17
291.571	0.2
291.941	0.23
292.312	0.23
292.683	0.23
293.054	0.23
293.424	0.23
293.795	0.3
294.166	0.22
294.536	0.26
294.907	0.23
295.277	0.3
295.648	0.17
296.018	0.19
296.389	0.22
296.759	0.19
297.13	0.24
297.5	0.23
297.871	0.22
298.241	0.19
298.611	0.21
298.981	0.22
299.352	0.27
299.722	0.24
300.092	0.22
300.462	0.25
300.832	0.24
301.202	0.22
301.573	0.17
301.943	0.19
302.313	0.19
302.683	0.21
303.053	0.19
303.422	0.18
303.792	0.22
304.162	0.23
304.532	0.24
304.902	0.21
305.272	0.2
305.641	0.21
306.011	0.21
306.381	0.22
306.75	0.21
307.12	0.22
307.49	0.23
307.859	0.23
308.229	0.22
308.598	0.22
308.968	0.23
309.337	0.23
309.707	0.23
310.076	0.24
310.445	0.25
310.815	0.25
311.184	0.25
311.553	0.26
311.923	0.26
312.292	0.25
312.661	0.26
313.03	0.26
313.399	0.26
313.768	0.27
314.137	0.26
314.506	0.26
314.875	0.26
315.244	0.26
315.613	0.25
315.982	0.26
316.351	0.26
316.72	0.26
317.089	0.25
317.458	0.26
317.826	0.25
318.195	0.25
318.564	0.25
318.933	0.25
319.301	0.25
319.67	0.25
320.038	0.24
320.407	0.24
320.775	0.24
321.144	0.23
321.512	0.23
321.881	0.23
322.249	0.23
322.618	0.23
322.986	0.23
323.354	0.22
323.723	0.22
324.091	0.21
324.459	0.23
324.827	0.22
325.195	0.22
325.564	0.21
325.932	0.22
326.3	0.22
326.668	0.22
327.036	0.21
327.404	0.22
327.772	0.21
328.14	0.21
328.508	0.21
328.875	0.22
329.243	0.21
329.611	0.21
329.979	0.21
330.346	0.21
330.714	0.22
331.082	0.22
331.449	0.23
331.817	0.22
332.185	0.22
332.552	0.23
332.92	0.23
333.287	0.23
333.655	0.24
334.022	0.24
334.389	0.24
334.757	0.25
335.124	0.25
335.491	0.24
335.859	0.25
336.226	0.25
336.593	0.25
336.96	0.26
337.327	0.26
337.695	0.27
338.062	0.27
338.429	0.27
338.796	0.28
339.163	0.28
339.53	0.28
339.897	0.29
340.263	0.29
340.63	0.3
340.997	0.31
341.364	0.31
341.731	0.31
342.097	0.32
342.464	0.32
342.831	0.33
343.197	0.33
343.564	0.34
343.931	0.34
344.297	0.35
344.664	0.36
345.03	0.36
345.396	0.36
345.763	0.37
346.129	0.37
346.496	0.38
346.862	0.39
347.228	0.39
347.594	0.4
347.961	0.4
348.327	0.41
348.693	0.42
349.059	0.43
349.425	0.43
349.791	0.44
350.157	0.44
350.523	0.45
350.889	0.46
351.255	0.47
351.621	0.48
351.987	0.49
352.353	0.5
352.719	0.51
353.084	0.52
353.45	0.52
353.816	0.54
354.181	0.55
354.547	0.55
354.913	0.57
355.278	0.58
355.644	0.59
356.009	0.6
356.375	0.61
356.74	0.62
357.106	0.64
357.471	0.65
357.836	0.67
358.202	0.67
358.567	0.69
358.932	0.7
359.297	0.71
359.663	0.73
360.028	0.73
360.393	0.75
360.758	0.75
361.123	0.77
361.488	0.77
361.853	0.78
362.218	0.79
362.583	0.79
362.948	0.8
363.312	0.82
363.677	0.83
364.042	0.83
364.407	0.85
364.772	0.86
365.136	0.87
365.501	0.88
365.865	0.91
366.23	0.93
366.595	0.95
366.959	0.96
367.324	0.97
367.688	0.99
368.052	1.01
368.417	1.02
368.781	1.03
369.145	1.07
369.51	1.05
369.874	1.05
370.238	1.05
370.602	1.05
370.967	1.05
371.331	1.04
371.695	1.05
372.059	1.05
372.423	1.02
372.787	1.03
373.151	1.02
373.515	1.03
373.878	1.01
374.242	1.01
374.606	1.02
374.97	1.02
375.334	1.02
375.697	1.02
376.061	1.03
376.425	1.03
376.788	1.04
377.152	1.04
377.515	1.05
377.879	1.05
378.242	1.07
378.606	1.08
378.969	1.08
379.333	1.1
379.696	1.13
380.059	1.13
380.422	1.15
380.786	1.16
381.149	1.19
381.512	1.2
381.875	1.23
382.238	1.25
382.601	1.27
382.964	1.31
383.327	1.33
383.69	1.37
384.053	1.41
384.416	1.42
384.779	1.46
385.142	1.47
385.504	1.51
385.867	1.53
386.23	1.52
386.593	1.53
386.955	1.55
387.318	1.57
387.68	1.54
388.043	1.56
388.405	1.52
388.768	1.5
389.13	1.48
389.493	1.5
389.855	1.48
390.217	1.49
390.58	1.49
390.942	1.48
391.304	1.49
391.666	1.5
392.028	1.52
392.391	1.57
392.753	1.59
393.115	1.6
393.477	1.69
393.839	1.71
394.201	1.74
394.563	1.83
394.924	1.86
395.286	1.9
395.648	1.92
396.01	1.93
396.371	1.98
396.733	1.93
397.095	1.98
397.456	1.95
397.818	1.98
398.18	1.96
398.541	1.96
398.903	1.9
399.264	1.9
399.625	1.88
399.987	1.87
400.348	1.79
400.709	1.77
401.071	1.68
401.432	1.61
401.793	1.52
402.154	1.47
402.515	1.37
402.876	1.28
403.238	1.2
403.599	1.12
403.96	1.05
404.32	0.98
404.681	0.91
405.042	0.84
405.403	0.78
405.764	0.73
406.125	0.68
406.485	0.63
406.846	0.6
407.207	0.56
407.567	0.53
407.928	0.5
408.288	0.47
408.649	0.44
409.009	0.42
409.37	0.4
409.73	0.38
410.091	0.36
410.451	0.35
410.811	0.33
411.171	0.31
411.532	0.31
411.892	0.29
412.252	0.28
412.612	0.27
412.972	0.25
413.332	0.24
413.692	0.23
414.052	0.23
414.412	0.22
414.772	0.21
415.132	0.2
415.492	0.21
415.851	0.2
416.211	0.18
416.571	0.19
416.931	0.17
417.29	0.18
417.65	0.17
418.009	0.17
418.369	0.16
418.728	0.16
419.088	0.16
419.447	0.15
419.807	0.14
420.166	0.14
420.525	0.14
420.884	0.14
421.244	0.14
421.603	0.13
421.962	0.14
422.321	0.13
422.68	0.14
423.039	0.13
423.398	0.13
423.757	0.13
424.116	0.12
424.475	0.12
424.834	0.12
425.193	0.12
425.551	0.12
425.91	0.12
426.269	0.11
426.628	0.11
426.986	0.12
427.345	0.11
427.703	0.11
428.062	0.11
428.42	0.1
428.779	0.1
429.137	0.11
429.496	0.1
429.854	0.1
430.212	0.1
430.57	0.1
430.929	0.09
431.287	0.09
431.645	0.1
432.003	0.09
432.361	0.09
432.719	0.09
433.077	0.09
433.435	0.09
433.793	0.09
434.151	0.09
434.509	0.09
434.866	0.09
435.224	0.08
435.582	0.08
435.94	0.08
436.297	0.1
436.655	0.08
437.012	0.08
437.37	0.09
437.727	0.08
438.085	0.07
438.442	0.08
438.8	0.08
439.157	0.08
439.514	0.09
439.872	0.08
440.229	0.08
440.586	0.07
440.943	0.08
441.3	0.07
441.657	0.07
442.014	0.08
442.371	0.07
442.728	0.08
443.085	0.07
443.442	0.08
443.799	0.07
444.156	0.07
444.513	0.07
444.869	0.07
445.226	0.07
445.583	0.07
445.939	0.07
446.296	0.07
446.652	0.06
447.009	0.06
447.365	0.06
447.722	0.06
448.078	0.06
448.434	0.06
448.791	0.06
449.147	0.06
449.503	0.06
449.859	0.06
450.215	0.06
450.571	0.06
450.928	0.05
451.284	0.06
451.64	0.06
451.995	0.06
452.351	0.05
452.707	0.05
453.063	0.05
453.419	0.05
453.775	0.05
454.13	0.05
454.486	0.05
454.842	0.04
455.197	0.04
455.553	0.04
455.908	0.04
456.264	0.03
456.619	0.03
456.975	0.03
457.33	0.03
457.685	0.03
458.04	0.03
458.396	0.03
458.751	0.05
459.106	0.02
459.461	0.02
459.816	0.02
460.171	0.02
460.526	0.02
460.881	0
461.236	0.01
461.591	0.01
461.946	0
462.301	-0
462.655	-0
463.01	0
463.365	0
463.719	-0
464.074	-0.01
464.428	-0.01
464.783	-0.02
465.137	-0
465.492	-0.01
465.846	-0.01
466.201	-0.02
466.555	-0.01
466.909	-0.01
467.263	-0.02
467.618	-0
467.972	-0
468.326	-0.01
468.68	-0.02
469.034	-0.02
469.388	-0.01
469.742	-0.01
470.096	-0.01
470.45	-0.01
470.804	-0.01
471.157	-0.01
471.511	-0.01
471.865	-0
472.218	-0.01
472.572	-0
472.926	-0.01
473.279	0
473.633	0
473.986	0.01
474.34	0.01
474.693	0.01
475.046	0.02
475.4	0.03
475.753	0.03
476.106	0.03
476.459	0.04
476.812	0.04
477.165	0.04
477.519	0.05
477.872	0.04
478.224	0.05
478.577	0.06
478.93	0.06
479.283	0.06
479.636	0.06
479.989	0.06
480.341	0.07
480.694	0.07
481.047	0.07
481.399	0.07
481.752	0.08
482.104	0.08
482.457	0.08
482.809	0.08
483.162	0.09
483.514	0.09
483.866	0.09
484.219	0.09
484.571	0.1
484.923	0.1
485.275	0.1
485.627	0.1
485.979	0.1
486.331	0.11
486.683	0.1
487.035	0.11
487.387	0.11
487.739	0.11
488.091	0.11
488.443	0.12
488.794	0.12
489.146	0.12
489.498	0.12
489.849	0.12
490.201	0.12
490.552	0.13
490.904	0.12
491.255	0.14
491.607	0.13
491.958	0.13
492.309	0.14
492.661	0.14
493.012	0.14
493.363	0.14
493.714	0.14
494.065	0.15
494.416	0.14
494.767	0.15
495.118	0.15
495.469	0.15
495.82	0.16
496.171	0.16
496.522	0.16
496.872	0.16
497.223	0.17
497.574	0.16
497.924	0.17
498.275	0.17
498.626	0.17
498.976	0.17
499.327	0.18
499.677	0.18
500.027	0.18
500.378	0.18
500.728	0.18
501.078	0.18
501.428	0.18
501.779	0.19
502.129	0.19
502.479	0.19
502.829	0.19
503.179	0.19
503.529	0.2
503.879	0.2
504.229	0.2
504.578	0.2
504.928	0.2
505.278	0.21
505.628	0.21
505.977	0.21
506.327	0.22
506.676	0.22
507.026	0.22
507.375	0.23
507.725	0.23
508.074	0.23
508.424	0.23
508.773	0.23
509.122	0.23
509.471	0.23
509.82	0.24
510.17	0.24
510.519	0.24
510.868	0.25
511.217	0.25
511.566	0.25
511.915	0.25
512.263	0.25
512.612	0.26
512.961	0.26
513.31	0.26
513.659	0.27
514.007	0.26
514.356	0.26
514.704	0.26
515.053	0.27
515.401	0.27
515.75	0.27
516.098	0.28
516.447	0.27
516.795	0.28
517.143	0.28
517.491	0.29
517.839	0.28
518.188	0.29
518.536	0.29
518.884	0.29
519.232	0.3
519.58	0.3
519.928	0.3
520.275	0.3
520.623	0.3
520.971	0.31
521.319	0.31
521.666	0.31
522.014	0.31
522.362	0.32
522.709	0.32
523.057	0.32
523.404	0.32
523.752	0.33
524.099	0.33
524.446	0.33
524.794	0.33
525.141	0.33
525.488	0.34
525.835	0.34
526.182	0.34
526.529	0.34
526.876	0.35
527.223	0.35
527.57	0.35
527.917	0.35
528.264	0.35
528.611	0.35
528.958	0.36
529.304	0.36
529.651	0.36
529.998	0.37
530.344	0.37
530.691	0.37
531.037	0.37
531.384	0.38
531.73	0.38
532.076	0.39
532.423	0.39
532.769	0.39
533.115	0.39
533.461	0.39
533.807	0.4
534.154	0.4
534.5	0.4
534.846	0.4
535.192	0.41
535.537	0.4
535.883	0.41
536.229	0.41
536.575	0.42
536.921	0.42
537.266	0.42
537.612	0.42
537.957	0.42
538.303	0.43
538.649	0.44
538.994	0.44
539.339	0.44
539.685	0.45
540.03	0.44
540.375	0.45
540.721	0.45
541.066	0.46
541.411	0.46
541.756	0.46
542.101	0.46
542.446	0.47
542.791	0.47
543.136	0.48
543.481	0.48
543.825	0.48
544.17	0.48
544.515	0.48
544.86	0.49
545.204	0.49
545.549	0.5
545.893	0.5
546.238	0.51
546.582	0.5
546.927	0.51
547.271	0.52
547.615	0.52
547.96	0.52
548.304	0.52
548.648	0.53
548.992	0.53
549.336	0.53
549.68	0.53
550.024	0.53
550.368	0.54
550.712	0.54
551.056	0.54
551.4	0.55
551.743	0.55
552.087	0.55
552.431	0.55
552.774	0.56
553.118	0.56
553.462	0.56
553.805	0.56
554.148	0.56
554.492	0.57
554.835	0.57
555.178	0.57
555.522	0.57
555.865	0.58
556.208	0.58
556.551	0.58
556.894	0.58
557.237	0.58
557.58	0.58
557.923	0.59
558.266	0.59
558.609	0.59
558.952	0.59
559.294	0.59
559.637	0.59
559.98	0.59
560.322	0.6
560.665	0.6
561.007	0.6
561.35	0.59
561.692	0.6
562.034	0.6
562.377	0.6
562.719	0.6
563.061	0.61
563.403	0.61
563.745	0.61
564.088	0.61
564.43	0.61
564.772	0.62
565.113	0.61
565.455	0.62
565.797	0.62
566.139	0.62
566.481	0.62
566.822	0.62
567.164	0.62
567.506	0.62
567.847	0.63
568.189	0.63
568.53	0.62
568.872	0.62
569.213	0.63
569.554	0.63
569.895	0.63
570.237	0.63
570.578	0.63
570.919	0.62
571.26	0.63
571.601	0.63
571.942	0.63
572.283	0.63
572.624	0.62
572.965	0.62
573.306	0.63
573.646	0.62
573.987	0.63
574.328	0.63
574.668	0.63
575.009	0.63
575.349	0.63
575.69	0.63
576.03	0.63
576.37	0.62
576.711	0.62
577.051	0.62
577.391	0.63
577.731	0.64
578.072	0.63
578.412	0.63
578.752	0.63
579.092	0.63
579.431	0.62
579.771	0.6
580.111	0.58
580.451	0.59
580.791	0.61
581.13	0.63
581.47	0.64
581.81	0.64
582.149	0.64
582.489	0.64
582.828	0.64
583.167	0.61
583.507	0.57
583.846	0.55
584.185	0.56
584.525	0.59
584.864	0.62
585.203	0.64
585.542	0.65
585.881	0.66
586.22	0.66
586.559	0.66
586.898	0.65
587.236	0.64
587.575	0.62
587.914	0.63
588.252	0.66
588.591	0.67
588.93	0.68
589.268	0.67
589.607	0.67
589.945	0.68
590.283	0.68
590.622	0.68
590.96	0.69
591.298	0.7
591.636	0.69
591.974	0.7
592.313	0.7
592.651	0.71
592.989	0.71
593.326	0.71
593.664	0.72
594.002	0.72
594.34	0.72
594.678	0.72
595.015	0.72
595.353	0.71
595.691	0.71
596.028	0.72
596.366	0.73
596.703	0.74
597.04	0.74
597.378	0.75
597.715	0.75
598.052	0.76
598.389	0.76
598.726	0.76
599.064	0.76
599.401	0.76
599.738	0.76
600.074	0.76
600.411	0.77
600.748	0.76
601.085	0.76
601.422	0.75
601.758	0.75
602.095	0.76
602.432	0.76
602.768	0.76
603.105	0.77
603.441	0.77
603.777	0.77
604.114	0.77
604.45	0.77
604.786	0.77
605.122	0.77
605.459	0.77
605.795	0.77
606.131	0.77
606.467	0.77
606.803	0.77
607.139	0.77
607.474	0.77
607.81	0.76
608.146	0.76
608.482	0.76
608.817	0.76
609.153	0.75
609.488	0.75
609.824	0.75
610.159	0.75
610.495	0.75
610.83	0.75
611.165	0.75
611.5	0.75
611.836	0.75
612.171	0.74
612.506	0.75
612.841	0.75
613.176	0.74
613.511	0.74
613.845	0.74
614.18	0.74
614.515	0.74
614.85	0.73
615.184	0.73
615.519	0.73
615.854	0.73
616.188	0.73
616.523	0.73
616.857	0.72
617.191	0.72
617.526	0.71
617.86	0.71
618.194	0.71
618.528	0.71
618.862	0.71
619.196	0.71
619.53	0.71
619.864	0.7
620.198	0.7
620.532	0.7
620.866	0.7
621.2	0.7
621.533	0.7
621.867	0.69
622.201	0.69
622.534	0.69
622.868	0.69
623.201	0.69
623.534	0.68
623.868	0.68
624.201	0.67
624.534	0.67
624.868	0.67
625.201	0.67
625.534	0.66
625.867	0.66
626.2	0.66
626.533	0.65
626.865	0.65
627.198	0.65
627.531	0.65
627.864	0.64
628.196	0.64
628.529	0.64
628.862	0.63
629.194	0.63
629.527	0.63
629.859	0.62
630.191	0.62
630.524	0.62
630.856	0.61
631.188	0.6
631.52	0.61
631.852	0.6
632.184	0.6
632.516	0.59
632.848	0.59
633.18	0.59
633.512	0.58
633.844	0.58
634.175	0.57
634.507	0.57
634.839	0.56
635.17	0.56
635.502	0.56
635.833	0.55
636.165	0.55
636.496	0.54
636.827	0.53
637.159	0.53
637.49	0.53
637.821	0.52
638.152	0.52
638.483	0.52
638.814	0.51
639.145	0.51
639.476	0.51
639.807	0.5
640.137	0.5
640.468	0.49
640.799	0.49
641.129	0.48
641.46	0.48
641.791	0.48
642.121	0.47
642.451	0.47
642.782	0.47
643.112	0.47
643.442	0.46
643.773	0.46
644.103	0.46
644.433	0.46
644.763	0.45
645.093	0.45
645.423	0.44
645.753	0.44
646.082	0.44
646.412	0.44
646.742	0.44
647.072	0.43
647.401	0.44
647.731	0.43
648.06	0.43
648.39	0.43
648.719	0.43
649.048	0.42
649.378	0.42
649.707	0.42
650.036	0.42
650.365	0.42
650.694	0.42
651.023	0.41
651.352	0.41
651.681	0.41
652.01	0.41
652.339	0.41
652.668	0.41
652.996	0.41
653.325	0.41
653.654	0.41
653.982	0.41
654.311	0.41
654.639	0.41
654.967	0.41
655.296	0.41
655.624	0.41
655.952	0.41
656.28	0.4
656.609	0.4
656.937	0.41
657.265	0.4
657.593	0.35
657.92	0.2
658.248	0.14
658.576	0.12
658.904	0.2
659.231	0.29
659.559	0.37
659.887	0.39
660.214	0.4
660.542	0.4
660.869	0.4
661.196	0.4
661.524	0.4
661.851	0.4
662.178	0.4
662.505	0.4
662.832	0.4
663.159	0.4
663.486	0.4
663.813	0.4
664.14	0.39
664.467	0.4
664.794	0.39
665.12	0.39
665.447	0.39
665.774	0.39
666.1	0.39
666.427	0.38
666.753	0.38
667.079	0.38
667.406	0.38
667.732	0.38
668.058	0.38
668.384	0.38
668.71	0.38
669.036	0.38
669.362	0.38
669.688	0.38
670.014	0.38
670.34	0.37
670.666	0.37
670.991	0.37
671.317	0.37
671.643	0.37
671.968	0.37
672.294	0.37
672.619	0.37
672.945	0.36
673.27	0.36
673.595	0.36
673.92	0.35
674.246	0.35
674.571	0.34
674.896	0.34
675.221	0.35
675.546	0.34
675.87	0.34
676.195	0.34
676.52	0.34
676.845	0.33
677.169	0.33
677.494	0.33
677.819	0.32
678.143	0.32
678.468	0.32
678.792	0.32
679.116	0.32
679.44	0.31
679.765	0.31
680.089	0.31
680.413	0.3
680.737	0.3
681.061	0.3
681.385	0.29
681.709	0.29
682.033	0.29
682.356	0.29
682.68	0.29
683.004	0.28
683.327	0.28
683.651	0.27
683.974	0.27
684.298	0.27
684.621	0.27
684.944	0.26
685.268	0.26
685.591	0.26
685.914	0.26
686.237	0.25
686.56	0.25
686.883	0.24
687.206	0.24
687.529	0.23
687.852	0.23
688.175	0.23
688.497	0.23
688.82	0.23
689.142	0.23
689.465	0.23
689.787	0.22
690.11	0.22
690.432	0.22
690.755	0.22
691.077	0.21
691.399	0.21
691.721	0.2
692.043	0.2
692.365	0.2
692.687	0.2
693.009	0.19
693.331	0.19
693.653	0.18
693.974	0.19
694.296	0.18
694.618	0.18
694.939	0.18
695.261	0.18
695.582	0.17
695.904	0.17
696.225	0.18
696.546	0.18
696.868	0.17
697.189	0.17
697.51	0.17
697.831	0.16
698.152	0.16
698.473	0.16
698.794	0.15
699.114	0.15
699.435	0.13
699.756	0.13
700.077	0.14
700.397	0.14
700.718	0.14
701.038	0.14
701.359	0.14
701.679	0.15
701.999	0.14
702.32	0.14
702.64	0.14
702.96	0.14
703.28	0.14
703.6	0.14
703.92	0.14
704.24	0.13
704.56	0.13
704.879	0.12
705.199	0.13
705.519	0.13
705.838	0.13
706.158	0.13
706.478	0.12
706.797	0.13
707.116	0.13
707.436	0.13
707.755	0.13
708.074	0.13
708.393	0.12
708.712	0.11
709.031	0.1
709.35	0.1
709.669	0.1
709.988	0.1
710.307	0.1
710.626	0.1
710.944	0.11
711.263	0.11
711.582	0.12
711.9	0.12
712.219	0.11
712.537	0.11
712.855	0.11
713.174	0.11
713.492	0.11
713.81	0.12
714.128	0.12
714.446	0.12
714.764	0.11
715.082	0.1
715.4	0.11
715.718	0.11
716.035	0.1
716.353	0.11
716.671	0.11
716.988	0.11
717.306	0.1
717.623	0.11
717.941	0.11
718.258	0.12
718.575	0.12
718.893	0.12
719.21	0.12
719.527	0.12
719.844	0.12
720.161	0.12
720.478	0.12
720.795	0.12
721.112	0.13
721.428	0.13
721.745	0.13
722.062	0.13
722.378	0.13
722.695	0.13
723.011	0.13
723.328	0.13
723.644	0.13
723.96	0.13
724.276	0.13
724.593	0.13
724.909	0.14
725.225	0.13
725.541	0.13
725.857	0.14
726.173	0.14
726.488	0.14
726.804	0.14
727.12	0.14
727.435	0.14
727.751	0.14
728.067	0.13
728.382	0.14
728.697	0.13
729.013	0.14
729.328	0.13
729.643	0.14
729.958	0.14
730.273	0.13
730.588	0.13
730.903	0.14
731.218	0.13
731.533	0.14
731.848	0.13
732.163	0.14
732.477	0.13
732.792	0.13
733.107	0.12
733.421	0.13
733.736	0.13
734.05	0.13
734.364	0.13
734.678	0.13
734.993	0.13
735.307	0.13
735.621	0.13
735.935	0.13
736.249	0.13
736.563	0.13
736.877	0.13
737.19	0.14
737.504	0.14
737.818	0.14
738.131	0.13
738.445	0.14
738.758	0.13
739.072	0.13
739.385	0.13
739.698	0.13
740.012	0.13
740.325	0.13
740.638	0.13
740.951	0.13
741.264	0.13
741.577	0.13
741.89	0.13
742.203	0.13
742.515	0.13
742.828	0.13
743.141	0.13
743.453	0.13
743.766	0.12
744.078	0.12
744.391	0.12
744.703	0.12
745.015	0.12
745.327	0.12
745.639	0.11
745.952	0.11
746.264	0.11
746.575	0.11
746.887	0.11
747.199	0.11
747.511	0.11
747.823	0.11
748.134	0.11
748.446	0.11
748.757	0.11
749.069	0.1
749.38	0.1
749.692	0.11
750.003	0.1
750.314	0.1
750.625	0.1
750.936	0.1
751.248	0.09
751.559	0.09
751.869	0.09
752.18	0.09
752.491	0.09
752.802	0.08
753.112	0.09
753.423	0.08
753.734	0.09
754.044	0.09
754.355	0.09
754.665	0.09
754.975	0.08
755.285	0.08
755.596	0.08
755.906	0.08
756.216	0.07
756.526	0.08
756.836	0.07
757.146	0.07
757.455	0.07
757.765	0.07
758.075	0.07
758.385	0.07
758.694	0.07
759.004	0.06
759.313	0.06
759.622	0.06
759.932	0.06
760.241	0.06
760.55	0.06
760.859	0.06
761.168	0.06
761.477	0.05
761.786	0.05
762.095	0.05
762.404	0.05
762.713	0.05
763.021	0.05
763.33	0.05
763.639	0.05
763.947	0.05
764.256	0.05
764.564	0.05
764.872	0.05
765.181	0.04
765.489	0.04
765.797	0.04
766.105	0.04
766.413	0.04
766.721	0.04
767.029	0.04
767.337	0.04
767.644	0.04
767.952	0.04
768.26	0.04
768.567	0.04
768.875	0.04
769.182	0.05
769.49	0.05
769.797	0.04
770.104	0.04
770.411	0.04
770.718	0.04
771.026	0.04
771.333	0.04
771.639	0.04
771.946	0.04
772.253	0.04
772.56	0.04
772.867	0.04
773.173	0.04
773.48	0.04
773.786	0.04
774.093	0.03
774.399	0.03
774.705	0.03
775.012	0.03
775.318	0.03
775.624	0.03
775.93	0.03
776.236	0.03
776.542	0.03
776.848	0.03
777.154	0.03
777.459	0.03
777.765	0.04
778.071	0.04
778.376	0.04
778.682	0.04
778.987	0.03
779.292	0.03
779.598	0.04
779.903	0.04
780.208	0.04
780.513	0.04
780.818	0.04
781.123	0.04
781.428	0.04
781.733	0.04
782.038	0.04
782.343	0.04
782.647	0.04
782.952	0.04
783.256	0.04
783.561	0.04
783.865	0.04
784.17	0.04
784.474	0.04
784.778	0.03
785.082	0.03
785.386	0.03
785.69	0.03
785.994	0.03
786.298	0.04
786.602	0.03
786.906	0.03
787.209	0.04
787.513	0.04
787.817	0.04
788.12	0.04
788.424	0.03
788.727	0.04
789.03	0.03
789.333	0.03
789.637	0.04
789.94	0.04
790.243	0.04
790.546	0.03
790.849	0.04
791.152	0.04
791.454	0.03
791.757	0.03
792.06	0.03
792.362	0.03
792.665	0.04
792.967	0.03
793.27	0.03
793.572	0.03
793.874	0.03
794.177	0.03
794.479	0.04
794.781	0.04
795.083	0.03
795.385	0.03
795.687	0.03
795.989	0.03
796.29	0.03
796.592	0.04
796.894	0.04
797.195	0.04
797.497	0.04
797.798	0.04
798.1	0.04
798.401	0.04
798.702	0.04
799.003	0.04
799.304	0.04
799.605	0.04
799.906	0.04
800.207	0.04
800.508	0.04
800.809	0.04
801.11	0.03
801.41	0.03
801.711	0.03
802.011	0.03
802.312	0.03
802.612	0.03
802.913	0.03
803.213	0.03
803.513	0.03
803.813	0.03
804.113	0.03
804.413	0.04
804.713	0.04
805.013	0.04
805.313	0.04
805.613	0.04
805.912	0.04
806.212	0.04
806.511	0.03
806.811	0.04
807.11	0.04
807.41	0.04
807.709	0.04
808.008	0.04
808.307	0.04
808.606	0.04
808.905	0.04
809.204	0.04
809.503	0.04
809.802	0.04
810.101	0.04
810.399	0.04
810.698	0.04
810.997	0.04
811.295	0.04
811.593	0.04
811.892	0.04
812.19	0.04
812.488	0.04
812.786	0.04
813.084	0.04
813.383	0.04
813.68	0.05
813.978	0.05
814.276	0.05
814.574	0.05
814.872	0.05
815.169	0.04
815.467	0.04
815.764	0.04
816.062	0.04
816.359	0.04
816.656	0.04
816.954	0.04
817.251	0.05
817.548	0.05
817.845	0.05
818.142	0.06
818.439	0.06
818.735	0.06
819.032	0.05
819.329	0.05
819.626	0.05
819.922	0.05
820.219	0.05
820.515	0.05
820.811	0.05
821.108	0.05
821.404	0.05
821.7	0.04
821.996	0.04
822.292	0.04
822.588	0.04
822.884	0.05
823.18	0.05
823.475	0.05
823.771	0.05
824.067	0.06
824.362	0.05
824.658	0.05
824.953	0.05
825.249	0.05
825.544	0.04
825.839	0.05
826.134	0.05
826.429	0.06
826.724	0.06
827.019	0.06
827.314	0.05
827.609	0.05
827.904	0.04
828.198	0.04
828.493	0.04
828.787	0.04
829.082	0.04
829.376	0.04
829.671	0.04
829.965	0.04
830.259	0.05
830.553	0.05
830.847	0.06
831.141	0.06
831.435	0.06
831.729	0.06
832.023	0.06
832.317	0.06
832.61	0.06
832.904	0.06
833.197	0.06
833.491	0.06
833.784	0.06
834.077	0.06
834.371	0.06
834.664	0.06
834.957	0.06
835.25	0.06
835.543	0.06
835.836	0.06
836.129	0.06
836.421	0.06
836.714	0.05
837.007	0.06
837.299	0.06
837.592	0.06
837.884	0.05
838.177	0.05
838.469	0.05
838.761	0.05
839.053	0.05
839.345	0.06
839.637	0.05
839.929	0.06
840.221	0.07
840.513	0.06
840.805	0.06
841.096	0.07
841.388	0.07
841.68	0.06
841.971	0.06
842.262	0.07
842.554	0.06
842.845	0.07
843.136	0.07
843.427	0.06
843.718	0.06
844.009	0.07
844.3	0.06
844.591	0.06
844.882	0.06
845.173	0.06
845.463	0.05
845.754	0.06
846.044	0.06
846.335	0.06
846.625	0.06
846.915	0.06
847.206	0.06
847.496	0.07
847.786	0.07
848.076	0.06
848.366	0.06
848.656	0.06
848.945	0.07
849.235	0.07
849.525	0.07
849.814	0.05
850.104	0.04
850.393	0.05
850.683	0.06
850.972	0.06
851.261	0.06
851.551	0.07
851.84	0.06
852.129	0.06
852.418	0.07
852.707	0.07
852.995	0.06
853.284	0.06
853.573	0.06
853.862	0.06
854.15	0.06
854.439	0.07
854.727	0.06
855.015	0.06
855.304	0.06
855.592	0.05
855.88	0.05
856.168	0.06
856.456	0.07
856.744	0.07
857.032	0.07
857.32	0.07
857.607	0.07
857.895	0.05
858.183	0.06
858.47	0.06
858.757	0.05
859.045	0.05
859.332	0.06
859.619	0.06
859.907	0.06
860.194	0.06
860.481	0.06
860.768	0.06
861.054	0.06
861.341	0.06
861.628	0.05
861.915	0.06
862.201	0.04
862.488	0.05
862.774	0.07
863.061	0.05
863.347	0.06
863.633	0.05
863.919	0.05
864.205	0.06
864.491	0.05
864.777	0.05
865.063	0.02
865.349	0.03
865.635	0.06
865.92	0.06
866.206	0.05
866.492	0.06
866.777	0.07
867.062	0.06
867.348	0.06
867.633	0.06
867.918	0.01
868.203	0.05
868.488	0.06
868.773	0.05
869.058	0.05
869.343	0.03
869.628	0.02
869.912	0.02
870.197	0.06
870.482	0.07
870.766	0.06
871.05	0.01
871.335	0.03
871.619	0.05
871.903	0.02
872.187	0.04
872.471	0.07
872.755	0.04
873.039	0.03
873.323	0.04
873.607	0.02
873.89	0.03
874.174	0.04
874.458	0.01
874.741	-0.02
875.024	0.04
875.308	0.05
875.591	0
875.874	-0.02
876.157	0.05
876.44	-0.03
876.723	0.05
877.006	-0.01
877.289	-0
877.572	0.04
877.854	0.02
878.137	0.03
878.42	0.01
878.702	-0.02
878.984	0.03
879.267	-0.04
879.549	0.01
879.831	-0
880.113	0.09
880.395	0.02
880.677	0.04
880.959	0.02
