Data from Rubpy_EV_1800_EDTA_Buffered_Absorbance_15-20-06-540.txt Node
Date: Tue Jun 30 15:20:06 BST 2026
User: fpm-admin
Spectrometer: OFX00224
Trigger mode: 0
Integration Time (sec): 7.000000E-2
Scans to average: 3
Nonlinearity correction enabled: false
Boxcar width: 0
Storing dark spectrum: false
XAxis mode: Wavelengths
Number of Pixels in Spectrum: 2136
>>>>>Begin Spectral Data<<<<<
154.91	-0
155.289	-0
155.669	-0
156.048	-0.43
156.428	0.16
156.807	-0
157.186	-0
157.566	-0.52
157.945	-0.08
158.325	-0
158.704	-0
159.083	-0.52
159.462	-0.25
159.842	-0.08
160.221	0.15
160.6	-0.37
160.979	-0.83
161.359	-0.17
161.738	0.1
162.117	-0
162.496	-0.17
162.875	-0.42
163.254	-0.15
163.633	-0
164.012	-0.5
164.391	0.39
164.77	-0
165.149	-0.12
165.528	-0
165.907	-0.56
166.286	-0.14
166.665	-0.47
167.044	-0.97
167.423	-0
167.802	0.14
168.181	0.26
168.559	-0
168.938	-0.51
169.317	-0.59
169.696	-0.13
170.074	-0
170.453	-0
170.832	0.02
171.21	-0
171.589	-0
171.968	-0
172.346	-0.56
172.725	-0.08
173.103	0.12
173.482	0.07
173.861	1.02
174.239	-0
174.617	0.26
174.996	-0.03
175.374	-0.44
175.753	-0.43
176.131	-0
176.51	0.45
176.888	-0
177.266	0.41
177.645	-0.2
178.023	0.05
178.401	-0.06
178.779	-0
179.158	0.07
179.536	0.48
179.914	-0.39
180.292	-0.39
180.67	-0
181.048	-0.37
181.427	0.31
181.805	-0.06
182.183	-0
182.561	-0
182.939	-0
183.317	-0.63
183.695	-0
184.073	0.05
184.451	0.23
184.829	0.32
185.206	-0.66
185.584	-0.34
185.962	-0.27
186.34	-0.05
186.718	-0
187.096	0.15
187.473	-0
187.851	-0
188.229	0.05
188.607	-0.06
188.984	-0.04
189.362	0.07
189.74	-0.01
190.117	-0.03
190.495	-0
190.872	-0.11
191.25	-0.08
191.627	-0.13
192.005	-0.09
192.382	-0.04
192.76	0.04
193.137	0.05
193.515	-0.1
193.892	0.06
194.269	-0.03
194.647	-0.05
195.024	-0.02
195.401	0.11
195.779	-0.06
196.156	-0.01
196.533	0.01
196.91	0.04
197.288	-0.02
197.665	0.06
198.042	-0
198.419	-0.01
198.796	-0.02
199.173	0.06
199.55	0.01
199.927	0.02
200.304	-0.03
200.681	-0.04
201.058	-0
201.435	0.05
201.812	0
202.189	-0
202.566	-0.06
202.943	-0.01
203.32	-0.08
203.697	-0.09
204.073	0.05
204.45	0.01
204.827	-0.01
205.204	-0.04
205.58	-0.05
205.957	-0.08
206.334	-0.04
206.71	-0.03
207.087	-0.08
207.464	-0.1
207.84	0.02
208.217	0
208.593	-0.01
208.97	-0.08
209.346	0.01
209.723	-0.05
210.099	-0.06
210.476	-0.01
210.852	0.06
211.228	-0
211.605	-0.08
211.981	-0.02
212.357	-0.04
212.733	-0.05
213.11	0.03
213.486	0.04
213.862	-0.05
214.238	0.01
214.614	-0
214.991	-0.02
215.367	0.03
215.743	0.02
216.119	-0.01
216.495	0.02
216.871	-0.06
217.247	-0.01
217.623	-0.01
217.999	0.06
218.375	-0.04
218.751	-0.05
219.127	0.03
219.502	-0.06
219.878	-0.06
220.254	0.01
220.63	0.01
221.006	-0.02
221.381	0.02
221.757	0.02
222.133	0.06
222.508	-0
222.884	-0.03
223.26	-0.05
223.635	-0.02
224.011	0.04
224.386	0.01
224.762	-0.02
225.137	0
225.513	-0.06
225.888	-0.02
226.264	-0.02
226.639	0.05
227.014	0.03
227.39	-0.04
227.765	0
228.14	-0.04
228.516	0
228.891	0.09
229.266	0
229.641	0.05
230.017	-0.04
230.392	-0.02
230.767	0.06
231.142	-0.01
231.517	-0.04
231.892	-0
232.267	-0
232.642	-0.02
233.017	-0.07
233.392	0.01
233.767	-0
234.142	-0.07
234.517	-0.01
234.892	0.02
235.267	0.07
235.641	-0.04
236.016	-0.03
236.391	-0.07
236.766	0.01
237.14	-0.02
237.515	-0.06
237.89	-0
238.264	-0.02
238.639	-0
239.014	0.03
239.388	-0
239.763	-0.01
240.137	-0.01
240.512	0.01
240.886	0.01
241.261	-0.03
241.635	-0
242.009	-0.05
242.384	-0
242.758	0.02
243.132	0.02
243.507	-0.03
243.881	-0.04
244.255	0.02
244.629	-0.03
245.004	-0.07
245.378	-0.05
245.752	0.08
246.126	0.02
246.5	0
246.874	-0.02
247.248	-0.02
247.622	-0.02
247.996	0.01
248.37	-0
248.744	-0.02
249.118	0.02
249.492	-0.07
249.866	-0.04
250.24	-0
250.613	0
250.987	-0
251.361	-0.01
251.735	-0.01
252.108	-0
252.482	0.01
252.856	-0.03
253.229	-0
253.603	0
253.977	-0.02
254.35	-0.07
254.724	-0.07
255.097	-0.09
255.471	0.03
255.844	0.05
256.218	0.04
256.591	-0.04
256.964	0.04
257.338	-0.04
257.711	-0.01
258.084	-0.01
258.458	0
258.831	-0.02
259.204	0.01
259.577	-0.04
259.95	0.04
260.323	-0.01
260.697	-0.02
261.07	0.01
261.443	0.05
261.816	-0.03
262.189	0.02
262.562	0.04
262.935	-0.08
263.308	0.03
263.68	0.04
264.053	0.01
264.426	-0.02
264.799	0.02
265.172	0.03
265.545	0.03
265.917	-0.01
266.29	-0
266.663	0.04
267.035	0.01
267.408	-0.02
267.781	-0.01
268.153	0.06
268.526	0.02
268.898	0.03
269.271	0.01
269.643	0.02
270.016	-0.03
270.388	-0
270.76	0.03
271.133	-0.01
271.505	0.05
271.877	-0.02
272.25	-0.02
272.622	-0.06
272.994	-0.04
273.366	-0.02
273.739	0.01
274.111	-0.01
274.483	-0.04
274.855	-0.01
275.227	-0.02
275.599	0.05
275.971	-0
276.343	-0
276.715	0.09
277.087	0.03
277.459	-0.02
277.831	0.01
278.203	0.05
278.574	0.08
278.946	0.02
279.318	0.06
279.69	-0.01
280.061	-0
280.433	0.01
280.805	0.02
281.176	-0.04
281.548	0.04
281.92	-0.03
282.291	-0.06
282.663	-0.02
283.034	-0.02
283.406	-0.01
283.777	-0.02
284.148	-0.02
284.52	-0.06
284.891	-0.02
285.262	-0.02
285.634	-0.02
286.005	0.02
286.376	-0.05
286.747	0.04
287.119	-0
287.49	0
287.861	0.01
288.232	0.01
288.603	-0.04
288.974	0.02
289.345	-0.11
289.716	0.02
290.087	-0.02
290.458	0.01
290.829	0.01
291.2	-0.03
291.571	0
291.941	0.01
292.312	0.01
292.683	0.04
293.054	-0.03
293.424	0.01
293.795	0.06
294.166	0.03
294.536	0.02
294.907	0.03
295.277	0.03
295.648	-0.02
296.018	0
296.389	0.03
296.759	-0.02
297.13	-0
297.5	0.01
297.871	0.02
298.241	0.02
298.611	0.02
298.981	-0.01
299.352	0.05
299.722	0.01
300.092	-0.01
300.462	0.05
300.832	0.02
301.202	0.01
301.573	0.02
301.943	0.01
302.313	-0.01
302.683	-0.01
303.053	-0.01
303.422	0.02
303.792	-0
304.162	0.02
304.532	0.03
304.902	0
305.272	0.01
305.641	0.02
306.011	0.01
306.381	0.02
306.75	0.02
307.12	0.01
307.49	0.02
307.859	0.03
308.229	0.01
308.598	0.01
308.968	0.01
309.337	0.01
309.707	0.01
310.076	0.02
310.445	0.01
310.815	0.02
311.184	0.01
311.553	0.02
311.923	0.01
312.292	0.02
312.661	0.02
313.03	0.02
313.399	0.01
313.768	0.02
314.137	0.02
314.506	0.02
314.875	0.02
315.244	0.02
315.613	0.01
315.982	0.02
316.351	0.01
316.72	0.01
317.089	0.02
317.458	0.01
317.826	0.01
318.195	0.02
318.564	0.02
318.933	0.01
319.301	0.01
319.67	0.01
320.038	0.01
320.407	0.02
320.775	0.02
321.144	0.01
321.512	0.01
321.881	0.01
322.249	0.01
322.618	0.02
322.986	0.01
323.354	0.02
323.723	0.01
324.091	0.01
324.459	0.01
324.827	0.01
325.195	0.01
325.564	0.01
325.932	0.01
326.3	0.01
326.668	0.01
327.036	0.01
327.404	0.01
327.772	0.01
328.14	0.01
328.508	0.01
328.875	0.02
329.243	0.01
329.611	0.01
329.979	0.01
330.346	0.01
330.714	0.01
331.082	0.01
331.449	0.01
331.817	0.01
332.185	0.01
332.552	0.01
332.92	0.01
333.287	0.01
333.655	0.01
334.022	0.02
334.389	0.01
334.757	0.01
335.124	0.02
335.491	0.01
335.859	0.02
336.226	0.02
336.593	0.01
336.96	0.01
337.327	0.01
337.695	0.01
338.062	0.01
338.429	0.01
338.796	0.02
339.163	0.01
339.53	0.01
339.897	0.01
340.263	0.01
340.63	0.01
340.997	0.02
341.364	0.01
341.731	0.02
342.097	0.02
342.464	0.02
342.831	0.01
343.197	0.01
343.564	0.02
343.931	0.02
344.297	0.02
344.664	0.02
345.03	0.02
345.396	0.02
345.763	0.02
346.129	0.02
346.496	0.02
346.862	0.02
347.228	0.02
347.594	0.02
347.961	0.02
348.327	0.02
348.693	0.02
349.059	0.02
349.425	0.03
349.791	0.02
350.157	0.03
350.523	0.02
350.889	0.02
351.255	0.02
351.621	0.02
351.987	0.03
352.353	0.03
352.719	0.03
353.084	0.03
353.45	0.03
353.816	0.03
354.181	0.03
354.547	0.03
354.913	0.03
355.278	0.03
355.644	0.03
356.009	0.03
356.375	0.04
356.74	0.03
357.106	0.03
357.471	0.03
357.836	0.04
358.202	0.03
358.567	0.04
358.932	0.04
359.297	0.04
359.663	0.04
360.028	0.04
360.393	0.04
360.758	0.05
361.123	0.04
361.488	0.05
361.853	0.04
362.218	0.04
362.583	0.04
362.948	0.04
363.312	0.04
363.677	0.05
364.042	0.05
364.407	0.05
364.772	0.05
365.136	0.05
365.501	0.05
365.865	0.05
366.23	0.05
366.595	0.06
366.959	0.06
367.324	0.05
367.688	0.06
368.052	0.06
368.417	0.06
368.781	0.06
369.145	0.07
369.51	0.06
369.874	0.07
370.238	0.07
370.602	0.07
370.967	0.06
371.331	0.06
371.695	0.06
372.059	0.07
372.423	0.07
372.787	0.06
373.151	0.06
373.515	0.07
373.878	0.06
374.242	0.07
374.606	0.06
374.97	0.07
375.334	0.06
375.697	0.06
376.061	0.07
376.425	0.07
376.788	0.07
377.152	0.06
377.515	0.07
377.879	0.07
378.242	0.07
378.606	0.07
378.969	0.07
379.333	0.07
379.696	0.07
380.059	0.08
380.422	0.08
380.786	0.07
381.149	0.08
381.512	0.09
381.875	0.08
382.238	0.09
382.601	0.09
382.964	0.1
383.327	0.09
383.69	0.1
384.053	0.1
384.416	0.1
384.779	0.11
385.142	0.11
385.504	0.1
385.867	0.11
386.23	0.11
386.593	0.11
386.955	0.11
387.318	0.11
387.68	0.11
388.043	0.12
388.405	0.11
388.768	0.11
389.13	0.11
389.493	0.11
389.855	0.11
390.217	0.11
390.58	0.11
390.942	0.11
391.304	0.11
391.666	0.11
392.028	0.11
392.391	0.12
392.753	0.12
393.115	0.12
393.477	0.13
393.839	0.13
394.201	0.13
394.563	0.14
394.924	0.15
395.286	0.15
395.648	0.16
396.01	0.17
396.371	0.17
396.733	0.17
397.095	0.18
397.456	0.18
397.818	0.18
398.18	0.18
398.541	0.18
398.903	0.17
399.264	0.16
399.625	0.16
399.987	0.15
400.348	0.15
400.709	0.14
401.071	0.13
401.432	0.12
401.793	0.11
402.154	0.11
402.515	0.1
402.876	0.09
403.238	0.09
403.599	0.08
403.96	0.08
404.32	0.07
404.681	0.06
405.042	0.06
405.403	0.05
405.764	0.06
406.125	0.04
406.485	0.05
406.846	0.04
407.207	0.04
407.567	0.04
407.928	0.04
408.288	0.03
408.649	0.03
409.009	0.03
409.37	0.02
409.73	0.02
410.091	0.02
410.451	0.03
410.811	0.02
411.171	0.02
411.532	0.02
411.892	0.02
412.252	0.02
412.612	0.02
412.972	0.01
413.332	0.01
413.692	0.02
414.052	0.01
414.412	0.01
414.772	0.01
415.132	0.01
415.492	0.01
415.851	0.01
416.211	0.01
416.571	0.01
416.931	0.01
417.29	0.01
417.65	0.01
418.009	0.01
418.369	0.01
418.728	0.01
419.088	0.01
419.447	0
419.807	0
420.166	0.01
420.525	0.01
420.884	0.01
421.244	0.01
421.603	0.01
421.962	0.02
422.321	0.01
422.68	0.01
423.039	0.01
423.398	0.01
423.757	0.01
424.116	0.01
424.475	0.01
424.834	0
425.193	0.01
425.551	0.01
425.91	0.01
426.269	0.01
426.628	0.01
426.986	0.01
427.345	0
427.703	0.01
428.062	0.01
428.42	0.01
428.779	0.01
429.137	0.02
429.496	-0
429.854	0.01
430.212	0
430.57	0.01
430.929	-0.01
431.287	0
431.645	0
432.003	0
432.361	0.01
432.719	0.01
433.077	0.01
433.435	0.01
433.793	0
434.151	0
434.509	-0
434.866	-0
435.224	0.01
435.582	0
435.94	0.01
436.297	0.01
436.655	0.01
437.012	0.01
437.37	0.01
437.727	0.01
438.085	0
438.442	0.01
438.8	0.01
439.157	0
439.514	0.01
439.872	0
440.229	0.01
440.586	0
440.943	0.01
441.3	-0
441.657	-0
442.014	-0
442.371	0
442.728	0.01
443.085	-0.01
443.442	0
443.799	-0
444.156	-0
444.513	0
444.869	-0
445.226	-0
445.583	-0
445.939	0
446.296	-0
446.652	-0
447.009	-0
447.365	-0.01
447.722	0
448.078	-0
448.434	-0
448.791	-0.01
449.147	-0.01
449.503	-0
449.859	-0.01
450.215	0
450.571	-0.01
450.928	-0
451.284	-0.01
451.64	-0.01
451.995	-0
452.351	-0.01
452.707	-0
453.063	-0.01
453.419	-0.02
453.775	-0.01
454.13	-0.02
454.486	-0.02
454.842	-0.02
455.197	-0.02
455.553	-0.02
455.908	-0.02
456.264	-0.03
456.619	-0.02
456.975	-0.02
457.33	-0.03
457.685	-0.03
458.04	-0.03
458.396	-0.03
458.751	-0.02
459.106	-0.03
459.461	-0.04
459.816	-0.04
460.171	-0.03
460.526	-0.04
460.881	-0.05
461.236	-0.04
461.591	-0.05
461.946	-0.05
462.301	-0.06
462.655	-0.05
463.01	-0.05
463.365	-0.06
463.719	-0.06
464.074	-0.06
464.428	-0.07
464.783	-0.07
465.137	-0.06
465.492	-0.07
465.846	-0.07
466.201	-0.08
466.555	-0.08
466.909	-0.07
467.263	-0.07
467.618	-0.07
467.972	-0.06
468.326	-0.07
468.68	-0.08
469.034	-0.08
469.388	-0.07
469.742	-0.08
470.096	-0.07
470.45	-0.08
470.804	-0.08
471.157	-0.07
471.511	-0.08
471.865	-0.07
472.218	-0.07
472.572	-0.07
472.926	-0.08
473.279	-0.07
473.633	-0.07
473.986	-0.06
474.34	-0.06
474.693	-0.06
475.046	-0.06
475.4	-0.05
475.753	-0.05
476.106	-0.05
476.459	-0.05
476.812	-0.04
477.165	-0.04
477.519	-0.04
477.872	-0.04
478.224	-0.04
478.577	-0.04
478.93	-0.03
479.283	-0.04
479.636	-0.03
479.989	-0.03
480.341	-0.03
480.694	-0.02
481.047	-0.03
481.399	-0.02
481.752	-0.02
482.104	-0.02
482.457	-0.02
482.809	-0.02
483.162	-0.02
483.514	-0.01
483.866	-0.01
484.219	-0.01
484.571	-0.01
484.923	-0.01
485.275	-0.01
485.627	-0.01
485.979	-0.01
486.331	-0
486.683	-0.01
487.035	-0.01
487.387	-0
487.739	-0.01
488.091	-0
488.443	-0.01
488.794	-0
489.146	-0
489.498	-0.01
489.849	-0
490.201	-0.01
490.552	-0
490.904	-0
491.255	-0
491.607	-0.01
491.958	-0
492.309	-0
492.661	0
493.012	-0
493.363	-0
493.714	-0
494.065	-0
494.416	0
494.767	-0
495.118	0
495.469	0
495.82	0
496.171	0
496.522	0
496.872	0
497.223	0.01
497.574	0
497.924	0.01
498.275	0
498.626	0.01
498.976	0.01
499.327	0.01
499.677	0
500.027	0.01
500.378	0.01
500.728	0
501.078	0.01
501.428	0
501.779	0
502.129	0.01
502.479	0
502.829	0
503.179	0
503.529	0.01
503.879	0.01
504.229	0.01
504.578	0.01
504.928	0.01
505.278	0.01
505.628	0.01
505.977	0.01
506.327	0.01
506.676	0.01
507.026	0.01
507.375	0.01
507.725	0.01
508.074	0.01
508.424	0.01
508.773	0.01
509.122	0.01
509.471	0.01
509.82	0.01
510.17	0.02
510.519	0.01
510.868	0.02
511.217	0.01
511.566	0.01
511.915	0.01
512.263	0.01
512.612	0.01
512.961	0.01
513.31	0.01
513.659	0.02
514.007	0.01
514.356	0.01
514.704	0.01
515.053	0.01
515.401	0.02
515.75	0.02
516.098	0.02
516.447	0.02
516.795	0.01
517.143	0.01
517.491	0.02
517.839	0.02
518.188	0.02
518.536	0.02
518.884	0.01
519.232	0.02
519.58	0.02
519.928	0.02
520.275	0.02
520.623	0.02
520.971	0.02
521.319	0.02
521.666	0.02
522.014	0.02
522.362	0.02
522.709	0.02
523.057	0.02
523.404	0.02
523.752	0.02
524.099	0.02
524.446	0.02
524.794	0.02
525.141	0.02
525.488	0.02
525.835	0.02
526.182	0.02
526.529	0.02
526.876	0.02
527.223	0.02
527.57	0.02
527.917	0.02
528.264	0.02
528.611	0.02
528.958	0.02
529.304	0.03
529.651	0.02
529.998	0.03
530.344	0.02
530.691	0.02
531.037	0.02
531.384	0.03
531.73	0.02
532.076	0.03
532.423	0.02
532.769	0.02
533.115	0.02
533.461	0.02
533.807	0.03
534.154	0.02
534.5	0.02
534.846	0.02
535.192	0.03
535.537	0.02
535.883	0.03
536.229	0.03
536.575	0.03
536.921	0.02
537.266	0.03
537.612	0.03
537.957	0.03
538.303	0.03
538.649	0.03
538.994	0.03
539.339	0.03
539.685	0.03
540.03	0.03
540.375	0.03
540.721	0.03
541.066	0.03
541.411	0.03
541.756	0.03
542.101	0.03
542.446	0.03
542.791	0.03
543.136	0.03
543.481	0.03
543.825	0.03
544.17	0.04
544.515	0.03
544.86	0.04
545.204	0.03
545.549	0.03
545.893	0.03
546.238	0.03
546.582	0.03
546.927	0.03
547.271	0.04
547.615	0.03
547.96	0.03
548.304	0.04
548.648	0.04
548.992	0.03
549.336	0.03
549.68	0.03
550.024	0.03
550.368	0.03
550.712	0.03
551.056	0.04
551.4	0.03
551.743	0.04
552.087	0.04
552.431	0.03
552.774	0.04
553.118	0.04
553.462	0.04
553.805	0.04
554.148	0.04
554.492	0.04
554.835	0.04
555.178	0.04
555.522	0.04
555.865	0.04
556.208	0.04
556.551	0.04
556.894	0.04
557.237	0.04
557.58	0.04
557.923	0.04
558.266	0.04
558.609	0.04
558.952	0.03
559.294	0.04
559.637	0.04
559.98	0.04
560.322	0.04
560.665	0.04
561.007	0.04
561.35	0.04
561.692	0.04
562.034	0.04
562.377	0.04
562.719	0.04
563.061	0.04
563.403	0.04
563.745	0.04
564.088	0.04
564.43	0.04
564.772	0.04
565.113	0.04
565.455	0.04
565.797	0.04
566.139	0.04
566.481	0.04
566.822	0.04
567.164	0.04
567.506	0.04
567.847	0.04
568.189	0.04
568.53	0.04
568.872	0.04
569.213	0.04
569.554	0.04
569.895	0.04
570.237	0.04
570.578	0.04
570.919	0.04
571.26	0.04
571.601	0.04
571.942	0.04
572.283	0.04
572.624	0.04
572.965	0.04
573.306	0.04
573.646	0.04
573.987	0.04
574.328	0.04
574.668	0.04
575.009	0.04
575.349	0.04
575.69	0.04
576.03	0.04
576.37	0.04
576.711	0.03
577.051	0.03
577.391	0.04
577.731	0.04
578.072	0.04
578.412	0.04
578.752	0.04
579.092	0.03
579.431	0.03
579.771	0.02
580.111	0.01
580.451	0.01
580.791	0.02
581.13	0.04
581.47	0.04
581.81	0.04
582.149	0.03
582.489	0.04
582.828	0.03
583.167	0.01
583.507	0
583.846	0
584.185	0
584.525	0
584.864	0.02
585.203	0.03
585.542	0.04
585.881	0.04
586.22	0.04
586.559	0.04
586.898	0.03
587.236	0.02
587.575	0.01
587.914	0.02
588.252	0.03
588.591	0.04
588.93	0.04
589.268	0.04
589.607	0.04
589.945	0.04
590.283	0.03
590.622	0.04
590.96	0.04
591.298	0.04
591.636	0.04
591.974	0.04
592.313	0.04
592.651	0.05
592.989	0.04
593.326	0.05
593.664	0.04
594.002	0.04
594.34	0.04
594.678	0.04
595.015	0.04
595.353	0.03
595.691	0.03
596.028	0.04
596.366	0.04
596.703	0.04
597.04	0.05
597.378	0.05
597.715	0.05
598.052	0.05
598.389	0.05
598.726	0.05
599.064	0.05
599.401	0.05
599.738	0.05
600.074	0.05
600.411	0.05
600.748	0.04
601.085	0.04
601.422	0.04
601.758	0.04
602.095	0.04
602.432	0.04
602.768	0.04
603.105	0.04
603.441	0.04
603.777	0.04
604.114	0.05
604.45	0.05
604.786	0.05
605.122	0.05
605.459	0.05
605.795	0.05
606.131	0.04
606.467	0.05
606.803	0.05
607.139	0.05
607.474	0.05
607.81	0.04
608.146	0.04
608.482	0.05
608.817	0.05
609.153	0.04
609.488	0.04
609.824	0.04
610.159	0.05
610.495	0.04
610.83	0.04
611.165	0.05
611.5	0.05
611.836	0.05
612.171	0.05
612.506	0.05
612.841	0.05
613.176	0.05
613.511	0.05
613.845	0.05
614.18	0.05
614.515	0.05
614.85	0.05
615.184	0.05
615.519	0.05
615.854	0.05
616.188	0.05
616.523	0.05
616.857	0.05
617.191	0.05
617.526	0.05
617.86	0.05
618.194	0.05
618.528	0.05
618.862	0.05
619.196	0.05
619.53	0.05
619.864	0.04
620.198	0.05
620.532	0.05
620.866	0.05
621.2	0.05
621.533	0.05
621.867	0.05
622.201	0.05
622.534	0.05
622.868	0.05
623.201	0.05
623.534	0.05
623.868	0.05
624.201	0.05
624.534	0.05
624.868	0.05
625.201	0.05
625.534	0.04
625.867	0.05
626.2	0.05
626.533	0.04
626.865	0.04
627.198	0.04
627.531	0.04
627.864	0.04
628.196	0.05
628.529	0.04
628.862	0.04
629.194	0.04
629.527	0.04
629.859	0.04
630.191	0.04
630.524	0.04
630.856	0.04
631.188	0.04
631.52	0.04
631.852	0.04
632.184	0.04
632.516	0.04
632.848	0.04
633.18	0.04
633.512	0.04
633.844	0.04
634.175	0.04
634.507	0.04
634.839	0.04
635.17	0.04
635.502	0.04
635.833	0.03
636.165	0.04
636.496	0.03
636.827	0.04
637.159	0.04
637.49	0.03
637.821	0.03
638.152	0.03
638.483	0.03
638.814	0.03
639.145	0.03
639.476	0.03
639.807	0.03
640.137	0.03
640.468	0.03
640.799	0.03
641.129	0.03
641.46	0.03
641.791	0.03
642.121	0.03
642.451	0.03
642.782	0.03
643.112	0.03
643.442	0.03
643.773	0.03
644.103	0.03
644.433	0.03
644.763	0.03
645.093	0.03
645.423	0.03
645.753	0.03
646.082	0.03
646.412	0.03
646.742	0.03
647.072	0.03
647.401	0.03
647.731	0.03
648.06	0.03
648.39	0.03
648.719	0.03
649.048	0.03
649.378	0.03
649.707	0.03
650.036	0.03
650.365	0.02
650.694	0.02
651.023	0.02
651.352	0.02
651.681	0.02
652.01	0.02
652.339	0.02
652.668	0.03
652.996	0.02
653.325	0.03
653.654	0.02
653.982	0.03
654.311	0.03
654.639	0.03
654.967	0.03
655.296	0.03
655.624	0.03
655.952	0.03
656.28	0.03
656.609	0.03
656.937	0.03
657.265	0.02
657.593	0
657.92	0
658.248	0
658.576	0
658.904	0
659.231	0
659.559	0.01
659.887	0.03
660.214	0.03
660.542	0.03
660.869	0.03
661.196	0.03
661.524	0.03
661.851	0.03
662.178	0.03
662.505	0.03
662.832	0.03
663.159	0.03
663.486	0.03
663.813	0.03
664.14	0.03
664.467	0.03
664.794	0.03
665.12	0.03
665.447	0.03
665.774	0.03
666.1	0.02
666.427	0.02
666.753	0.02
667.079	0.02
667.406	0.02
667.732	0.02
668.058	0.02
668.384	0.02
668.71	0.02
669.036	0.03
669.362	0.03
669.688	0.03
670.014	0.03
670.34	0.03
670.666	0.03
670.991	0.03
671.317	0.03
671.643	0.03
671.968	0.03
672.294	0.03
672.619	0.03
672.945	0.03
673.27	0.03
673.595	0.03
673.92	0.03
674.246	0.03
674.571	0.03
674.896	0.03
675.221	0.03
675.546	0.03
675.87	0.03
676.195	0.03
676.52	0.03
676.845	0.03
677.169	0.03
677.494	0.02
677.819	0.02
678.143	0.02
678.468	0.02
678.792	0.02
679.116	0.03
679.44	0.03
679.765	0.03
680.089	0.03
680.413	0.03
680.737	0.02
681.061	0.02
681.385	0.02
681.709	0.02
682.033	0.02
682.356	0.02
682.68	0.02
683.004	0.02
683.327	0.02
683.651	0.02
683.974	0.02
684.298	0.02
684.621	0.02
684.944	0.02
685.268	0.02
685.591	0.02
685.914	0.02
686.237	0.02
686.56	0.02
686.883	0.02
687.206	0.02
687.529	0.02
687.852	0.02
688.175	0.02
688.497	0.02
688.82	0.02
689.142	0.02
689.465	0.02
689.787	0.02
690.11	0.02
690.432	0.02
690.755	0.02
691.077	0.02
691.399	0.02
691.721	0.02
692.043	0.01
692.365	0.01
692.687	0.02
693.009	0.01
693.331	0.01
693.653	0.01
693.974	0.01
694.296	0.01
694.618	0.01
694.939	0.01
695.261	0.01
695.582	0.01
695.904	0.01
696.225	0.02
696.546	0.02
696.868	0.02
697.189	0.01
697.51	0.01
697.831	0.01
698.152	0.02
698.473	0.01
698.794	0.01
699.114	0.01
699.435	0
699.756	0
700.077	0
700.397	0.01
700.718	0.01
701.038	0.01
701.359	0.01
701.679	0.01
701.999	0.01
702.32	0.01
702.64	0.01
702.96	0.01
703.28	0.01
703.6	0.01
703.92	0.01
704.24	0.01
704.56	0.01
704.879	0.01
705.199	0.01
705.519	0.01
705.838	0.01
706.158	0.01
706.478	0.01
706.797	0.01
707.116	0.01
707.436	0.01
707.755	0.01
708.074	0.01
708.393	0.01
708.712	0.01
709.031	0
709.35	0
709.669	0
709.988	0
710.307	0
710.626	0
710.944	0
711.263	0
711.582	0.01
711.9	0.01
712.219	0.01
712.537	0.01
712.855	0.01
713.174	0
713.492	0
713.81	0
714.128	0.01
714.446	0.01
714.764	0
715.082	0
715.4	0
715.718	0
716.035	0
716.353	0
716.671	0
716.988	0
717.306	0
717.623	0.01
717.941	0.01
718.258	0.01
718.575	0.01
718.893	0.01
719.21	0.01
719.527	0.01
719.844	0.01
720.161	0.01
720.478	0.01
720.795	0.01
721.112	0.01
721.428	0.01
721.745	0.01
722.062	0.01
722.378	0.01
722.695	0.01
723.011	0.01
723.328	0.01
723.644	0.01
723.96	0.01
724.276	0.01
724.593	0.01
724.909	0.01
725.225	0.01
725.541	0.01
725.857	0.01
726.173	0.01
726.488	0.01
726.804	0.01
727.12	0.01
727.435	0.01
727.751	0.01
728.067	0.01
728.382	0.01
728.697	0.01
729.013	0.01
729.328	0.01
729.643	0.01
729.958	0.01
730.273	0.01
730.588	0.01
730.903	0.01
731.218	0
731.533	0.01
731.848	0
732.163	0.01
732.477	0.01
732.792	0
733.107	0
733.421	0
733.736	0
734.05	0.01
734.364	0
734.678	0.01
734.993	0.01
735.307	0.01
735.621	0.01
735.935	0.01
736.249	0.01
736.563	0.01
736.877	0.01
737.19	0.01
737.504	0.01
737.818	0.01
738.131	0.01
738.445	0.01
738.758	0.01
739.072	0.01
739.385	0.01
739.698	0
740.012	0.01
740.325	0.01
740.638	0.01
740.951	0.01
741.264	0.01
741.577	0.01
741.89	0.01
742.203	0.01
742.515	0.01
742.828	0.01
743.141	0.01
743.453	0.01
743.766	0.01
744.078	0.01
744.391	0.01
744.703	0.01
745.015	0.01
745.327	0.01
745.639	0.01
745.952	0.01
746.264	0.01
746.575	0.01
746.887	0.01
747.199	0.01
747.511	0.01
747.823	0.01
748.134	0.01
748.446	0.01
748.757	0.01
749.069	0.01
749.38	0.01
749.692	0.01
750.003	0.01
750.314	0.01
750.625	0.01
750.936	0.01
751.248	0.01
751.559	0.01
751.869	0
752.18	0
752.491	0
752.802	0
753.112	0
753.423	0
753.734	0.01
754.044	0.01
754.355	0.01
754.665	0.01
754.975	0.01
755.285	0.01
755.596	0
755.906	0
756.216	0
756.526	0
756.836	0
757.146	0.01
757.455	0.01
757.765	0.01
758.075	0.01
758.385	0.01
758.694	0.01
759.004	0.01
759.313	0.01
759.622	0.01
759.932	0.01
760.241	0.01
760.55	0.01
760.859	0
761.168	0
761.477	0
761.786	-0
762.095	-0
762.404	0
762.713	0
763.021	0
763.33	0
763.639	0
763.947	0
764.256	0
764.564	0
764.872	0.01
765.181	0
765.489	0
765.797	0
766.105	0
766.413	0
766.721	-0
767.029	-0
767.337	-0
767.644	-0
767.952	-0
768.26	-0
768.567	0
768.875	0
769.182	0.01
769.49	0
769.797	0
770.104	0
770.411	0.01
770.718	0
771.026	0.01
771.333	0.01
771.639	0.01
771.946	0.01
772.253	0
772.56	0
772.867	0
773.173	0
773.48	0
773.786	0
774.093	-0
774.399	0
774.705	-0
775.012	-0
775.318	-0
775.624	-0
775.93	-0.01
776.236	-0
776.542	-0
776.848	-0
777.154	0
777.459	0
777.765	0.01
778.071	0.01
778.376	0.01
778.682	0.01
778.987	0
779.292	0
779.598	0.01
779.903	0.01
780.208	0.01
780.513	0
780.818	0
781.123	0
781.428	0.01
781.733	0
782.038	0
782.343	0.01
782.647	0.01
782.952	0.01
783.256	0.01
783.561	0.01
783.865	0.01
784.17	0.01
784.474	0.01
784.778	0.01
785.082	0
785.386	0
785.69	0
785.994	0
786.298	0.01
786.602	0.01
786.906	0
787.209	0.01
787.513	0.01
787.817	0.01
788.12	0.01
788.424	0.01
788.727	0.01
789.03	0.01
789.333	0.01
789.637	0.01
789.94	0
790.243	0.01
790.546	0
790.849	0.01
791.152	0.01
791.454	0.01
791.757	0.01
792.06	0.01
792.362	0.01
792.665	0.01
792.967	0.01
793.27	0.01
793.572	0.01
793.874	0.01
794.177	0.01
794.479	0.01
794.781	0.01
795.083	0
795.385	0
795.687	0
795.989	0
796.29	0.01
796.592	0.01
796.894	0.01
797.195	0.01
797.497	0.01
797.798	0.01
798.1	0.01
798.401	0.01
798.702	0.01
799.003	0.01
799.304	0.02
799.605	0.02
799.906	0.02
800.207	0.01
800.508	0.01
800.809	0.01
801.11	0.01
801.41	0.01
801.711	0
802.011	0
802.312	0
802.612	-0
802.913	-0
803.213	0
803.513	0
803.813	0
804.113	0
804.413	0.01
804.713	0.01
805.013	0.01
805.313	0.01
805.613	0.01
805.912	0.01
806.212	0.01
806.511	0.01
806.811	0.01
807.11	0.01
807.41	0.01
807.709	0.01
808.008	0.01
808.307	0.01
808.606	0.01
808.905	0.01
809.204	0.01
809.503	0.01
809.802	0.01
810.101	0.01
810.399	0.01
810.698	0.01
810.997	0.01
811.295	0.01
811.593	0.01
811.892	0.01
812.19	0.01
812.488	0.02
812.786	0.02
813.084	0.01
813.383	0.02
813.68	0.02
813.978	0.02
814.276	0.02
814.574	0.02
814.872	0.01
815.169	0.01
815.467	0.01
815.764	0.01
816.062	0.01
816.359	0.01
816.656	0.02
816.954	0.01
817.251	0.02
817.548	0.02
817.845	0.02
818.142	0.02
818.439	0.02
818.735	0.03
819.032	0.02
819.329	0.02
819.626	0.02
819.922	0.02
820.219	0.02
820.515	0.02
820.811	0.02
821.108	0.02
821.404	0.02
821.7	0.01
821.996	0.01
822.292	0.01
822.588	0.01
822.884	0.02
823.18	0.02
823.475	0.02
823.771	0.02
824.067	0.03
824.362	0.02
824.658	0.02
824.953	0.02
825.249	0.02
825.544	0.02
825.839	0.03
826.134	0.03
826.429	0.03
826.724	0.03
827.019	0.03
827.314	0.03
827.609	0.02
827.904	0.01
828.198	0.02
828.493	0.02
828.787	0.02
829.082	0.01
829.376	0.01
829.671	0.02
829.965	0.02
830.259	0.02
830.553	0.02
830.847	0.02
831.141	0.03
831.435	0.03
831.729	0.03
832.023	0.03
832.317	0.03
832.61	0.03
832.904	0.03
833.197	0.03
833.491	0.03
833.784	0.03
834.077	0.02
834.371	0.03
834.664	0.02
834.957	0.03
835.25	0.03
835.543	0.03
835.836	0.03
836.129	0.03
836.421	0.03
836.714	0.02
837.007	0.03
837.299	0.02
837.592	0.03
837.884	0.03
838.177	0.02
838.469	0.02
838.761	0.02
839.053	0.02
839.345	0.03
839.637	0.02
839.929	0.03
840.221	0.03
840.513	0.03
840.805	0.03
841.096	0.04
841.388	0.03
841.68	0.03
841.971	0.03
842.262	0.04
842.554	0.03
842.845	0.04
843.136	0.04
843.427	0.03
843.718	0.03
844.009	0.03
844.3	0.02
844.591	0.03
844.882	0.03
845.173	0.03
845.463	0.03
845.754	0.03
846.044	0.03
846.335	0.03
846.625	0.04
846.915	0.04
847.206	0.03
847.496	0.04
847.786	0.03
848.076	0.02
848.366	0.03
848.656	0.03
848.945	0.03
849.235	0.04
849.525	0.03
849.814	0.03
850.104	0.02
850.393	0.01
850.683	0.03
850.972	0.03
851.261	0.02
851.551	0.03
851.84	0.03
852.129	0.03
852.418	0.04
852.707	0.04
852.995	0.03
853.284	0.03
853.573	0.03
853.862	0.04
854.15	0.03
854.439	0.04
854.727	0.03
855.015	0.03
855.304	0.04
855.592	0.03
855.88	0.02
856.168	0.02
856.456	0.03
856.744	0.04
857.032	0.03
857.32	0.04
857.607	0.05
857.895	0.03
858.183	0.04
858.47	0.03
858.757	0.03
859.045	0.03
859.332	0.03
859.619	0.03
859.907	0.03
860.194	0.03
860.481	0.04
860.768	0.05
861.054	0.04
861.341	0.04
861.628	0.02
861.915	0.03
862.201	0.04
862.488	0.02
862.774	0.03
863.061	0.01
863.347	0.03
863.633	0.02
863.919	0.01
864.205	0.04
864.491	0.02
864.777	0.01
865.063	0.01
865.349	0.01
865.635	0.04
865.92	0.02
866.206	0.02
866.492	0.02
866.777	0.03
867.062	0.04
867.348	0.04
867.633	0.04
867.918	0
868.203	0.02
868.488	0.02
868.773	0
869.058	0.01
869.343	0.01
869.628	0.01
869.912	-0.03
870.197	0.02
870.482	0.03
870.766	0.01
871.05	0.01
871.335	0.01
871.619	0.02
871.903	0
872.187	-0.01
872.471	0.03
872.755	0.03
873.039	0.01
873.323	0.04
873.607	0
873.89	-0
874.174	0.04
874.458	0.01
874.741	0.02
875.024	0.05
875.308	0.01
875.591	0.01
875.874	0.01
876.157	-0
876.44	-0.03
876.723	-0.03
877.006	-0.01
877.289	-0.03
877.572	0.06
877.854	-0
878.137	0.01
878.42	0.03
878.702	0.01
878.984	0.02
879.267	-0.05
879.549	0.06
879.831	0.04
880.113	0.05
880.395	0.04
880.677	-0.03
880.959	-0.01
