Data from Rubpy_EV_1800_EDTA_Buffered_Absorbance_15-36-43-604.txt Node
Date: Tue Jun 30 15:36:43 BST 2026
User: fpm-admin
Spectrometer: OFX00224
Trigger mode: 0
Integration Time (sec): 7.000000E-2
Scans to average: 3
Nonlinearity correction enabled: false
Boxcar width: 0
Storing dark spectrum: false
XAxis mode: Wavelengths
Number of Pixels in Spectrum: 2136
>>>>>Begin Spectral Data<<<<<
154.91	-0.21
155.289	-0
155.669	-0.47
156.048	-0
156.428	0.64
156.807	-0.23
157.186	-0
157.566	-0.32
157.945	-0
158.325	-0
158.704	-0.54
159.083	-0.71
159.462	-0.06
159.842	0.05
160.221	0.29
160.6	0.12
160.979	-0.32
161.359	-0.1
161.738	-0.27
162.117	0.11
162.496	0.16
162.875	-0.18
163.254	-0
163.633	0.54
164.012	-0.3
164.391	0.65
164.77	0.08
165.149	-0.07
165.528	-0.23
165.907	-0.99
166.286	0.25
166.665	-0.51
167.044	-0.78
167.423	-0
167.802	0.46
168.181	-0.15
168.559	-0
168.938	-0.56
169.317	-0
169.696	-0
170.074	-0.51
170.453	-0.54
170.832	0.16
171.21	-0
171.589	-0.41
171.968	-0
172.346	-0
172.725	-0.03
173.103	0.09
173.482	0.62
173.861	0.18
174.239	-0.22
174.617	-0.15
174.996	-0.23
175.374	-0
175.753	-0
176.131	0.47
176.51	0.35
176.888	-0
177.266	-0
177.645	-0.14
178.023	1.06
178.401	-0.24
178.779	0.1
179.158	0.12
179.536	1.08
179.914	-0.04
180.292	0.74
180.67	-0.36
181.048	-0
181.427	-0
181.805	-0.01
182.183	-0.08
182.561	-0
182.939	-0
183.317	-0.74
183.695	-0
184.073	0.2
184.451	-0
184.829	0.35
185.206	-0.38
185.584	-0.05
185.962	-0.14
186.34	0.2
186.718	-0
187.096	0.01
187.473	-0
187.851	-0
188.229	-0.12
188.607	0.2
188.984	0.27
189.362	0.14
189.74	0.23
190.117	0.16
190.495	0.11
190.872	0.1
191.25	0.11
191.627	0.12
192.005	0.05
192.382	0.13
192.76	0.14
193.137	0.18
193.515	0.02
193.892	0.18
194.269	0.19
194.647	0.09
195.024	0.18
195.401	0.23
195.779	0.05
196.156	0.18
196.533	0.14
196.91	0.12
197.288	0.17
197.665	0.2
198.042	0.18
198.419	0.2
198.796	0.19
199.173	0.18
199.55	0.06
199.927	0.25
200.304	0.11
200.681	0.21
201.058	0.28
201.435	0.29
201.812	0.15
202.189	0.21
202.566	0.03
202.943	0.18
203.32	0.15
203.697	0.19
204.073	0.28
204.45	0.13
204.827	0.13
205.204	0.18
205.58	0.1
205.957	0.1
206.334	0.09
206.71	0.13
207.087	0.18
207.464	0.14
207.84	0.27
208.217	0.13
208.593	0.17
208.97	0.09
209.346	0.13
209.723	0.19
210.099	0.05
210.476	0.23
210.852	0.17
211.228	0.08
211.605	0.23
211.981	0.1
212.357	0.15
212.733	0.16
213.11	0.27
213.486	0.15
213.862	0.12
214.238	0.24
214.614	0.19
214.991	0.09
215.367	0.06
215.743	0.15
216.119	0.11
216.495	0.16
216.871	0.11
217.247	0.22
217.623	0.12
217.999	0.24
218.375	0.15
218.751	0.11
219.127	0.23
219.502	0.14
219.878	0.12
220.254	0.25
220.63	0.18
221.006	0.12
221.381	0.19
221.757	0.18
222.133	0.22
222.508	0.26
222.884	0.16
223.26	0.17
223.635	0.24
224.011	0.18
224.386	0.19
224.762	0.11
225.137	0.17
225.513	0.13
225.888	0.15
226.264	0.14
226.639	0.19
227.014	0.18
227.39	0.17
227.765	0.19
228.14	0.14
228.516	0.18
228.891	0.22
229.266	0.14
229.641	0.32
230.017	0.32
230.392	0.25
230.767	0.18
231.142	0.17
231.517	0.14
231.892	0.14
232.267	0.16
232.642	0.07
233.017	0.22
233.392	0.27
233.767	0.23
234.142	0.11
234.517	0.26
234.892	0.15
235.267	0.18
235.641	0.16
236.016	0.08
236.391	0.13
236.766	0.13
237.14	0.17
237.515	0.13
237.89	0.2
238.264	0.08
238.639	0.25
239.014	0.17
239.388	0.17
239.763	0.11
240.137	0.19
240.512	0.21
240.886	0.16
241.261	0.19
241.635	0.22
242.009	0.11
242.384	0.22
242.758	0.3
243.132	0.19
243.507	0.25
243.881	0.19
244.255	0.22
244.629	0.19
245.004	0.15
245.378	0.1
245.752	0.2
246.126	0.23
246.5	0.16
246.874	0.15
247.248	0.08
247.622	0.13
247.996	0.2
248.37	0.22
248.744	0.13
249.118	0.21
249.492	0.1
249.866	0.15
250.24	0.14
250.613	0.28
250.987	0.22
251.361	0.13
251.735	0.21
252.108	0.16
252.482	0.19
252.856	0.15
253.229	0.14
253.603	0.15
253.977	0.18
254.35	0.15
254.724	0.12
255.097	0.21
255.471	0.15
255.844	0.17
256.218	0.23
256.591	0.13
256.964	0.25
257.338	0.15
257.711	0.15
258.084	0.2
258.458	0.18
258.831	0.17
259.204	0.12
259.577	0.19
259.95	0.26
260.323	0.14
260.697	0.12
261.07	0.22
261.443	0.15
261.816	0.14
262.189	0.16
262.562	0.21
262.935	0.24
263.308	0.22
263.68	0.25
264.053	0.15
264.426	0.27
264.799	0.26
265.172	0.21
265.545	0.18
265.917	0.22
266.29	0.21
266.663	0.16
267.035	0.23
267.408	0.13
267.781	0.15
268.153	0.2
268.526	0.23
268.898	0.24
269.271	0.17
269.643	0.2
270.016	0.12
270.388	0.21
270.76	0.17
271.133	0.21
271.505	0.28
271.877	0.22
272.25	0.23
272.622	0.18
272.994	0.18
273.366	0.19
273.739	0.18
274.111	0.24
274.483	0.16
274.855	0.21
275.227	0.21
275.599	0.18
275.971	0.21
276.343	0.23
276.715	0.24
277.087	0.23
277.459	0.17
277.831	0.21
278.203	0.22
278.574	0.21
278.946	0.22
279.318	0.19
279.69	0.14
280.061	0.21
280.433	0.19
280.805	0.19
281.176	0.22
281.548	0.22
281.92	0.23
282.291	0.16
282.663	0.2
283.034	0.13
283.406	0.15
283.777	0.14
284.148	0.18
284.52	0.17
284.891	0.13
285.262	0.21
285.634	0.21
286.005	0.21
286.376	0.15
286.747	0.19
287.119	0.18
287.49	0.18
287.861	0.21
288.232	0.15
288.603	0.19
288.974	0.24
289.345	0.11
289.716	0.2
290.087	0.22
290.458	0.19
290.829	0.2
291.2	0.17
291.571	0.17
291.941	0.15
292.312	0.16
292.683	0.19
293.054	0.18
293.424	0.2
293.795	0.21
294.166	0.22
294.536	0.27
294.907	0.2
295.277	0.2
295.648	0.19
296.018	0.19
296.389	0.2
296.759	0.19
297.13	0.15
297.5	0.21
297.871	0.17
298.241	0.18
298.611	0.2
298.981	0.17
299.352	0.27
299.722	0.23
300.092	0.15
300.462	0.2
300.832	0.21
301.202	0.21
301.573	0.14
301.943	0.18
302.313	0.13
302.683	0.14
303.053	0.18
303.422	0.18
303.792	0.16
304.162	0.18
304.532	0.19
304.902	0.17
305.272	0.18
305.641	0.18
306.011	0.17
306.381	0.18
306.75	0.17
307.12	0.17
307.49	0.19
307.859	0.19
308.229	0.19
308.598	0.18
308.968	0.19
309.337	0.19
309.707	0.19
310.076	0.2
310.445	0.2
310.815	0.2
311.184	0.2
311.553	0.21
311.923	0.21
312.292	0.21
312.661	0.21
313.03	0.21
313.399	0.2
313.768	0.22
314.137	0.21
314.506	0.21
314.875	0.21
315.244	0.2
315.613	0.2
315.982	0.21
316.351	0.2
316.72	0.2
317.089	0.2
317.458	0.2
317.826	0.2
318.195	0.2
318.564	0.2
318.933	0.19
319.301	0.19
319.67	0.2
320.038	0.19
320.407	0.19
320.775	0.19
321.144	0.19
321.512	0.18
321.881	0.18
322.249	0.19
322.618	0.18
322.986	0.19
323.354	0.18
323.723	0.18
324.091	0.17
324.459	0.18
324.827	0.18
325.195	0.17
325.564	0.17
325.932	0.17
326.3	0.18
326.668	0.17
327.036	0.17
327.404	0.17
327.772	0.17
328.14	0.17
328.508	0.17
328.875	0.18
329.243	0.17
329.611	0.17
329.979	0.17
330.346	0.17
330.714	0.17
331.082	0.18
331.449	0.18
331.817	0.18
332.185	0.18
332.552	0.18
332.92	0.18
333.287	0.19
333.655	0.19
334.022	0.19
334.389	0.19
334.757	0.19
335.124	0.2
335.491	0.2
335.859	0.2
336.226	0.21
336.593	0.2
336.96	0.21
337.327	0.21
337.695	0.22
338.062	0.21
338.429	0.21
338.796	0.22
339.163	0.23
339.53	0.22
339.897	0.23
340.263	0.23
340.63	0.24
340.997	0.24
341.364	0.25
341.731	0.25
342.097	0.26
342.464	0.26
342.831	0.27
343.197	0.27
343.564	0.27
343.931	0.28
344.297	0.28
344.664	0.29
345.03	0.29
345.396	0.29
345.763	0.3
346.129	0.3
346.496	0.3
346.862	0.31
347.228	0.31
347.594	0.31
347.961	0.33
348.327	0.33
348.693	0.33
349.059	0.34
349.425	0.35
349.791	0.35
350.157	0.36
350.523	0.36
350.889	0.37
351.255	0.38
351.621	0.38
351.987	0.39
352.353	0.4
352.719	0.41
353.084	0.41
353.45	0.42
353.816	0.43
354.181	0.44
354.547	0.44
354.913	0.45
355.278	0.47
355.644	0.47
356.009	0.48
356.375	0.49
356.74	0.5
357.106	0.51
357.471	0.52
357.836	0.53
358.202	0.54
358.567	0.55
358.932	0.56
359.297	0.57
359.663	0.58
360.028	0.58
360.393	0.6
360.758	0.61
361.123	0.61
361.488	0.62
361.853	0.62
362.218	0.63
362.583	0.64
362.948	0.65
363.312	0.65
363.677	0.66
364.042	0.67
364.407	0.68
364.772	0.69
365.136	0.7
365.501	0.72
365.865	0.73
366.23	0.74
366.595	0.76
366.959	0.77
367.324	0.78
367.688	0.8
368.052	0.82
368.417	0.82
368.781	0.83
369.145	0.84
369.51	0.85
369.874	0.85
370.238	0.85
370.602	0.85
370.967	0.84
371.331	0.85
371.695	0.84
372.059	0.84
372.423	0.83
372.787	0.83
373.151	0.83
373.515	0.83
373.878	0.82
374.242	0.82
374.606	0.82
374.97	0.82
375.334	0.82
375.697	0.83
376.061	0.82
376.425	0.83
376.788	0.84
377.152	0.84
377.515	0.85
377.879	0.85
378.242	0.86
378.606	0.87
378.969	0.88
379.333	0.89
379.696	0.89
380.059	0.91
380.422	0.92
380.786	0.93
381.149	0.96
381.512	0.97
381.875	0.98
382.238	1.01
382.601	1.04
382.964	1.06
383.327	1.08
383.69	1.12
384.053	1.15
384.416	1.17
384.779	1.19
385.142	1.21
385.504	1.23
385.867	1.24
386.23	1.25
386.593	1.28
386.955	1.26
387.318	1.28
387.68	1.27
388.043	1.26
388.405	1.26
388.768	1.24
389.13	1.23
389.493	1.22
389.855	1.21
390.217	1.21
390.58	1.21
390.942	1.22
391.304	1.23
391.666	1.24
392.028	1.26
392.391	1.27
392.753	1.3
393.115	1.34
393.477	1.38
393.839	1.42
394.201	1.46
394.563	1.54
394.924	1.57
395.286	1.62
395.648	1.67
396.01	1.68
396.371	1.69
396.733	1.73
397.095	1.76
397.456	1.74
397.818	1.74
398.18	1.77
398.541	1.73
398.903	1.73
399.264	1.68
399.625	1.64
399.987	1.61
400.348	1.56
400.709	1.49
401.071	1.43
401.432	1.37
401.793	1.27
402.154	1.2
402.515	1.12
402.876	1.05
403.238	0.98
403.599	0.91
403.96	0.85
404.32	0.78
404.681	0.73
405.042	0.68
405.403	0.63
405.764	0.59
406.125	0.55
406.485	0.51
406.846	0.48
407.207	0.45
407.567	0.42
407.928	0.4
408.288	0.38
408.649	0.36
409.009	0.34
409.37	0.32
409.73	0.3
410.091	0.29
410.451	0.27
410.811	0.26
411.171	0.25
411.532	0.24
411.892	0.23
412.252	0.22
412.612	0.21
412.972	0.2
413.332	0.2
413.692	0.19
414.052	0.18
414.412	0.18
414.772	0.17
415.132	0.16
415.492	0.16
415.851	0.16
416.211	0.15
416.571	0.14
416.931	0.15
417.29	0.14
417.65	0.13
418.009	0.14
418.369	0.13
418.728	0.12
419.088	0.13
419.447	0.12
419.807	0.12
420.166	0.11
420.525	0.12
420.884	0.11
421.244	0.1
421.603	0.11
421.962	0.12
422.321	0.1
422.68	0.11
423.039	0.11
423.398	0.1
423.757	0.11
424.116	0.1
424.475	0.1
424.834	0.1
425.193	0.09
425.551	0.09
425.91	0.09
426.269	0.09
426.628	0.09
426.986	0.09
427.345	0.09
427.703	0.08
428.062	0.08
428.42	0.08
428.779	0.09
429.137	0.09
429.496	0.07
429.854	0.08
430.212	0.08
430.57	0.08
430.929	0.07
431.287	0.08
431.645	0.08
432.003	0.07
432.361	0.08
432.719	0.08
433.077	0.08
433.435	0.07
433.793	0.07
434.151	0.07
434.509	0.07
434.866	0.07
435.224	0.07
435.582	0.07
435.94	0.07
436.297	0.06
436.655	0.07
437.012	0.07
437.37	0.06
437.727	0.07
438.085	0.06
438.442	0.06
438.8	0.06
439.157	0.06
439.514	0.07
439.872	0.06
440.229	0.07
440.586	0.06
440.943	0.07
441.3	0.06
441.657	0.05
442.014	0.06
442.371	0.06
442.728	0.06
443.085	0.06
443.442	0.06
443.799	0.05
444.156	0.06
444.513	0.05
444.869	0.05
445.226	0.05
445.583	0.05
445.939	0.05
446.296	0.05
446.652	0.05
447.009	0.05
447.365	0.05
447.722	0.04
448.078	0.05
448.434	0.04
448.791	0.04
449.147	0.05
449.503	0.05
449.859	0.05
450.215	0.04
450.571	0.04
450.928	0.04
451.284	0.04
451.64	0.05
451.995	0.04
452.351	0.04
452.707	0.04
453.063	0.04
453.419	0.03
453.775	0.03
454.13	0.04
454.486	0.04
454.842	0.03
455.197	0.03
455.553	0.03
455.908	0.03
456.264	0.02
456.619	0.02
456.975	0.03
457.33	0.02
457.685	0.02
458.04	0.02
458.396	0.01
458.751	0.02
459.106	0.01
459.461	0.01
459.816	0
460.171	0.01
460.526	0.01
460.881	-0.01
461.236	-0
461.591	-0
461.946	0
462.301	-0.01
462.655	-0.01
463.01	-0.01
463.365	-0.01
463.719	-0.02
464.074	-0.02
464.428	-0.03
464.783	-0.02
465.137	-0.01
465.492	-0.02
465.846	-0.02
466.201	-0.02
466.555	-0.03
466.909	-0.03
467.263	-0.03
467.618	-0.02
467.972	-0.01
468.326	-0.02
468.68	-0.03
469.034	-0.03
469.388	-0.03
469.742	-0.03
470.096	-0.02
470.45	-0.03
470.804	-0.02
471.157	-0.03
471.511	-0.02
471.865	-0.01
472.218	-0.03
472.572	-0.02
472.926	-0.02
473.279	-0.01
473.633	-0.01
473.986	-0.01
474.34	-0
474.693	0
475.046	0
475.4	0.01
475.753	0.01
476.106	0.02
476.459	0.02
476.812	0.03
477.165	0.02
477.519	0.03
477.872	0.03
478.224	0.03
478.577	0.04
478.93	0.04
479.283	0.04
479.636	0.04
479.989	0.04
480.341	0.05
480.694	0.05
481.047	0.05
481.399	0.05
481.752	0.06
482.104	0.06
482.457	0.06
482.809	0.06
483.162	0.07
483.514	0.07
483.866	0.07
484.219	0.07
484.571	0.07
484.923	0.08
485.275	0.08
485.627	0.08
485.979	0.08
486.331	0.09
486.683	0.09
487.035	0.09
487.387	0.09
487.739	0.09
488.091	0.09
488.443	0.09
488.794	0.1
489.146	0.09
489.498	0.1
489.849	0.1
490.201	0.1
490.552	0.1
490.904	0.1
491.255	0.1
491.607	0.1
491.958	0.1
492.309	0.11
492.661	0.11
493.012	0.11
493.363	0.11
493.714	0.11
494.065	0.11
494.416	0.11
494.767	0.12
495.118	0.12
495.469	0.12
495.82	0.12
496.171	0.13
496.522	0.13
496.872	0.13
497.223	0.13
497.574	0.13
497.924	0.13
498.275	0.14
498.626	0.13
498.976	0.14
499.327	0.14
499.677	0.14
500.027	0.14
500.378	0.14
500.728	0.14
501.078	0.15
501.428	0.15
501.779	0.15
502.129	0.15
502.479	0.15
502.829	0.15
503.179	0.15
503.529	0.16
503.879	0.16
504.229	0.16
504.578	0.16
504.928	0.16
505.278	0.17
505.628	0.17
505.977	0.17
506.327	0.17
506.676	0.17
507.026	0.17
507.375	0.18
507.725	0.18
508.074	0.18
508.424	0.18
508.773	0.18
509.122	0.19
509.471	0.19
509.82	0.19
510.17	0.19
510.519	0.19
510.868	0.2
511.217	0.2
511.566	0.2
511.915	0.2
512.263	0.2
512.612	0.2
512.961	0.2
513.31	0.21
513.659	0.21
514.007	0.21
514.356	0.21
514.704	0.21
515.053	0.21
515.401	0.22
515.75	0.22
516.098	0.22
516.447	0.22
516.795	0.22
517.143	0.22
517.491	0.23
517.839	0.23
518.188	0.23
518.536	0.23
518.884	0.23
519.232	0.24
519.58	0.24
519.928	0.24
520.275	0.24
520.623	0.24
520.971	0.25
521.319	0.25
521.666	0.25
522.014	0.25
522.362	0.26
522.709	0.25
523.057	0.26
523.404	0.26
523.752	0.26
524.099	0.26
524.446	0.27
524.794	0.27
525.141	0.27
525.488	0.27
525.835	0.27
526.182	0.27
526.529	0.27
526.876	0.28
527.223	0.28
527.57	0.28
527.917	0.28
528.264	0.28
528.611	0.28
528.958	0.29
529.304	0.29
529.651	0.29
529.998	0.29
530.344	0.3
530.691	0.3
531.037	0.3
531.384	0.3
531.73	0.3
532.076	0.31
532.423	0.3
532.769	0.31
533.115	0.31
533.461	0.31
533.807	0.32
534.154	0.32
534.5	0.32
534.846	0.33
535.192	0.33
535.537	0.33
535.883	0.33
536.229	0.33
536.575	0.34
536.921	0.33
537.266	0.34
537.612	0.34
537.957	0.34
538.303	0.35
538.649	0.35
538.994	0.35
539.339	0.36
539.685	0.36
540.03	0.36
540.375	0.36
540.721	0.36
541.066	0.37
541.411	0.37
541.756	0.37
542.101	0.37
542.446	0.37
542.791	0.38
543.136	0.38
543.481	0.38
543.825	0.38
544.17	0.39
544.515	0.39
544.86	0.39
545.204	0.4
545.549	0.4
545.893	0.4
546.238	0.41
546.582	0.41
546.927	0.41
547.271	0.41
547.615	0.42
547.96	0.42
548.304	0.42
548.648	0.42
548.992	0.42
549.336	0.42
549.68	0.43
550.024	0.43
550.368	0.44
550.712	0.44
551.056	0.44
551.4	0.44
551.743	0.44
552.087	0.44
552.431	0.44
552.774	0.44
553.118	0.45
553.462	0.45
553.805	0.45
554.148	0.45
554.492	0.45
554.835	0.46
555.178	0.46
555.522	0.46
555.865	0.46
556.208	0.46
556.551	0.47
556.894	0.47
557.237	0.46
557.58	0.47
557.923	0.47
558.266	0.47
558.609	0.47
558.952	0.47
559.294	0.47
559.637	0.47
559.98	0.48
560.322	0.48
560.665	0.48
561.007	0.48
561.35	0.48
561.692	0.48
562.034	0.48
562.377	0.48
562.719	0.48
563.061	0.49
563.403	0.49
563.745	0.49
564.088	0.49
564.43	0.49
564.772	0.49
565.113	0.49
565.455	0.49
565.797	0.49
566.139	0.5
566.481	0.5
566.822	0.5
567.164	0.5
567.506	0.5
567.847	0.5
568.189	0.5
568.53	0.5
568.872	0.5
569.213	0.5
569.554	0.5
569.895	0.5
570.237	0.5
570.578	0.51
570.919	0.5
571.26	0.5
571.601	0.5
571.942	0.5
572.283	0.5
572.624	0.5
572.965	0.5
573.306	0.5
573.646	0.5
573.987	0.5
574.328	0.5
574.668	0.5
575.009	0.5
575.349	0.5
575.69	0.5
576.03	0.5
576.37	0.5
576.711	0.49
577.051	0.5
577.391	0.5
577.731	0.5
578.072	0.5
578.412	0.5
578.752	0.5
579.092	0.5
579.431	0.49
579.771	0.47
580.111	0.45
580.451	0.46
580.791	0.48
581.13	0.5
581.47	0.51
581.81	0.51
582.149	0.5
582.489	0.51
582.828	0.5
583.167	0.48
583.507	0.44
583.846	0.41
584.185	0.43
584.525	0.46
584.864	0.48
585.203	0.51
585.542	0.52
585.881	0.52
586.22	0.53
586.559	0.52
586.898	0.51
587.236	0.5
587.575	0.49
587.914	0.5
588.252	0.51
588.591	0.53
588.93	0.53
589.268	0.53
589.607	0.53
589.945	0.54
590.283	0.54
590.622	0.54
590.96	0.54
591.298	0.55
591.636	0.55
591.974	0.56
592.313	0.56
592.651	0.57
592.989	0.56
593.326	0.57
593.664	0.58
594.002	0.58
594.34	0.57
594.678	0.58
595.015	0.57
595.353	0.55
595.691	0.56
596.028	0.57
596.366	0.58
596.703	0.59
597.04	0.59
597.378	0.6
597.715	0.6
598.052	0.6
598.389	0.61
598.726	0.61
599.064	0.61
599.401	0.61
599.738	0.61
600.074	0.61
600.411	0.61
600.748	0.61
601.085	0.6
601.422	0.6
601.758	0.6
602.095	0.6
602.432	0.6
602.768	0.6
603.105	0.61
603.441	0.61
603.777	0.61
604.114	0.62
604.45	0.62
604.786	0.62
605.122	0.61
605.459	0.61
605.795	0.62
606.131	0.61
606.467	0.61
606.803	0.61
607.139	0.61
607.474	0.61
607.81	0.6
608.146	0.61
608.482	0.61
608.817	0.6
609.153	0.6
609.488	0.6
609.824	0.6
610.159	0.6
610.495	0.6
610.83	0.6
611.165	0.6
611.5	0.6
611.836	0.6
612.171	0.6
612.506	0.6
612.841	0.6
613.176	0.6
613.511	0.6
613.845	0.59
614.18	0.59
614.515	0.59
614.85	0.59
615.184	0.59
615.519	0.59
615.854	0.58
616.188	0.58
616.523	0.58
616.857	0.57
617.191	0.58
617.526	0.57
617.86	0.57
618.194	0.56
618.528	0.57
618.862	0.57
619.196	0.56
619.53	0.57
619.864	0.56
620.198	0.56
620.532	0.56
620.866	0.56
621.2	0.56
621.533	0.56
621.867	0.56
622.201	0.55
622.534	0.55
622.868	0.55
623.201	0.55
623.534	0.55
623.868	0.54
624.201	0.54
624.534	0.54
624.868	0.54
625.201	0.53
625.534	0.53
625.867	0.53
626.2	0.53
626.533	0.52
626.865	0.52
627.198	0.52
627.531	0.51
627.864	0.51
628.196	0.52
628.529	0.52
628.862	0.51
629.194	0.5
629.527	0.5
629.859	0.5
630.191	0.5
630.524	0.5
630.856	0.49
631.188	0.48
631.52	0.49
631.852	0.48
632.184	0.48
632.516	0.48
632.848	0.48
633.18	0.48
633.512	0.47
633.844	0.46
634.175	0.46
634.507	0.45
634.839	0.45
635.17	0.45
635.502	0.45
635.833	0.44
636.165	0.43
636.496	0.43
636.827	0.43
637.159	0.42
637.49	0.42
637.821	0.42
638.152	0.41
638.483	0.42
638.814	0.41
639.145	0.41
639.476	0.41
639.807	0.4
640.137	0.4
640.468	0.39
640.799	0.39
641.129	0.38
641.46	0.38
641.791	0.38
642.121	0.38
642.451	0.38
642.782	0.38
643.112	0.37
643.442	0.37
643.773	0.37
644.103	0.37
644.433	0.36
644.763	0.36
645.093	0.36
645.423	0.36
645.753	0.35
646.082	0.35
646.412	0.35
646.742	0.35
647.072	0.35
647.401	0.35
647.731	0.34
648.06	0.34
648.39	0.34
648.719	0.34
649.048	0.34
649.378	0.34
649.707	0.34
650.036	0.34
650.365	0.34
650.694	0.33
651.023	0.33
651.352	0.33
651.681	0.32
652.01	0.32
652.339	0.33
652.668	0.33
652.996	0.33
653.325	0.33
653.654	0.32
653.982	0.32
654.311	0.33
654.639	0.33
654.967	0.33
655.296	0.32
655.624	0.32
655.952	0.32
656.28	0.32
656.609	0.32
656.937	0.32
657.265	0.32
657.593	0.27
657.92	0.13
658.248	0.07
658.576	0.05
658.904	0.12
659.231	0.2
659.559	0.28
659.887	0.31
660.214	0.32
660.542	0.32
660.869	0.32
661.196	0.32
661.524	0.32
661.851	0.32
662.178	0.32
662.505	0.32
662.832	0.32
663.159	0.32
663.486	0.32
663.813	0.32
664.14	0.31
664.467	0.31
664.794	0.31
665.12	0.31
665.447	0.31
665.774	0.31
666.1	0.3
666.427	0.3
666.753	0.3
667.079	0.3
667.406	0.3
667.732	0.3
668.058	0.3
668.384	0.3
668.71	0.3
669.036	0.3
669.362	0.3
669.688	0.3
670.014	0.3
670.34	0.3
670.666	0.3
670.991	0.3
671.317	0.3
671.643	0.29
671.968	0.29
672.294	0.29
672.619	0.29
672.945	0.29
673.27	0.29
673.595	0.29
673.92	0.28
674.246	0.28
674.571	0.28
674.896	0.27
675.221	0.27
675.546	0.28
675.87	0.27
676.195	0.27
676.52	0.27
676.845	0.27
677.169	0.27
677.494	0.26
677.819	0.26
678.143	0.26
678.468	0.25
678.792	0.25
679.116	0.25
679.44	0.25
679.765	0.25
680.089	0.25
680.413	0.24
680.737	0.24
681.061	0.24
681.385	0.23
681.709	0.23
682.033	0.23
682.356	0.23
682.68	0.23
683.004	0.23
683.327	0.22
683.651	0.21
683.974	0.21
684.298	0.22
684.621	0.21
684.944	0.21
685.268	0.21
685.591	0.21
685.914	0.2
686.237	0.2
686.56	0.2
686.883	0.19
687.206	0.18
687.529	0.18
687.852	0.18
688.175	0.18
688.497	0.18
688.82	0.18
689.142	0.18
689.465	0.17
689.787	0.17
690.11	0.17
690.432	0.17
690.755	0.17
691.077	0.17
691.399	0.16
691.721	0.16
692.043	0.16
692.365	0.16
692.687	0.16
693.009	0.15
693.331	0.15
693.653	0.14
693.974	0.14
694.296	0.14
694.618	0.14
694.939	0.14
695.261	0.14
695.582	0.14
695.904	0.14
696.225	0.14
696.546	0.14
696.868	0.14
697.189	0.14
697.51	0.13
697.831	0.13
698.152	0.13
698.473	0.13
698.794	0.12
699.114	0.11
699.435	0.1
699.756	0.1
700.077	0.11
700.397	0.11
700.718	0.11
701.038	0.11
701.359	0.11
701.679	0.11
701.999	0.11
702.32	0.11
702.64	0.11
702.96	0.11
703.28	0.11
703.6	0.11
703.92	0.11
704.24	0.1
704.56	0.1
704.879	0.1
705.199	0.1
705.519	0.1
705.838	0.1
706.158	0.1
706.478	0.1
706.797	0.1
707.116	0.1
707.436	0.1
707.755	0.1
708.074	0.1
708.393	0.1
708.712	0.09
709.031	0.08
709.35	0.07
709.669	0.07
709.988	0.07
710.307	0.08
710.626	0.08
710.944	0.08
711.263	0.08
711.582	0.09
711.9	0.09
712.219	0.08
712.537	0.09
712.855	0.08
713.174	0.08
713.492	0.08
713.81	0.09
714.128	0.09
714.446	0.09
714.764	0.08
715.082	0.08
715.4	0.08
715.718	0.08
716.035	0.08
716.353	0.08
716.671	0.08
716.988	0.08
717.306	0.08
717.623	0.08
717.941	0.09
718.258	0.09
718.575	0.09
718.893	0.09
719.21	0.09
719.527	0.09
719.844	0.09
720.161	0.09
720.478	0.1
720.795	0.09
721.112	0.1
721.428	0.1
721.745	0.1
722.062	0.1
722.378	0.11
722.695	0.1
723.011	0.1
723.328	0.1
723.644	0.1
723.96	0.1
724.276	0.1
724.593	0.1
724.909	0.11
725.225	0.1
725.541	0.11
725.857	0.11
726.173	0.11
726.488	0.11
726.804	0.11
727.12	0.11
727.435	0.11
727.751	0.11
728.067	0.1
728.382	0.1
728.697	0.1
729.013	0.11
729.328	0.1
729.643	0.11
729.958	0.1
730.273	0.1
730.588	0.1
730.903	0.11
731.218	0.1
731.533	0.11
731.848	0.1
732.163	0.1
732.477	0.1
732.792	0.1
733.107	0.09
733.421	0.09
733.736	0.09
734.05	0.1
734.364	0.1
734.678	0.1
734.993	0.1
735.307	0.1
735.621	0.1
735.935	0.1
736.249	0.1
736.563	0.1
736.877	0.1
737.19	0.11
737.504	0.11
737.818	0.11
738.131	0.1
738.445	0.11
738.758	0.11
739.072	0.1
739.385	0.1
739.698	0.1
740.012	0.1
740.325	0.1
740.638	0.1
740.951	0.1
741.264	0.1
741.577	0.1
741.89	0.1
742.203	0.1
742.515	0.1
742.828	0.1
743.141	0.1
743.453	0.1
743.766	0.1
744.078	0.1
744.391	0.1
744.703	0.1
745.015	0.09
745.327	0.09
745.639	0.09
745.952	0.09
746.264	0.09
746.575	0.09
746.887	0.09
747.199	0.09
747.511	0.09
747.823	0.09
748.134	0.09
748.446	0.09
748.757	0.08
749.069	0.08
749.38	0.08
749.692	0.08
750.003	0.08
750.314	0.08
750.625	0.08
750.936	0.08
751.248	0.07
751.559	0.07
751.869	0.07
752.18	0.07
752.491	0.07
752.802	0.06
753.112	0.07
753.423	0.07
753.734	0.07
754.044	0.07
754.355	0.07
754.665	0.07
754.975	0.06
755.285	0.06
755.596	0.06
755.906	0.06
756.216	0.06
756.526	0.06
756.836	0.06
757.146	0.06
757.455	0.06
757.765	0.06
758.075	0.05
758.385	0.05
758.694	0.05
759.004	0.05
759.313	0.05
759.622	0.05
759.932	0.05
760.241	0.05
760.55	0.05
760.859	0.04
761.168	0.04
761.477	0.04
761.786	0.03
762.095	0.03
762.404	0.04
762.713	0.04
763.021	0.04
763.33	0.04
763.639	0.04
763.947	0.04
764.256	0.04
764.564	0.04
764.872	0.04
765.181	0.04
765.489	0.04
765.797	0.04
766.105	0.04
766.413	0.03
766.721	0.03
767.029	0.03
767.337	0.03
767.644	0.03
767.952	0.03
768.26	0.03
768.567	0.03
768.875	0.04
769.182	0.04
769.49	0.04
769.797	0.03
770.104	0.03
770.411	0.03
770.718	0.03
771.026	0.03
771.333	0.03
771.639	0.03
771.946	0.03
772.253	0.03
772.56	0.03
772.867	0.03
773.173	0.03
773.48	0.03
773.786	0.03
774.093	0.02
774.399	0.03
774.705	0.02
775.012	0.02
775.318	0.02
775.624	0.02
775.93	0.02
776.236	0.02
776.542	0.02
776.848	0.02
777.154	0.02
777.459	0.03
777.765	0.03
778.071	0.03
778.376	0.03
778.682	0.03
778.987	0.03
779.292	0.03
779.598	0.03
779.903	0.03
780.208	0.03
780.513	0.03
780.818	0.03
781.123	0.03
781.428	0.03
781.733	0.03
782.038	0.03
782.343	0.03
782.647	0.03
782.952	0.03
783.256	0.03
783.561	0.03
783.865	0.03
784.17	0.03
784.474	0.03
784.778	0.03
785.082	0.03
785.386	0.03
785.69	0.03
785.994	0.03
786.298	0.03
786.602	0.03
786.906	0.03
787.209	0.03
787.513	0.03
787.817	0.04
788.12	0.03
788.424	0.03
788.727	0.03
789.03	0.03
789.333	0.03
789.637	0.03
789.94	0.03
790.243	0.03
790.546	0.03
790.849	0.03
791.152	0.03
791.454	0.03
791.757	0.03
792.06	0.03
792.362	0.03
792.665	0.03
792.967	0.03
793.27	0.03
793.572	0.03
793.874	0.03
794.177	0.03
794.479	0.03
794.781	0.03
795.083	0.03
795.385	0.02
795.687	0.02
795.989	0.03
796.29	0.03
796.592	0.03
796.894	0.03
797.195	0.03
797.497	0.04
797.798	0.04
798.1	0.03
798.401	0.03
798.702	0.04
799.003	0.03
799.304	0.04
799.605	0.04
799.906	0.04
800.207	0.03
800.508	0.03
800.809	0.03
801.11	0.03
801.41	0.03
801.711	0.02
802.011	0.02
802.312	0.03
802.612	0.02
802.913	0.02
803.213	0.02
803.513	0.02
803.813	0.03
804.113	0.02
804.413	0.03
804.713	0.03
805.013	0.03
805.313	0.03
805.613	0.03
805.912	0.03
806.212	0.03
806.511	0.03
806.811	0.03
807.11	0.03
807.41	0.03
807.709	0.03
808.008	0.03
808.307	0.04
808.606	0.04
808.905	0.03
809.204	0.03
809.503	0.03
809.802	0.03
810.101	0.03
810.399	0.03
810.698	0.03
810.997	0.03
811.295	0.03
811.593	0.04
811.892	0.03
812.19	0.03
812.488	0.03
812.786	0.04
813.084	0.04
813.383	0.04
813.68	0.04
813.978	0.04
814.276	0.05
814.574	0.04
814.872	0.04
815.169	0.04
815.467	0.04
815.764	0.04
816.062	0.04
816.359	0.04
816.656	0.04
816.954	0.04
817.251	0.04
817.548	0.05
817.845	0.05
818.142	0.05
818.439	0.05
818.735	0.05
819.032	0.05
819.329	0.04
819.626	0.04
819.922	0.04
820.219	0.05
820.515	0.04
820.811	0.04
821.108	0.04
821.404	0.04
821.7	0.04
821.996	0.04
822.292	0.03
822.588	0.04
822.884	0.04
823.18	0.04
823.475	0.04
823.771	0.04
824.067	0.05
824.362	0.04
824.658	0.05
824.953	0.05
825.249	0.04
825.544	0.04
825.839	0.05
826.134	0.05
826.429	0.05
826.724	0.05
827.019	0.05
827.314	0.05
827.609	0.04
827.904	0.03
828.198	0.04
828.493	0.04
828.787	0.04
829.082	0.04
829.376	0.04
829.671	0.04
829.965	0.04
830.259	0.04
830.553	0.05
830.847	0.05
831.141	0.06
831.435	0.05
831.729	0.05
832.023	0.06
832.317	0.06
832.61	0.06
832.904	0.06
833.197	0.05
833.491	0.05
833.784	0.06
834.077	0.05
834.371	0.05
834.664	0.05
834.957	0.05
835.25	0.05
835.543	0.06
835.836	0.05
836.129	0.05
836.421	0.05
836.714	0.06
837.007	0.05
837.299	0.05
837.592	0.05
837.884	0.06
838.177	0.05
838.469	0.05
838.761	0.04
839.053	0.05
839.345	0.05
839.637	0.05
839.929	0.06
840.221	0.06
840.513	0.06
840.805	0.06
841.096	0.06
841.388	0.06
841.68	0.06
841.971	0.05
842.262	0.07
842.554	0.06
842.845	0.06
843.136	0.06
843.427	0.05
843.718	0.06
844.009	0.06
844.3	0.05
844.591	0.05
844.882	0.05
845.173	0.05
845.463	0.05
845.754	0.05
846.044	0.05
846.335	0.05
846.625	0.06
846.915	0.05
847.206	0.06
847.496	0.07
847.786	0.06
848.076	0.06
848.366	0.07
848.656	0.06
848.945	0.06
849.235	0.06
849.525	0.06
849.814	0.05
850.104	0.05
850.393	0.05
850.683	0.06
850.972	0.05
851.261	0.06
851.551	0.05
851.84	0.05
852.129	0.06
852.418	0.05
852.707	0.07
852.995	0.05
853.284	0.05
853.573	0.05
853.862	0.06
854.15	0.06
854.439	0.06
854.727	0.06
855.015	0.06
855.304	0.05
855.592	0.05
855.88	0.05
856.168	0.05
856.456	0.06
856.744	0.06
857.032	0.05
857.32	0.06
857.607	0.07
857.895	0.04
858.183	0.05
858.47	0.05
858.757	0.04
859.045	0.06
859.332	0.06
859.619	0.06
859.907	0.05
860.194	0.06
860.481	0.06
860.768	0.06
861.054	0.06
861.341	0.05
861.628	0.05
861.915	0.06
862.201	0.06
862.488	0.04
862.774	0.06
863.061	0.06
863.347	0.06
863.633	0.05
863.919	0.03
864.205	0.05
864.491	0.03
864.777	0.03
865.063	0.03
865.349	0.04
865.635	0.08
865.92	0.05
866.206	0.04
866.492	0.02
866.777	0.06
867.062	0.05
867.348	0.05
867.633	0.06
867.918	0.01
868.203	0.06
868.488	0.05
868.773	0.06
869.058	0.04
869.343	0.05
869.628	0.02
869.912	0
870.197	0.06
870.482	0.05
870.766	0.03
871.05	0.04
871.335	0.05
871.619	0.05
871.903	0.02
872.187	0.06
872.471	0.05
872.755	0.01
873.039	0.02
873.323	0.06
873.607	0.01
873.89	0.04
874.174	-0
874.458	0.02
874.741	0
875.024	0.04
875.308	0.01
875.591	0.01
875.874	0.05
876.157	0.04
876.44	-0.03
876.723	0.01
877.006	-0.01
877.289	0.01
877.572	0.03
877.854	0.03
878.137	0.04
878.42	0.06
878.702	0.04
878.984	0.05
879.267	-0.07
879.549	0.06
879.831	0.04
880.113	0.11
880.395	0.12
880.677	0.05
880.959	-0.07
