Data from Rubpy_EV_1800_EDTA_Buffered_Absorbance_15-27-27-642.txt Node
Date: Tue Jun 30 15:27:27 BST 2026
User: fpm-admin
Spectrometer: OFX00224
Trigger mode: 0
Integration Time (sec): 7.000000E-2
Scans to average: 3
Nonlinearity correction enabled: false
Boxcar width: 0
Storing dark spectrum: false
XAxis mode: Wavelengths
Number of Pixels in Spectrum: 2136
>>>>>Begin Spectral Data<<<<<
154.91	-0
155.289	-0
155.669	-0
156.048	-0
156.428	-0.28
156.807	0.19
157.186	-0
157.566	-0
157.945	0.11
158.325	-0
158.704	-0
159.083	-0.59
159.462	0.86
159.842	-0.23
160.221	0.45
160.6	-0.46
160.979	-0.43
161.359	0.01
161.738	-0
162.117	0.81
162.496	-0
162.875	0.73
163.254	-0
163.633	-0
164.012	-0.41
164.391	0.27
164.77	-0
165.149	0.01
165.528	-0
165.907	-0.73
166.286	0.2
166.665	-0.19
167.044	-1.23
167.423	-0
167.802	0.72
168.181	0.21
168.559	-0
168.938	-0.62
169.317	-0.39
169.696	0.02
170.074	-0
170.453	-0
170.832	-0.02
171.21	-0
171.589	-0
171.968	-0
172.346	-0.26
172.725	0.2
173.103	-0.14
173.482	0.39
173.861	0.92
174.239	-0
174.617	0.51
174.996	-0.43
175.374	-0
175.753	0.22
176.131	-0
176.51	-0
176.888	-0
177.266	-0
177.645	-0.26
178.023	1.18
178.401	-0.26
178.779	-0.13
179.158	0.1
179.536	-0.21
179.914	-0
180.292	-0.34
180.67	-0
181.048	-0
181.427	-0.05
181.805	-0
182.183	-0.56
182.561	-0
182.939	-0
183.317	-0.1
183.695	0.12
184.073	0.1
184.451	-0.01
184.829	-0.13
185.206	-0.26
185.584	-0.09
185.962	-0
186.34	-0
186.718	-0
187.096	0.04
187.473	-0
187.851	-0
188.229	0.4
188.607	0.13
188.984	0.13
189.362	0.12
189.74	0.09
190.117	0.2
190.495	0.16
190.872	0.02
191.25	0.13
191.627	0.15
192.005	0.1
192.382	0.18
192.76	0.15
193.137	0.15
193.515	0.09
193.892	0.16
194.269	0.17
194.647	0.05
195.024	0.12
195.401	0.11
195.779	0.02
196.156	0.09
196.533	0.1
196.91	0.17
197.288	0.13
197.665	0.18
198.042	0.19
198.419	0.15
198.796	0.02
199.173	0.16
199.55	0.18
199.927	0.08
200.304	0.13
200.681	0.18
201.058	0.09
201.435	0.13
201.812	0.11
202.189	0.18
202.566	0.1
202.943	0.29
203.32	0.14
203.697	0.08
204.073	0.18
204.45	0.17
204.827	0.14
205.204	0.1
205.58	0.11
205.957	0.04
206.334	0.24
206.71	0.23
207.087	0.15
207.464	0.07
207.84	0.12
208.217	0.09
208.593	0.14
208.97	0.07
209.346	0.12
209.723	0.07
210.099	0.1
210.476	0.11
210.852	0.19
211.228	0.03
211.605	0.2
211.981	0.13
212.357	0.11
212.733	0.12
213.11	0.16
213.486	0.15
213.862	0.07
214.238	0.11
214.614	0.14
214.991	0.15
215.367	0.1
215.743	0.18
216.119	0.12
216.495	0.21
216.871	0.13
217.247	0.12
217.623	0.1
217.999	0.17
218.375	0.06
218.751	0.19
219.127	0.15
219.502	0.06
219.878	0.04
220.254	0.19
220.63	0.1
221.006	0.16
221.381	0.2
221.757	0.05
222.133	0.14
222.508	0.15
222.884	0.15
223.26	0.03
223.635	0.13
224.011	0.16
224.386	0.13
224.762	0.09
225.137	0.08
225.513	0.14
225.888	0.11
226.264	0.12
226.639	0.17
227.014	0.16
227.39	0.19
227.765	0.18
228.14	0.08
228.516	0.1
228.891	0.24
229.266	0.08
229.641	0.28
230.017	0.21
230.392	0.25
230.767	0.15
231.142	0.08
231.517	0.13
231.892	0.1
232.267	0.2
232.642	0.18
233.017	0.23
233.392	0.16
233.767	0.21
234.142	0.14
234.517	0.12
234.892	0.16
235.267	0.14
235.641	0.12
236.016	0.08
236.391	0.15
236.766	0.08
237.14	0.11
237.515	0.06
237.89	0.1
238.264	0.23
238.639	0.17
239.014	0.22
239.388	0.18
239.763	0.12
240.137	0.1
240.512	0.2
240.886	0.11
241.261	0.14
241.635	0.12
242.009	0.09
242.384	0.16
242.758	0.3
243.132	0.23
243.507	0.14
243.881	0.13
244.255	0.1
244.629	0.17
245.004	0.1
245.378	0.06
245.752	0.2
246.126	0.22
246.5	0.25
246.874	0.22
247.248	0.07
247.622	0.18
247.996	0.15
248.37	0.15
248.744	0.1
249.118	0.14
249.492	0.09
249.866	0.09
250.24	0.18
250.613	0.13
250.987	0.16
251.361	0.22
251.735	0.16
252.108	0.13
252.482	0.08
252.856	0.07
253.229	0.14
253.603	0.12
253.977	0.12
254.35	0.12
254.724	0.06
255.097	0.09
255.471	0.14
255.844	0.16
256.218	0.16
256.591	0.12
256.964	0.22
257.338	0.12
257.711	0.08
258.084	0.14
258.458	0.21
258.831	0.16
259.204	0.17
259.577	0.1
259.95	0.19
260.323	0.14
260.697	0.18
261.07	0.17
261.443	0.24
261.816	0.08
262.189	0.18
262.562	0.11
262.935	0.06
263.308	0.14
263.68	0.16
264.053	0.14
264.426	0.24
264.799	0.13
265.172	0.2
265.545	0.19
265.917	0.2
266.29	0.16
266.663	0.19
267.035	0.17
267.408	0.19
267.781	0.11
268.153	0.23
268.526	0.2
268.898	0.15
269.271	0.14
269.643	0.18
270.016	0.12
270.388	0.15
270.76	0.21
271.133	0.16
271.505	0.24
271.877	0.18
272.25	0.16
272.622	0.09
272.994	0.12
273.366	0.11
273.739	0.15
274.111	0.14
274.483	0.07
274.855	0.18
275.227	0.17
275.599	0.18
275.971	0.19
276.343	0.14
276.715	0.18
277.087	0.17
277.459	0.19
277.831	0.16
278.203	0.19
278.574	0.19
278.946	0.15
279.318	0.16
279.69	0.08
280.061	0.25
280.433	0.14
280.805	0.14
281.176	0.18
281.548	0.15
281.92	0.17
282.291	0.19
282.663	0.14
283.034	0.18
283.406	0.15
283.777	0.12
284.148	0.21
284.52	0.16
284.891	0.16
285.262	0.18
285.634	0.16
286.005	0.16
286.376	0.1
286.747	0.17
287.119	0.18
287.49	0.17
287.861	0.17
288.232	0.14
288.603	0.17
288.974	0.16
289.345	0.08
289.716	0.18
290.087	0.16
290.458	0.16
290.829	0.19
291.2	0.13
291.571	0.16
291.941	0.1
292.312	0.14
292.683	0.18
293.054	0.16
293.424	0.14
293.795	0.29
294.166	0.19
294.536	0.19
294.907	0.22
295.277	0.16
295.648	0.12
296.018	0.14
296.389	0.15
296.759	0.19
297.13	0.14
297.5	0.2
297.871	0.16
298.241	0.15
298.611	0.16
298.981	0.18
299.352	0.21
299.722	0.15
300.092	0.15
300.462	0.19
300.832	0.17
301.202	0.16
301.573	0.12
301.943	0.15
302.313	0.14
302.683	0.15
303.053	0.14
303.422	0.14
303.792	0.13
304.162	0.16
304.532	0.14
304.902	0.16
305.272	0.15
305.641	0.16
306.011	0.14
306.381	0.17
306.75	0.16
307.12	0.16
307.49	0.16
307.859	0.17
308.229	0.16
308.598	0.17
308.968	0.16
309.337	0.16
309.707	0.17
310.076	0.17
310.445	0.17
310.815	0.18
311.184	0.18
311.553	0.19
311.923	0.18
312.292	0.18
312.661	0.19
313.03	0.19
313.399	0.18
313.768	0.19
314.137	0.19
314.506	0.19
314.875	0.19
315.244	0.18
315.613	0.18
315.982	0.18
316.351	0.18
316.72	0.18
317.089	0.18
317.458	0.18
317.826	0.18
318.195	0.18
318.564	0.18
318.933	0.17
319.301	0.17
319.67	0.17
320.038	0.17
320.407	0.17
320.775	0.17
321.144	0.16
321.512	0.16
321.881	0.16
322.249	0.16
322.618	0.17
322.986	0.16
323.354	0.16
323.723	0.16
324.091	0.15
324.459	0.15
324.827	0.15
325.195	0.15
325.564	0.15
325.932	0.15
326.3	0.15
326.668	0.16
327.036	0.15
327.404	0.15
327.772	0.15
328.14	0.15
328.508	0.14
328.875	0.16
329.243	0.16
329.611	0.15
329.979	0.15
330.346	0.15
330.714	0.15
331.082	0.16
331.449	0.16
331.817	0.16
332.185	0.16
332.552	0.16
332.92	0.16
333.287	0.16
333.655	0.17
334.022	0.17
334.389	0.16
334.757	0.17
335.124	0.18
335.491	0.18
335.859	0.18
336.226	0.18
336.593	0.18
336.96	0.18
337.327	0.18
337.695	0.18
338.062	0.19
338.429	0.19
338.796	0.2
339.163	0.2
339.53	0.2
339.897	0.2
340.263	0.2
340.63	0.21
340.997	0.21
341.364	0.21
341.731	0.22
342.097	0.22
342.464	0.23
342.831	0.23
343.197	0.23
343.564	0.24
343.931	0.24
344.297	0.25
344.664	0.25
345.03	0.25
345.396	0.26
345.763	0.26
346.129	0.26
346.496	0.27
346.862	0.27
347.228	0.27
347.594	0.28
347.961	0.28
348.327	0.29
348.693	0.29
349.059	0.3
349.425	0.3
349.791	0.31
350.157	0.31
350.523	0.31
350.889	0.32
351.255	0.33
351.621	0.34
351.987	0.34
352.353	0.35
352.719	0.35
353.084	0.36
353.45	0.37
353.816	0.38
354.181	0.39
354.547	0.39
354.913	0.4
355.278	0.41
355.644	0.41
356.009	0.42
356.375	0.43
356.74	0.44
357.106	0.45
357.471	0.45
357.836	0.47
358.202	0.48
358.567	0.49
358.932	0.49
359.297	0.51
359.663	0.51
360.028	0.52
360.393	0.52
360.758	0.53
361.123	0.53
361.488	0.55
361.853	0.55
362.218	0.55
362.583	0.56
362.948	0.57
363.312	0.57
363.677	0.58
364.042	0.58
364.407	0.6
364.772	0.6
365.136	0.62
365.501	0.63
365.865	0.64
366.23	0.65
366.595	0.68
366.959	0.68
367.324	0.69
367.688	0.7
368.052	0.71
368.417	0.72
368.781	0.73
369.145	0.75
369.51	0.75
369.874	0.75
370.238	0.75
370.602	0.75
370.967	0.75
371.331	0.76
371.695	0.74
372.059	0.74
372.423	0.74
372.787	0.73
373.151	0.73
373.515	0.73
373.878	0.72
374.242	0.73
374.606	0.71
374.97	0.72
375.334	0.72
375.697	0.73
376.061	0.72
376.425	0.74
376.788	0.74
377.152	0.74
377.515	0.75
377.879	0.75
378.242	0.75
378.606	0.76
378.969	0.77
379.333	0.78
379.696	0.8
380.059	0.8
380.422	0.82
380.786	0.82
381.149	0.85
381.512	0.86
381.875	0.87
382.238	0.89
382.601	0.91
382.964	0.94
383.327	0.95
383.69	0.99
384.053	1.02
384.416	1.03
384.779	1.06
385.142	1.07
385.504	1.08
385.867	1.1
386.23	1.11
386.593	1.14
386.955	1.13
387.318	1.14
387.68	1.13
388.043	1.12
388.405	1.11
388.768	1.1
389.13	1.1
389.493	1.08
389.855	1.08
390.217	1.07
390.58	1.08
390.942	1.09
391.304	1.09
391.666	1.09
392.028	1.1
392.391	1.14
392.753	1.17
393.115	1.19
393.477	1.24
393.839	1.28
394.201	1.31
394.563	1.38
394.924	1.42
395.286	1.46
395.648	1.52
396.01	1.53
396.371	1.59
396.733	1.59
397.095	1.61
397.456	1.61
397.818	1.64
398.18	1.6
398.541	1.61
398.903	1.58
399.264	1.55
399.625	1.49
399.987	1.43
400.348	1.4
400.709	1.35
401.071	1.28
401.432	1.21
401.793	1.13
402.154	1.06
402.515	1
402.876	0.93
403.238	0.86
403.599	0.81
403.96	0.75
404.32	0.69
404.681	0.65
405.042	0.6
405.403	0.56
405.764	0.53
406.125	0.48
406.485	0.45
406.846	0.42
407.207	0.39
407.567	0.37
407.928	0.35
408.288	0.33
408.649	0.31
409.009	0.29
409.37	0.28
409.73	0.27
410.091	0.26
410.451	0.24
410.811	0.23
411.171	0.22
411.532	0.22
411.892	0.2
412.252	0.19
412.612	0.18
412.972	0.18
413.332	0.17
413.692	0.17
414.052	0.16
414.412	0.16
414.772	0.16
415.132	0.15
415.492	0.14
415.851	0.13
416.211	0.13
416.571	0.13
416.931	0.13
417.29	0.13
417.65	0.12
418.009	0.11
418.369	0.11
418.728	0.12
419.088	0.11
419.447	0.11
419.807	0.1
420.166	0.1
420.525	0.11
420.884	0.1
421.244	0.1
421.603	0.1
421.962	0.1
422.321	0.09
422.68	0.1
423.039	0.09
423.398	0.09
423.757	0.09
424.116	0.09
424.475	0.09
424.834	0.08
425.193	0.09
425.551	0.08
425.91	0.08
426.269	0.08
426.628	0.08
426.986	0.09
427.345	0.08
427.703	0.08
428.062	0.08
428.42	0.07
428.779	0.07
429.137	0.08
429.496	0.06
429.854	0.08
430.212	0.07
430.57	0.07
430.929	0.06
431.287	0.07
431.645	0.07
432.003	0.07
432.361	0.07
432.719	0.06
433.077	0.07
433.435	0.07
433.793	0.07
434.151	0.07
434.509	0.06
434.866	0.07
435.224	0.06
435.582	0.06
435.94	0.06
436.297	0.06
436.655	0.06
437.012	0.06
437.37	0.07
437.727	0.06
438.085	0.06
438.442	0.06
438.8	0.06
439.157	0.06
439.514	0.06
439.872	0.05
440.229	0.06
440.586	0.06
440.943	0.06
441.3	0.06
441.657	0.05
442.014	0.05
442.371	0.05
442.728	0.06
443.085	0.05
443.442	0.05
443.799	0.05
444.156	0.04
444.513	0.05
444.869	0.05
445.226	0.05
445.583	0.05
445.939	0.05
446.296	0.05
446.652	0.04
447.009	0.05
447.365	0.05
447.722	0.04
448.078	0.04
448.434	0.04
448.791	0.04
449.147	0.04
449.503	0.04
449.859	0.04
450.215	0.04
450.571	0.04
450.928	0.04
451.284	0.04
451.64	0.03
451.995	0.04
452.351	0.04
452.707	0.04
453.063	0.03
453.419	0.02
453.775	0.03
454.13	0.03
454.486	0.03
454.842	0.02
455.197	0.03
455.553	0.02
455.908	0.02
456.264	0.02
456.619	0.02
456.975	0.02
457.33	0.01
457.685	0.01
458.04	0.01
458.396	0.01
458.751	0.02
459.106	0.01
459.461	0.01
459.816	0
460.171	0.01
460.526	-0
460.881	-0.01
461.236	-0
461.591	-0.01
461.946	-0.01
462.301	-0.02
462.655	-0.01
463.01	-0.01
463.365	-0.02
463.719	-0.02
464.074	-0.02
464.428	-0.03
464.783	-0.03
465.137	-0.02
465.492	-0.03
465.846	-0.04
466.201	-0.03
466.555	-0.03
466.909	-0.03
467.263	-0.03
467.618	-0.02
467.972	-0.02
468.326	-0.03
468.68	-0.03
469.034	-0.04
469.388	-0.03
469.742	-0.03
470.096	-0.03
470.45	-0.03
470.804	-0.03
471.157	-0.03
471.511	-0.03
471.865	-0.03
472.218	-0.03
472.572	-0.02
472.926	-0.03
473.279	-0.02
473.633	-0.02
473.986	-0.01
474.34	-0.01
474.693	-0.01
475.046	-0
475.4	0
475.753	0
476.106	0.01
476.459	0.01
476.812	0.02
477.165	0.01
477.519	0.02
477.872	0.02
478.224	0.02
478.577	0.03
478.93	0.03
479.283	0.03
479.636	0.03
479.989	0.03
480.341	0.04
480.694	0.04
481.047	0.04
481.399	0.04
481.752	0.05
482.104	0.05
482.457	0.05
482.809	0.05
483.162	0.05
483.514	0.06
483.866	0.06
484.219	0.07
484.571	0.06
484.923	0.06
485.275	0.07
485.627	0.07
485.979	0.06
486.331	0.07
486.683	0.08
487.035	0.08
487.387	0.08
487.739	0.07
488.091	0.08
488.443	0.08
488.794	0.09
489.146	0.08
489.498	0.08
489.849	0.08
490.201	0.08
490.552	0.09
490.904	0.09
491.255	0.09
491.607	0.09
491.958	0.09
492.309	0.09
492.661	0.09
493.012	0.09
493.363	0.09
493.714	0.1
494.065	0.1
494.416	0.1
494.767	0.1
495.118	0.1
495.469	0.11
495.82	0.11
496.171	0.11
496.522	0.11
496.872	0.11
497.223	0.12
497.574	0.11
497.924	0.12
498.275	0.12
498.626	0.12
498.976	0.12
499.327	0.12
499.677	0.13
500.027	0.12
500.378	0.13
500.728	0.12
501.078	0.13
501.428	0.13
501.779	0.13
502.129	0.13
502.479	0.13
502.829	0.13
503.179	0.13
503.529	0.14
503.879	0.14
504.229	0.14
504.578	0.14
504.928	0.14
505.278	0.15
505.628	0.14
505.977	0.15
506.327	0.15
506.676	0.15
507.026	0.15
507.375	0.16
507.725	0.16
508.074	0.16
508.424	0.16
508.773	0.16
509.122	0.16
509.471	0.16
509.82	0.17
510.17	0.17
510.519	0.17
510.868	0.17
511.217	0.17
511.566	0.18
511.915	0.17
512.263	0.17
512.612	0.18
512.961	0.18
513.31	0.18
513.659	0.19
514.007	0.19
514.356	0.18
514.704	0.19
515.053	0.19
515.401	0.19
515.75	0.19
516.098	0.2
516.447	0.2
516.795	0.2
517.143	0.2
517.491	0.2
517.839	0.2
518.188	0.21
518.536	0.2
518.884	0.2
519.232	0.21
519.58	0.21
519.928	0.21
520.275	0.21
520.623	0.22
520.971	0.22
521.319	0.22
521.666	0.22
522.014	0.22
522.362	0.23
522.709	0.22
523.057	0.23
523.404	0.22
523.752	0.23
524.099	0.23
524.446	0.24
524.794	0.23
525.141	0.24
525.488	0.24
525.835	0.24
526.182	0.24
526.529	0.24
526.876	0.24
527.223	0.25
527.57	0.25
527.917	0.25
528.264	0.25
528.611	0.25
528.958	0.26
529.304	0.26
529.651	0.26
529.998	0.26
530.344	0.27
530.691	0.26
531.037	0.27
531.384	0.27
531.73	0.27
532.076	0.27
532.423	0.27
532.769	0.28
533.115	0.27
533.461	0.28
533.807	0.28
534.154	0.28
534.5	0.28
534.846	0.29
535.192	0.29
535.537	0.29
535.883	0.29
536.229	0.3
536.575	0.3
536.921	0.3
537.266	0.3
537.612	0.3
537.957	0.3
538.303	0.3
538.649	0.31
538.994	0.31
539.339	0.31
539.685	0.31
540.03	0.31
540.375	0.32
540.721	0.32
541.066	0.33
541.411	0.33
541.756	0.33
542.101	0.33
542.446	0.33
542.791	0.34
543.136	0.34
543.481	0.34
543.825	0.34
544.17	0.35
544.515	0.35
544.86	0.35
545.204	0.35
545.549	0.35
545.893	0.35
546.238	0.36
546.582	0.36
546.927	0.36
547.271	0.36
547.615	0.37
547.96	0.37
548.304	0.37
548.648	0.37
548.992	0.37
549.336	0.37
549.68	0.38
550.024	0.38
550.368	0.38
550.712	0.38
551.056	0.39
551.4	0.38
551.743	0.39
552.087	0.39
552.431	0.39
552.774	0.39
553.118	0.4
553.462	0.4
553.805	0.4
554.148	0.4
554.492	0.4
554.835	0.41
555.178	0.41
555.522	0.41
555.865	0.41
556.208	0.41
556.551	0.41
556.894	0.42
557.237	0.41
557.58	0.42
557.923	0.41
558.266	0.42
558.609	0.42
558.952	0.42
559.294	0.42
559.637	0.42
559.98	0.42
560.322	0.42
560.665	0.42
561.007	0.42
561.35	0.42
561.692	0.43
562.034	0.43
562.377	0.43
562.719	0.43
563.061	0.43
563.403	0.43
563.745	0.43
564.088	0.43
564.43	0.44
564.772	0.43
565.113	0.43
565.455	0.44
565.797	0.44
566.139	0.44
566.481	0.44
566.822	0.44
567.164	0.44
567.506	0.44
567.847	0.44
568.189	0.45
568.53	0.44
568.872	0.44
569.213	0.45
569.554	0.45
569.895	0.44
570.237	0.44
570.578	0.45
570.919	0.44
571.26	0.45
571.601	0.45
571.942	0.45
572.283	0.44
572.624	0.44
572.965	0.44
573.306	0.44
573.646	0.44
573.987	0.44
574.328	0.44
574.668	0.45
575.009	0.44
575.349	0.44
575.69	0.44
576.03	0.44
576.37	0.44
576.711	0.43
577.051	0.44
577.391	0.44
577.731	0.44
578.072	0.44
578.412	0.44
578.752	0.44
579.092	0.44
579.431	0.43
579.771	0.41
580.111	0.39
580.451	0.4
580.791	0.42
581.13	0.44
581.47	0.45
581.81	0.45
582.149	0.44
582.489	0.45
582.828	0.44
583.167	0.42
583.507	0.38
583.846	0.36
584.185	0.37
584.525	0.4
584.864	0.43
585.203	0.45
585.542	0.46
585.881	0.46
586.22	0.47
586.559	0.46
586.898	0.45
587.236	0.44
587.575	0.43
587.914	0.43
588.252	0.45
588.591	0.47
588.93	0.47
589.268	0.47
589.607	0.47
589.945	0.47
590.283	0.47
590.622	0.48
590.96	0.48
591.298	0.49
591.636	0.49
591.974	0.49
592.313	0.5
592.651	0.5
592.989	0.5
593.326	0.5
593.664	0.51
594.002	0.51
594.34	0.5
594.678	0.51
595.015	0.5
595.353	0.48
595.691	0.49
596.028	0.51
596.366	0.51
596.703	0.52
597.04	0.52
597.378	0.53
597.715	0.53
598.052	0.54
598.389	0.54
598.726	0.54
599.064	0.54
599.401	0.54
599.738	0.54
600.074	0.54
600.411	0.54
600.748	0.54
601.085	0.53
601.422	0.53
601.758	0.53
602.095	0.53
602.432	0.53
602.768	0.53
603.105	0.54
603.441	0.54
603.777	0.55
604.114	0.54
604.45	0.55
604.786	0.55
605.122	0.55
605.459	0.55
605.795	0.54
606.131	0.54
606.467	0.54
606.803	0.55
607.139	0.54
607.474	0.54
607.81	0.54
608.146	0.54
608.482	0.54
608.817	0.53
609.153	0.53
609.488	0.53
609.824	0.53
610.159	0.53
610.495	0.53
610.83	0.53
611.165	0.53
611.5	0.53
611.836	0.53
612.171	0.53
612.506	0.53
612.841	0.53
613.176	0.53
613.511	0.53
613.845	0.52
614.18	0.52
614.515	0.52
614.85	0.52
615.184	0.51
615.519	0.52
615.854	0.52
616.188	0.51
616.523	0.51
616.857	0.51
617.191	0.51
617.526	0.51
617.86	0.5
618.194	0.5
618.528	0.5
618.862	0.5
619.196	0.5
619.53	0.5
619.864	0.5
620.198	0.5
620.532	0.5
620.866	0.49
621.2	0.5
621.533	0.49
621.867	0.5
622.201	0.49
622.534	0.49
622.868	0.49
623.201	0.49
623.534	0.48
623.868	0.48
624.201	0.48
624.534	0.48
624.868	0.48
625.201	0.47
625.534	0.47
625.867	0.47
626.2	0.47
626.533	0.46
626.865	0.47
627.198	0.46
627.531	0.46
627.864	0.46
628.196	0.46
628.529	0.46
628.862	0.46
629.194	0.45
629.527	0.45
629.859	0.44
630.191	0.44
630.524	0.44
630.856	0.43
631.188	0.43
631.52	0.43
631.852	0.43
632.184	0.42
632.516	0.42
632.848	0.42
633.18	0.42
633.512	0.42
633.844	0.41
634.175	0.41
634.507	0.41
634.839	0.4
635.17	0.4
635.502	0.39
635.833	0.39
636.165	0.38
636.496	0.38
636.827	0.38
637.159	0.38
637.49	0.37
637.821	0.37
638.152	0.37
638.483	0.37
638.814	0.36
639.145	0.36
639.476	0.36
639.807	0.35
640.137	0.35
640.468	0.35
640.799	0.34
641.129	0.34
641.46	0.34
641.791	0.34
642.121	0.34
642.451	0.34
642.782	0.34
643.112	0.33
643.442	0.33
643.773	0.33
644.103	0.32
644.433	0.32
644.763	0.32
645.093	0.32
645.423	0.31
645.753	0.31
646.082	0.31
646.412	0.31
646.742	0.31
647.072	0.3
647.401	0.3
647.731	0.3
648.06	0.3
648.39	0.3
648.719	0.3
649.048	0.3
649.378	0.3
649.707	0.29
650.036	0.29
650.365	0.29
650.694	0.29
651.023	0.29
651.352	0.29
651.681	0.29
652.01	0.29
652.339	0.28
652.668	0.29
652.996	0.29
653.325	0.29
653.654	0.29
653.982	0.29
654.311	0.29
654.639	0.29
654.967	0.29
655.296	0.29
655.624	0.28
655.952	0.29
656.28	0.28
656.609	0.28
656.937	0.28
657.265	0.28
657.593	0.23
657.92	0.09
658.248	0.04
658.576	0.02
658.904	0.09
659.231	0.17
659.559	0.25
659.887	0.28
660.214	0.29
660.542	0.28
660.869	0.29
661.196	0.29
661.524	0.29
661.851	0.29
662.178	0.29
662.505	0.29
662.832	0.28
663.159	0.29
663.486	0.28
663.813	0.28
664.14	0.28
664.467	0.28
664.794	0.28
665.12	0.28
665.447	0.28
665.774	0.28
666.1	0.27
666.427	0.27
666.753	0.27
667.079	0.27
667.406	0.27
667.732	0.26
668.058	0.27
668.384	0.27
668.71	0.27
669.036	0.27
669.362	0.27
669.688	0.27
670.014	0.26
670.34	0.26
670.666	0.26
670.991	0.26
671.317	0.26
671.643	0.26
671.968	0.26
672.294	0.26
672.619	0.26
672.945	0.26
673.27	0.26
673.595	0.25
673.92	0.25
674.246	0.25
674.571	0.24
674.896	0.24
675.221	0.25
675.546	0.25
675.87	0.24
676.195	0.24
676.52	0.24
676.845	0.24
677.169	0.24
677.494	0.24
677.819	0.23
678.143	0.23
678.468	0.22
678.792	0.22
679.116	0.22
679.44	0.22
679.765	0.22
680.089	0.21
680.413	0.21
680.737	0.21
681.061	0.21
681.385	0.21
681.709	0.2
682.033	0.2
682.356	0.2
682.68	0.2
683.004	0.2
683.327	0.2
683.651	0.19
683.974	0.19
684.298	0.19
684.621	0.19
684.944	0.18
685.268	0.18
685.591	0.18
685.914	0.18
686.237	0.17
686.56	0.17
686.883	0.16
687.206	0.16
687.529	0.16
687.852	0.15
688.175	0.16
688.497	0.16
688.82	0.16
689.142	0.16
689.465	0.15
689.787	0.15
690.11	0.15
690.432	0.15
690.755	0.15
691.077	0.15
691.399	0.15
691.721	0.14
692.043	0.14
692.365	0.14
692.687	0.14
693.009	0.13
693.331	0.13
693.653	0.13
693.974	0.13
694.296	0.12
694.618	0.12
694.939	0.12
695.261	0.12
695.582	0.12
695.904	0.12
696.225	0.12
696.546	0.12
696.868	0.12
697.189	0.12
697.51	0.12
697.831	0.11
698.152	0.11
698.473	0.11
698.794	0.1
699.114	0.1
699.435	0.08
699.756	0.09
700.077	0.09
700.397	0.1
700.718	0.1
701.038	0.1
701.359	0.1
701.679	0.1
701.999	0.1
702.32	0.1
702.64	0.1
702.96	0.09
703.28	0.1
703.6	0.1
703.92	0.09
704.24	0.09
704.56	0.09
704.879	0.09
705.199	0.09
705.519	0.09
705.838	0.09
706.158	0.09
706.478	0.08
706.797	0.09
707.116	0.09
707.436	0.09
707.755	0.09
708.074	0.08
708.393	0.08
708.712	0.08
709.031	0.06
709.35	0.06
709.669	0.06
709.988	0.06
710.307	0.06
710.626	0.07
710.944	0.07
711.263	0.07
711.582	0.08
711.9	0.08
712.219	0.08
712.537	0.08
712.855	0.08
713.174	0.08
713.492	0.07
713.81	0.08
714.128	0.08
714.446	0.08
714.764	0.07
715.082	0.07
715.4	0.07
715.718	0.07
716.035	0.07
716.353	0.07
716.671	0.07
716.988	0.07
717.306	0.07
717.623	0.07
717.941	0.08
718.258	0.08
718.575	0.08
718.893	0.08
719.21	0.08
719.527	0.08
719.844	0.08
720.161	0.08
720.478	0.08
720.795	0.08
721.112	0.09
721.428	0.09
721.745	0.09
722.062	0.09
722.378	0.09
722.695	0.09
723.011	0.09
723.328	0.09
723.644	0.09
723.96	0.09
724.276	0.09
724.593	0.09
724.909	0.09
725.225	0.09
725.541	0.09
725.857	0.09
726.173	0.1
726.488	0.1
726.804	0.1
727.12	0.1
727.435	0.1
727.751	0.1
728.067	0.09
728.382	0.1
728.697	0.09
729.013	0.09
729.328	0.09
729.643	0.09
729.958	0.09
730.273	0.09
730.588	0.09
730.903	0.1
731.218	0.09
731.533	0.09
731.848	0.09
732.163	0.1
732.477	0.09
732.792	0.09
733.107	0.08
733.421	0.09
733.736	0.09
734.05	0.09
734.364	0.09
734.678	0.09
734.993	0.09
735.307	0.09
735.621	0.09
735.935	0.09
736.249	0.09
736.563	0.09
736.877	0.09
737.19	0.1
737.504	0.1
737.818	0.09
738.131	0.09
738.445	0.09
738.758	0.09
739.072	0.09
739.385	0.09
739.698	0.09
740.012	0.09
740.325	0.09
740.638	0.09
740.951	0.09
741.264	0.09
741.577	0.09
741.89	0.09
742.203	0.09
742.515	0.09
742.828	0.09
743.141	0.08
743.453	0.08
743.766	0.08
744.078	0.08
744.391	0.08
744.703	0.08
745.015	0.08
745.327	0.08
745.639	0.08
745.952	0.08
746.264	0.08
746.575	0.08
746.887	0.08
747.199	0.08
747.511	0.08
747.823	0.07
748.134	0.07
748.446	0.07
748.757	0.07
749.069	0.07
749.38	0.07
749.692	0.07
750.003	0.07
750.314	0.07
750.625	0.07
750.936	0.07
751.248	0.07
751.559	0.07
751.869	0.07
752.18	0.06
752.491	0.06
752.802	0.06
753.112	0.07
753.423	0.06
753.734	0.06
754.044	0.06
754.355	0.06
754.665	0.06
754.975	0.06
755.285	0.06
755.596	0.05
755.906	0.05
756.216	0.05
756.526	0.05
756.836	0.05
757.146	0.05
757.455	0.05
757.765	0.05
758.075	0.05
758.385	0.05
758.694	0.05
759.004	0.05
759.313	0.04
759.622	0.05
759.932	0.04
760.241	0.04
760.55	0.04
760.859	0.04
761.168	0.04
761.477	0.04
761.786	0.04
762.095	0.03
762.404	0.04
762.713	0.04
763.021	0.03
763.33	0.03
763.639	0.03
763.947	0.03
764.256	0.03
764.564	0.03
764.872	0.03
765.181	0.03
765.489	0.03
765.797	0.03
766.105	0.03
766.413	0.03
766.721	0.03
767.029	0.03
767.337	0.03
767.644	0.02
767.952	0.03
768.26	0.03
768.567	0.03
768.875	0.03
769.182	0.03
769.49	0.03
769.797	0.03
770.104	0.03
770.411	0.03
770.718	0.03
771.026	0.03
771.333	0.03
771.639	0.03
771.946	0.03
772.253	0.03
772.56	0.03
772.867	0.02
773.173	0.02
773.48	0.02
773.786	0.02
774.093	0.02
774.399	0.02
774.705	0.02
775.012	0.02
775.318	0.02
775.624	0.02
775.93	0.02
776.236	0.01
776.542	0.02
776.848	0.02
777.154	0.02
777.459	0.02
777.765	0.03
778.071	0.02
778.376	0.02
778.682	0.02
778.987	0.02
779.292	0.02
779.598	0.02
779.903	0.02
780.208	0.03
780.513	0.02
780.818	0.02
781.123	0.02
781.428	0.02
781.733	0.02
782.038	0.02
782.343	0.03
782.647	0.03
782.952	0.03
783.256	0.03
783.561	0.03
783.865	0.03
784.17	0.03
784.474	0.03
784.778	0.03
785.082	0.02
785.386	0.03
785.69	0.03
785.994	0.03
786.298	0.03
786.602	0.03
786.906	0.03
787.209	0.03
787.513	0.03
787.817	0.03
788.12	0.03
788.424	0.03
788.727	0.03
789.03	0.03
789.333	0.02
789.637	0.03
789.94	0.02
790.243	0.03
790.546	0.03
790.849	0.03
791.152	0.03
791.454	0.03
791.757	0.03
792.06	0.03
792.362	0.03
792.665	0.02
792.967	0.02
793.27	0.03
793.572	0.03
793.874	0.03
794.177	0.02
794.479	0.03
794.781	0.02
795.083	0.02
795.385	0.02
795.687	0.01
795.989	0.02
796.29	0.02
796.592	0.03
796.894	0.03
797.195	0.03
797.497	0.03
797.798	0.03
798.1	0.03
798.401	0.03
798.702	0.03
799.003	0.03
799.304	0.03
799.605	0.04
799.906	0.03
800.207	0.03
800.508	0.03
800.809	0.03
801.11	0.03
801.41	0.02
801.711	0.02
802.011	0.02
802.312	0.02
802.612	0.02
802.913	0.02
803.213	0.02
803.513	0.02
803.813	0.02
804.113	0.02
804.413	0.03
804.713	0.02
805.013	0.03
805.313	0.03
805.613	0.03
805.912	0.03
806.212	0.03
806.511	0.02
806.811	0.03
807.11	0.02
807.41	0.02
807.709	0.03
808.008	0.02
808.307	0.03
808.606	0.03
808.905	0.02
809.204	0.03
809.503	0.03
809.802	0.03
810.101	0.02
810.399	0.03
810.698	0.03
810.997	0.03
811.295	0.03
811.593	0.03
811.892	0.03
812.19	0.03
812.488	0.03
812.786	0.03
813.084	0.03
813.383	0.03
813.68	0.03
813.978	0.03
814.276	0.04
814.574	0.03
814.872	0.04
815.169	0.03
815.467	0.03
815.764	0.04
816.062	0.03
816.359	0.03
816.656	0.03
816.954	0.03
817.251	0.04
817.548	0.04
817.845	0.04
818.142	0.04
818.439	0.04
818.735	0.04
819.032	0.04
819.329	0.04
819.626	0.04
819.922	0.04
820.219	0.04
820.515	0.04
820.811	0.04
821.108	0.04
821.404	0.03
821.7	0.04
821.996	0.04
822.292	0.04
822.588	0.04
822.884	0.04
823.18	0.04
823.475	0.04
823.771	0.04
824.067	0.04
824.362	0.04
824.658	0.04
824.953	0.04
825.249	0.04
825.544	0.04
825.839	0.04
826.134	0.04
826.429	0.05
826.724	0.04
827.019	0.05
827.314	0.04
827.609	0.04
827.904	0.03
828.198	0.04
828.493	0.03
828.787	0.04
829.082	0.03
829.376	0.03
829.671	0.04
829.965	0.04
830.259	0.04
830.553	0.05
830.847	0.04
831.141	0.05
831.435	0.05
831.729	0.05
832.023	0.05
832.317	0.05
832.61	0.05
832.904	0.05
833.197	0.05
833.491	0.04
833.784	0.05
834.077	0.04
834.371	0.05
834.664	0.04
834.957	0.05
835.25	0.05
835.543	0.05
835.836	0.05
836.129	0.06
836.421	0.05
836.714	0.05
837.007	0.05
837.299	0.05
837.592	0.05
837.884	0.05
838.177	0.05
838.469	0.04
838.761	0.04
839.053	0.04
839.345	0.05
839.637	0.05
839.929	0.06
840.221	0.06
840.513	0.05
840.805	0.06
841.096	0.06
841.388	0.06
841.68	0.06
841.971	0.05
842.262	0.06
842.554	0.05
842.845	0.05
843.136	0.06
843.427	0.05
843.718	0.06
844.009	0.05
844.3	0.05
844.591	0.04
844.882	0.04
845.173	0.04
845.463	0.04
845.754	0.04
846.044	0.04
846.335	0.05
846.625	0.05
846.915	0.05
847.206	0.05
847.496	0.06
847.786	0.05
848.076	0.05
848.366	0.05
848.656	0.05
848.945	0.05
849.235	0.05
849.525	0.06
849.814	0.05
850.104	0.05
850.393	0.04
850.683	0.04
850.972	0.05
851.261	0.04
851.551	0.05
851.84	0.05
852.129	0.05
852.418	0.06
852.707	0.06
852.995	0.04
853.284	0.05
853.573	0.04
853.862	0.05
854.15	0.05
854.439	0.05
854.727	0.05
855.015	0.05
855.304	0.05
855.592	0.04
855.88	0.04
856.168	0.04
856.456	0.04
856.744	0.05
857.032	0.04
857.32	0.04
857.607	0.06
857.895	0.04
858.183	0.06
858.47	0.04
858.757	0.04
859.045	0.04
859.332	0.03
859.619	0.04
859.907	0.05
860.194	0.06
860.481	0.06
860.768	0.05
861.054	0.06
861.341	0.04
861.628	0.04
861.915	0.06
862.201	0.06
862.488	0.04
862.774	0.05
863.061	0.05
863.347	0.03
863.633	0.04
863.919	0.03
864.205	0.05
864.491	0.03
864.777	0.03
865.063	0.03
865.349	0.04
865.635	0.08
865.92	0.04
866.206	0.04
866.492	0.02
866.777	0.05
867.062	0.04
867.348	0.04
867.633	0.03
867.918	0.02
868.203	0.04
868.488	0.04
868.773	0.04
869.058	0.01
869.343	0.01
869.628	0.04
869.912	-0.01
870.197	0.05
870.482	0.04
870.766	0.03
871.05	0.02
871.335	0.03
871.619	0.05
871.903	-0.02
872.187	0.02
872.471	0.02
872.755	0.02
873.039	0.04
873.323	0.03
873.607	0.01
873.89	0.03
874.174	-0.01
874.458	0
874.741	0.02
875.024	0.03
875.308	0.03
875.591	0
875.874	-0.01
876.157	0.03
876.44	0.02
876.723	-0.01
877.006	-0.01
877.289	-0.03
877.572	0.05
877.854	0.02
878.137	0.06
878.42	0.03
878.702	0.03
878.984	-0.05
879.267	-0.01
879.549	0.02
879.831	0.08
880.113	0.07
880.395	0.04
880.677	0.03
880.959	-0.03
