Data from Rubpy_EV_1800_EDTA_Buffered_Absorbance_15-26-37-702.txt Node
Date: Tue Jun 30 15:26:37 BST 2026
User: fpm-admin
Spectrometer: OFX00224
Trigger mode: 0
Integration Time (sec): 7.000000E-2
Scans to average: 3
Nonlinearity correction enabled: false
Boxcar width: 0
Storing dark spectrum: false
XAxis mode: Wavelengths
Number of Pixels in Spectrum: 2136
>>>>>Begin Spectral Data<<<<<
154.91	-0
155.289	-0
155.669	-0
156.048	0.3
156.428	-0.3
156.807	-0.18
157.186	-0
157.566	-0.3
157.945	0.35
158.325	-0
158.704	-0
159.083	-0
159.462	-0.04
159.842	-0.49
160.221	0.03
160.6	-0.39
160.979	-0.4
161.359	-0.11
161.738	-0.03
162.117	-0
162.496	-0.31
162.875	-0.35
163.254	-0.3
163.633	-0
164.012	-0.21
164.391	0.05
164.77	0.2
165.149	-0
165.528	0.43
165.907	-0.97
166.286	0.08
166.665	0.07
167.044	-1.25
167.423	-0
167.802	-0
168.181	0.19
168.559	-0
168.938	-0.6
169.317	-0.29
169.696	-0
170.074	-0
170.453	-0
170.832	0.2
171.21	-0
171.589	-0.39
171.968	-0
172.346	-0.37
172.725	0.01
173.103	-0.16
173.482	-0.05
173.861	-0.18
174.239	-0.3
174.617	-0.14
174.996	-0.3
175.374	0.2
175.753	-0
176.131	0.25
176.51	-0
176.888	-0
177.266	-0
177.645	-0.19
178.023	1.84
178.401	-0.31
178.779	-0.18
179.158	0.07
179.536	0.95
179.914	-0.16
180.292	-0.42
180.67	-0.48
181.048	-0
181.427	-0
181.805	-0.34
182.183	-0.03
182.561	-0
182.939	-0
183.317	0.6
183.695	-0
184.073	0.07
184.451	1.16
184.829	0.08
185.206	-0.6
185.584	-0.3
185.962	-0
186.34	-0.07
186.718	-0
187.096	0.95
187.473	-0
187.851	-0
188.229	0.63
188.607	0.06
188.984	0.19
189.362	0.15
189.74	0.23
190.117	0.15
190.495	0.11
190.872	0.05
191.25	0.05
191.627	0.04
192.005	0.04
192.382	0.1
192.76	0.09
193.137	0.12
193.515	0.09
193.892	0.29
194.269	0.1
194.647	0.14
195.024	0.2
195.401	0.13
195.779	0.05
196.156	0.26
196.533	0.07
196.91	0.23
197.288	0.11
197.665	0.25
198.042	0.27
198.419	0.1
198.796	0.06
199.173	0.16
199.55	0.13
199.927	0.16
200.304	0.09
200.681	0.08
201.058	0.11
201.435	0.14
201.812	0.12
202.189	0.14
202.566	0.18
202.943	0.15
203.32	0.11
203.697	0.13
204.073	0.29
204.45	0.19
204.827	0.13
205.204	0.07
205.58	0.1
205.957	0.11
206.334	0.07
206.71	0.1
207.087	0.12
207.464	0.09
207.84	0.22
208.217	0.11
208.593	0.19
208.97	0.02
209.346	0.25
209.723	0.04
210.099	0.06
210.476	0.2
210.852	0.13
211.228	0.09
211.605	0.2
211.981	0.1
212.357	0.12
212.733	0.12
213.11	0.17
213.486	0.15
213.862	0.17
214.238	0.16
214.614	0.11
214.991	0.06
215.367	0.03
215.743	0.19
216.119	0.13
216.495	0.12
216.871	0.08
217.247	0.12
217.623	0.06
217.999	0.15
218.375	0.14
218.751	0.09
219.127	0.23
219.502	0.1
219.878	0.12
220.254	0.14
220.63	0.14
221.006	0.17
221.381	0.19
221.757	0.14
222.133	0.16
222.508	0.19
222.884	0.02
223.26	0.13
223.635	0.15
224.011	0.13
224.386	0.13
224.762	0.09
225.137	0.14
225.513	0.12
225.888	0.11
226.264	0.18
226.639	0.25
227.014	0.19
227.39	0.16
227.765	0.12
228.14	0.04
228.516	0.2
228.891	0.14
229.266	0.13
229.641	0.11
230.017	0.02
230.392	0.25
230.767	0.21
231.142	0.09
231.517	0.08
231.892	0.09
232.267	0.14
232.642	0.16
233.017	0.12
233.392	0.15
233.767	0.22
234.142	0.13
234.517	0.17
234.892	0.17
235.267	0.13
235.641	0.14
236.016	0.13
236.391	0.12
236.766	0.14
237.14	0.09
237.515	0.17
237.89	0.13
238.264	0.09
238.639	0.17
239.014	0.1
239.388	0.13
239.763	0.15
240.137	0.19
240.512	0.16
240.886	0.06
241.261	0.19
241.635	0.14
242.009	0.09
242.384	0.12
242.758	0.26
243.132	0.18
243.507	0.08
243.881	0.05
244.255	0.12
244.629	0.13
245.004	0.18
245.378	0.14
245.752	0.14
246.126	0.14
246.5	0.12
246.874	0.14
247.248	0.06
247.622	0.13
247.996	0.18
248.37	0.11
248.744	0.11
249.118	0.13
249.492	0.09
249.866	0.12
250.24	0.11
250.613	0.11
250.987	0.2
251.361	0.16
251.735	0.09
252.108	0.15
252.482	0.14
252.856	0.09
253.229	0.17
253.603	0.14
253.977	0.12
254.35	0.13
254.724	0.07
255.097	0.09
255.471	0.11
255.844	0.14
256.218	0.17
256.591	0.1
256.964	0.21
257.338	0.18
257.711	0.1
258.084	0.19
258.458	0.13
258.831	0.16
259.204	0.12
259.577	0.09
259.95	0.21
260.323	0.11
260.697	0.1
261.07	0.16
261.443	0.26
261.816	0.09
262.189	0.11
262.562	0.21
262.935	0.09
263.308	0.19
263.68	0.18
264.053	0.2
264.426	0.15
264.799	0.15
265.172	0.18
265.545	0.19
265.917	0.16
266.29	0.17
266.663	0.11
267.035	0.22
267.408	0.18
267.781	0.16
268.153	0.16
268.526	0.13
268.898	0.21
269.271	0.16
269.643	0.13
270.016	0.17
270.388	0.12
270.76	0.18
271.133	0.18
271.505	0.26
271.877	0.21
272.25	0.15
272.622	0.11
272.994	0.11
273.366	0.16
273.739	0.19
274.111	0.19
274.483	0.16
274.855	0.12
275.227	0.11
275.599	0.12
275.971	0.15
276.343	0.13
276.715	0.15
277.087	0.18
277.459	0.22
277.831	0.15
278.203	0.19
278.574	0.16
278.946	0.19
279.318	0.1
279.69	0.14
280.061	0.18
280.433	0.2
280.805	0.16
281.176	0.08
281.548	0.16
281.92	0.1
282.291	0.14
282.663	0.15
283.034	0.12
283.406	0.14
283.777	0.2
284.148	0.18
284.52	0.16
284.891	0.12
285.262	0.19
285.634	0.11
286.005	0.15
286.376	0.13
286.747	0.15
287.119	0.14
287.49	0.11
287.861	0.15
288.232	0.19
288.603	0.12
288.974	0.16
289.345	0.08
289.716	0.12
290.087	0.14
290.458	0.1
290.829	0.19
291.2	0.11
291.571	0.18
291.941	0.13
292.312	0.13
292.683	0.16
293.054	0.09
293.424	0.19
293.795	0.21
294.166	0.24
294.536	0.17
294.907	0.21
295.277	0.19
295.648	0.16
296.018	0.15
296.389	0.16
296.759	0.19
297.13	0.1
297.5	0.17
297.871	0.15
298.241	0.15
298.611	0.17
298.981	0.16
299.352	0.27
299.722	0.17
300.092	0.12
300.462	0.14
300.832	0.15
301.202	0.17
301.573	0.11
301.943	0.14
302.313	0.14
302.683	0.16
303.053	0.13
303.422	0.15
303.792	0.14
304.162	0.14
304.532	0.18
304.902	0.14
305.272	0.14
305.641	0.15
306.011	0.15
306.381	0.15
306.75	0.14
307.12	0.15
307.49	0.16
307.859	0.16
308.229	0.16
308.598	0.15
308.968	0.16
309.337	0.16
309.707	0.16
310.076	0.16
310.445	0.16
310.815	0.17
311.184	0.17
311.553	0.17
311.923	0.17
312.292	0.18
312.661	0.18
313.03	0.18
313.399	0.18
313.768	0.18
314.137	0.17
314.506	0.18
314.875	0.18
315.244	0.18
315.613	0.17
315.982	0.18
316.351	0.17
316.72	0.17
317.089	0.16
317.458	0.17
317.826	0.17
318.195	0.17
318.564	0.17
318.933	0.16
319.301	0.16
319.67	0.17
320.038	0.16
320.407	0.16
320.775	0.16
321.144	0.16
321.512	0.16
321.881	0.16
322.249	0.16
322.618	0.16
322.986	0.15
323.354	0.15
323.723	0.15
324.091	0.14
324.459	0.15
324.827	0.15
325.195	0.15
325.564	0.14
325.932	0.14
326.3	0.14
326.668	0.15
327.036	0.14
327.404	0.15
327.772	0.14
328.14	0.14
328.508	0.14
328.875	0.15
329.243	0.15
329.611	0.14
329.979	0.14
330.346	0.15
330.714	0.15
331.082	0.15
331.449	0.15
331.817	0.15
332.185	0.15
332.552	0.15
332.92	0.15
333.287	0.16
333.655	0.16
334.022	0.16
334.389	0.16
334.757	0.16
335.124	0.17
335.491	0.17
335.859	0.17
336.226	0.17
336.593	0.17
336.96	0.17
337.327	0.17
337.695	0.17
338.062	0.18
338.429	0.18
338.796	0.19
339.163	0.19
339.53	0.19
339.897	0.2
340.263	0.19
340.63	0.2
340.997	0.2
341.364	0.21
341.731	0.21
342.097	0.21
342.464	0.22
342.831	0.22
343.197	0.22
343.564	0.23
343.931	0.23
344.297	0.23
344.664	0.24
345.03	0.24
345.396	0.25
345.763	0.24
346.129	0.25
346.496	0.25
346.862	0.26
347.228	0.26
347.594	0.26
347.961	0.27
348.327	0.28
348.693	0.28
349.059	0.28
349.425	0.29
349.791	0.29
350.157	0.29
350.523	0.3
350.889	0.31
351.255	0.31
351.621	0.32
351.987	0.32
352.353	0.33
352.719	0.34
353.084	0.35
353.45	0.35
353.816	0.36
354.181	0.37
354.547	0.37
354.913	0.38
355.278	0.39
355.644	0.39
356.009	0.4
356.375	0.41
356.74	0.42
357.106	0.43
357.471	0.44
357.836	0.45
358.202	0.45
358.567	0.46
358.932	0.47
359.297	0.48
359.663	0.48
360.028	0.49
360.393	0.5
360.758	0.5
361.123	0.51
361.488	0.52
361.853	0.52
362.218	0.52
362.583	0.54
362.948	0.54
363.312	0.54
363.677	0.55
364.042	0.57
364.407	0.57
364.772	0.58
365.136	0.59
365.501	0.6
365.865	0.61
366.23	0.62
366.595	0.64
366.959	0.65
367.324	0.66
367.688	0.67
368.052	0.69
368.417	0.7
368.781	0.71
369.145	0.71
369.51	0.71
369.874	0.72
370.238	0.72
370.602	0.72
370.967	0.71
371.331	0.71
371.695	0.71
372.059	0.71
372.423	0.71
372.787	0.7
373.151	0.7
373.515	0.7
373.878	0.69
374.242	0.69
374.606	0.69
374.97	0.69
375.334	0.7
375.697	0.69
376.061	0.7
376.425	0.71
376.788	0.71
377.152	0.71
377.515	0.72
377.879	0.73
378.242	0.73
378.606	0.73
378.969	0.74
379.333	0.76
379.696	0.76
380.059	0.77
380.422	0.78
380.786	0.79
381.149	0.82
381.512	0.83
381.875	0.84
382.238	0.86
382.601	0.88
382.964	0.91
383.327	0.92
383.69	0.95
384.053	0.97
384.416	0.99
384.779	1.02
385.142	1.04
385.504	1.05
385.867	1.06
386.23	1.08
386.593	1.09
386.955	1.09
387.318	1.1
387.68	1.08
388.043	1.08
388.405	1.08
388.768	1.05
389.13	1.05
389.493	1.05
389.855	1.04
390.217	1.04
390.58	1.04
390.942	1.05
391.304	1.04
391.666	1.05
392.028	1.07
392.391	1.1
392.753	1.12
393.115	1.15
393.477	1.19
393.839	1.24
394.201	1.27
394.563	1.33
394.924	1.39
395.286	1.43
395.648	1.46
396.01	1.48
396.371	1.51
396.733	1.54
397.095	1.59
397.456	1.57
397.818	1.58
398.18	1.58
398.541	1.54
398.903	1.51
399.264	1.49
399.625	1.46
399.987	1.41
400.348	1.37
400.709	1.3
401.071	1.25
401.432	1.17
401.793	1.1
402.154	1.03
402.515	0.97
402.876	0.89
403.238	0.83
403.599	0.78
403.96	0.72
404.32	0.66
404.681	0.62
405.042	0.59
405.403	0.54
405.764	0.51
406.125	0.46
406.485	0.43
406.846	0.41
407.207	0.38
407.567	0.36
407.928	0.34
408.288	0.32
408.649	0.3
409.009	0.29
409.37	0.27
409.73	0.26
410.091	0.25
410.451	0.23
410.811	0.23
411.171	0.21
411.532	0.21
411.892	0.19
412.252	0.19
412.612	0.18
412.972	0.17
413.332	0.17
413.692	0.17
414.052	0.15
414.412	0.15
414.772	0.15
415.132	0.14
415.492	0.14
415.851	0.14
416.211	0.13
416.571	0.13
416.931	0.12
417.29	0.12
417.65	0.11
418.009	0.11
418.369	0.11
418.728	0.11
419.088	0.11
419.447	0.1
419.807	0.1
420.166	0.1
420.525	0.1
420.884	0.1
421.244	0.09
421.603	0.1
421.962	0.09
422.321	0.09
422.68	0.09
423.039	0.09
423.398	0.09
423.757	0.09
424.116	0.08
424.475	0.08
424.834	0.08
425.193	0.08
425.551	0.08
425.91	0.08
426.269	0.08
426.628	0.07
426.986	0.08
427.345	0.08
427.703	0.07
428.062	0.07
428.42	0.07
428.779	0.07
429.137	0.08
429.496	0.07
429.854	0.06
430.212	0.07
430.57	0.07
430.929	0.06
431.287	0.06
431.645	0.07
432.003	0.07
432.361	0.07
432.719	0.06
433.077	0.06
433.435	0.06
433.793	0.06
434.151	0.07
434.509	0.06
434.866	0.06
435.224	0.06
435.582	0.05
435.94	0.06
436.297	0.06
436.655	0.06
437.012	0.06
437.37	0.06
437.727	0.06
438.085	0.05
438.442	0.05
438.8	0.05
439.157	0.05
439.514	0.07
439.872	0.05
440.229	0.05
440.586	0.05
440.943	0.06
441.3	0.04
441.657	0.05
442.014	0.05
442.371	0.05
442.728	0.05
443.085	0.04
443.442	0.05
443.799	0.05
444.156	0.04
444.513	0.05
444.869	0.05
445.226	0.04
445.583	0.05
445.939	0.05
446.296	0.05
446.652	0.04
447.009	0.05
447.365	0.04
447.722	0.04
448.078	0.04
448.434	0.04
448.791	0.04
449.147	0.04
449.503	0.04
449.859	0.04
450.215	0.04
450.571	0.04
450.928	0.03
451.284	0.03
451.64	0.03
451.995	0.04
452.351	0.03
452.707	0.03
453.063	0.03
453.419	0.02
453.775	0.03
454.13	0.03
454.486	0.03
454.842	0.02
455.197	0.02
455.553	0.02
455.908	0.02
456.264	0.02
456.619	0.02
456.975	0.01
457.33	0.01
457.685	0
458.04	0.01
458.396	0.01
458.751	0.02
459.106	0
459.461	0.01
459.816	-0
460.171	-0
460.526	-0
460.881	-0.01
461.236	-0.01
461.591	-0
461.946	-0.01
462.301	-0.01
462.655	-0.02
463.01	-0.01
463.365	-0.02
463.719	-0.03
464.074	-0.03
464.428	-0.03
464.783	-0.03
465.137	-0.02
465.492	-0.03
465.846	-0.04
466.201	-0.03
466.555	-0.03
466.909	-0.03
467.263	-0.03
467.618	-0.03
467.972	-0.02
468.326	-0.03
468.68	-0.04
469.034	-0.04
469.388	-0.03
469.742	-0.03
470.096	-0.04
470.45	-0.04
470.804	-0.03
471.157	-0.03
471.511	-0.04
471.865	-0.03
472.218	-0.03
472.572	-0.02
472.926	-0.03
473.279	-0.02
473.633	-0.02
473.986	-0.02
474.34	-0.01
474.693	-0.01
475.046	-0.01
475.4	0
475.753	-0
476.106	0
476.459	0
476.812	0.01
477.165	0.01
477.519	0.02
477.872	0.02
478.224	0.02
478.577	0.02
478.93	0.03
479.283	0.03
479.636	0.03
479.989	0.03
480.341	0.03
480.694	0.04
481.047	0.04
481.399	0.04
481.752	0.04
482.104	0.05
482.457	0.05
482.809	0.05
483.162	0.05
483.514	0.05
483.866	0.06
484.219	0.06
484.571	0.06
484.923	0.06
485.275	0.06
485.627	0.06
485.979	0.06
486.331	0.07
486.683	0.07
487.035	0.07
487.387	0.07
487.739	0.07
488.091	0.07
488.443	0.07
488.794	0.08
489.146	0.07
489.498	0.08
489.849	0.08
490.201	0.08
490.552	0.08
490.904	0.08
491.255	0.09
491.607	0.09
491.958	0.09
492.309	0.09
492.661	0.09
493.012	0.09
493.363	0.09
493.714	0.09
494.065	0.09
494.416	0.1
494.767	0.1
495.118	0.1
495.469	0.1
495.82	0.1
496.171	0.1
496.522	0.1
496.872	0.1
497.223	0.11
497.574	0.11
497.924	0.11
498.275	0.11
498.626	0.12
498.976	0.11
499.327	0.11
499.677	0.12
500.027	0.12
500.378	0.12
500.728	0.12
501.078	0.12
501.428	0.12
501.779	0.13
502.129	0.13
502.479	0.12
502.829	0.13
503.179	0.13
503.529	0.13
503.879	0.13
504.229	0.13
504.578	0.14
504.928	0.14
505.278	0.14
505.628	0.14
505.977	0.14
506.327	0.14
506.676	0.14
507.026	0.14
507.375	0.15
507.725	0.15
508.074	0.15
508.424	0.15
508.773	0.15
509.122	0.16
509.471	0.16
509.82	0.16
510.17	0.16
510.519	0.16
510.868	0.17
511.217	0.16
511.566	0.17
511.915	0.17
512.263	0.17
512.612	0.17
512.961	0.17
513.31	0.17
513.659	0.18
514.007	0.17
514.356	0.17
514.704	0.18
515.053	0.18
515.401	0.18
515.75	0.18
516.098	0.18
516.447	0.18
516.795	0.19
517.143	0.19
517.491	0.19
517.839	0.19
518.188	0.19
518.536	0.2
518.884	0.19
519.232	0.2
519.58	0.2
519.928	0.2
520.275	0.2
520.623	0.2
520.971	0.21
521.319	0.21
521.666	0.21
522.014	0.21
522.362	0.21
522.709	0.21
523.057	0.22
523.404	0.21
523.752	0.22
524.099	0.22
524.446	0.22
524.794	0.22
525.141	0.22
525.488	0.23
525.835	0.22
526.182	0.23
526.529	0.23
526.876	0.23
527.223	0.23
527.57	0.24
527.917	0.24
528.264	0.24
528.611	0.24
528.958	0.24
529.304	0.24
529.651	0.25
529.998	0.25
530.344	0.25
530.691	0.25
531.037	0.25
531.384	0.26
531.73	0.26
532.076	0.26
532.423	0.26
532.769	0.26
533.115	0.26
533.461	0.27
533.807	0.27
534.154	0.27
534.5	0.27
534.846	0.27
535.192	0.28
535.537	0.28
535.883	0.28
536.229	0.28
536.575	0.28
536.921	0.28
537.266	0.29
537.612	0.29
537.957	0.28
538.303	0.29
538.649	0.29
538.994	0.29
539.339	0.3
539.685	0.3
540.03	0.3
540.375	0.31
540.721	0.31
541.066	0.31
541.411	0.31
541.756	0.31
542.101	0.31
542.446	0.31
542.791	0.32
543.136	0.32
543.481	0.32
543.825	0.33
544.17	0.33
544.515	0.33
544.86	0.33
545.204	0.34
545.549	0.34
545.893	0.34
546.238	0.34
546.582	0.34
546.927	0.35
547.271	0.35
547.615	0.35
547.96	0.35
548.304	0.35
548.648	0.36
548.992	0.36
549.336	0.36
549.68	0.36
550.024	0.37
550.368	0.36
550.712	0.37
551.056	0.37
551.4	0.37
551.743	0.37
552.087	0.37
552.431	0.37
552.774	0.38
553.118	0.38
553.462	0.38
553.805	0.38
554.148	0.38
554.492	0.39
554.835	0.39
555.178	0.39
555.522	0.39
555.865	0.39
556.208	0.39
556.551	0.4
556.894	0.4
557.237	0.39
557.58	0.4
557.923	0.4
558.266	0.4
558.609	0.4
558.952	0.4
559.294	0.4
559.637	0.4
559.98	0.4
560.322	0.41
560.665	0.41
561.007	0.41
561.35	0.4
561.692	0.41
562.034	0.41
562.377	0.41
562.719	0.41
563.061	0.41
563.403	0.41
563.745	0.41
564.088	0.41
564.43	0.42
564.772	0.42
565.113	0.42
565.455	0.42
565.797	0.42
566.139	0.42
566.481	0.42
566.822	0.42
567.164	0.42
567.506	0.42
567.847	0.43
568.189	0.43
568.53	0.43
568.872	0.43
569.213	0.42
569.554	0.42
569.895	0.43
570.237	0.43
570.578	0.43
570.919	0.42
571.26	0.43
571.601	0.42
571.942	0.43
572.283	0.43
572.624	0.42
572.965	0.43
573.306	0.43
573.646	0.42
573.987	0.42
574.328	0.42
574.668	0.43
575.009	0.42
575.349	0.42
575.69	0.42
576.03	0.42
576.37	0.42
576.711	0.41
577.051	0.41
577.391	0.42
577.731	0.43
578.072	0.42
578.412	0.42
578.752	0.42
579.092	0.42
579.431	0.41
579.771	0.4
580.111	0.38
580.451	0.38
580.791	0.4
581.13	0.42
581.47	0.43
581.81	0.43
582.149	0.42
582.489	0.43
582.828	0.42
583.167	0.4
583.507	0.36
583.846	0.33
584.185	0.35
584.525	0.38
584.864	0.41
585.203	0.43
585.542	0.44
585.881	0.45
586.22	0.45
586.559	0.44
586.898	0.43
587.236	0.42
587.575	0.41
587.914	0.42
588.252	0.43
588.591	0.45
588.93	0.45
589.268	0.45
589.607	0.45
589.945	0.45
590.283	0.45
590.622	0.45
590.96	0.46
591.298	0.47
591.636	0.47
591.974	0.48
592.313	0.48
592.651	0.48
592.989	0.48
593.326	0.48
593.664	0.49
594.002	0.49
594.34	0.49
594.678	0.48
595.015	0.48
595.353	0.46
595.691	0.47
596.028	0.49
596.366	0.49
596.703	0.5
597.04	0.5
597.378	0.5
597.715	0.51
598.052	0.51
598.389	0.51
598.726	0.52
599.064	0.52
599.401	0.52
599.738	0.51
600.074	0.52
600.411	0.52
600.748	0.51
601.085	0.51
601.422	0.5
601.758	0.51
602.095	0.51
602.432	0.51
602.768	0.51
603.105	0.52
603.441	0.52
603.777	0.52
604.114	0.52
604.45	0.53
604.786	0.53
605.122	0.53
605.459	0.52
605.795	0.52
606.131	0.52
606.467	0.52
606.803	0.52
607.139	0.52
607.474	0.52
607.81	0.52
608.146	0.51
608.482	0.52
608.817	0.51
609.153	0.51
609.488	0.51
609.824	0.5
610.159	0.51
610.495	0.51
610.83	0.51
611.165	0.51
611.5	0.51
611.836	0.5
612.171	0.51
612.506	0.51
612.841	0.51
613.176	0.5
613.511	0.51
613.845	0.51
614.18	0.5
614.515	0.5
614.85	0.5
615.184	0.49
615.519	0.5
615.854	0.5
616.188	0.49
616.523	0.49
616.857	0.49
617.191	0.49
617.526	0.48
617.86	0.48
618.194	0.48
618.528	0.48
618.862	0.48
619.196	0.48
619.53	0.48
619.864	0.48
620.198	0.48
620.532	0.48
620.866	0.48
621.2	0.48
621.533	0.47
621.867	0.48
622.201	0.47
622.534	0.47
622.868	0.47
623.201	0.47
623.534	0.47
623.868	0.46
624.201	0.46
624.534	0.46
624.868	0.46
625.201	0.46
625.534	0.45
625.867	0.45
626.2	0.45
626.533	0.44
626.865	0.45
627.198	0.44
627.531	0.44
627.864	0.44
628.196	0.44
628.529	0.44
628.862	0.43
629.194	0.43
629.527	0.43
629.859	0.43
630.191	0.42
630.524	0.42
630.856	0.42
631.188	0.41
631.52	0.41
631.852	0.41
632.184	0.41
632.516	0.4
632.848	0.4
633.18	0.4
633.512	0.4
633.844	0.39
634.175	0.39
634.507	0.39
634.839	0.39
635.17	0.38
635.502	0.37
635.833	0.37
636.165	0.37
636.496	0.37
636.827	0.36
637.159	0.36
637.49	0.36
637.821	0.35
638.152	0.35
638.483	0.35
638.814	0.35
639.145	0.34
639.476	0.34
639.807	0.34
640.137	0.34
640.468	0.33
640.799	0.33
641.129	0.33
641.46	0.33
641.791	0.32
642.121	0.32
642.451	0.32
642.782	0.32
643.112	0.32
643.442	0.31
643.773	0.31
644.103	0.31
644.433	0.31
644.763	0.31
645.093	0.3
645.423	0.3
645.753	0.3
646.082	0.3
646.412	0.3
646.742	0.3
647.072	0.29
647.401	0.29
647.731	0.29
648.06	0.29
648.39	0.29
648.719	0.29
649.048	0.29
649.378	0.28
649.707	0.28
650.036	0.28
650.365	0.28
650.694	0.28
651.023	0.27
651.352	0.27
651.681	0.28
652.01	0.28
652.339	0.27
652.668	0.27
652.996	0.27
653.325	0.27
653.654	0.27
653.982	0.28
654.311	0.27
654.639	0.28
654.967	0.28
655.296	0.27
655.624	0.27
655.952	0.28
656.28	0.28
656.609	0.27
656.937	0.27
657.265	0.27
657.593	0.22
657.92	0.08
658.248	0.03
658.576	0.02
658.904	0.08
659.231	0.16
659.559	0.24
659.887	0.27
660.214	0.27
660.542	0.28
660.869	0.27
661.196	0.27
661.524	0.27
661.851	0.28
662.178	0.27
662.505	0.28
662.832	0.27
663.159	0.27
663.486	0.27
663.813	0.27
664.14	0.27
664.467	0.27
664.794	0.27
665.12	0.27
665.447	0.26
665.774	0.27
666.1	0.26
666.427	0.26
666.753	0.26
667.079	0.26
667.406	0.26
667.732	0.25
668.058	0.26
668.384	0.26
668.71	0.26
669.036	0.26
669.362	0.26
669.688	0.26
670.014	0.25
670.34	0.25
670.666	0.25
670.991	0.25
671.317	0.25
671.643	0.25
671.968	0.25
672.294	0.25
672.619	0.25
672.945	0.25
673.27	0.25
673.595	0.25
673.92	0.24
674.246	0.24
674.571	0.23
674.896	0.23
675.221	0.23
675.546	0.23
675.87	0.23
676.195	0.23
676.52	0.23
676.845	0.23
677.169	0.23
677.494	0.22
677.819	0.22
678.143	0.22
678.468	0.21
678.792	0.21
679.116	0.22
679.44	0.21
679.765	0.21
680.089	0.2
680.413	0.2
680.737	0.2
681.061	0.2
681.385	0.2
681.709	0.19
682.033	0.19
682.356	0.19
682.68	0.19
683.004	0.19
683.327	0.19
683.651	0.18
683.974	0.18
684.298	0.18
684.621	0.18
684.944	0.18
685.268	0.17
685.591	0.17
685.914	0.17
686.237	0.16
686.56	0.16
686.883	0.16
687.206	0.16
687.529	0.15
687.852	0.15
688.175	0.15
688.497	0.15
688.82	0.15
689.142	0.15
689.465	0.15
689.787	0.15
690.11	0.15
690.432	0.15
690.755	0.15
691.077	0.15
691.399	0.14
691.721	0.14
692.043	0.14
692.365	0.13
692.687	0.13
693.009	0.13
693.331	0.13
693.653	0.12
693.974	0.12
694.296	0.12
694.618	0.12
694.939	0.12
695.261	0.11
695.582	0.11
695.904	0.11
696.225	0.12
696.546	0.12
696.868	0.12
697.189	0.11
697.51	0.11
697.831	0.11
698.152	0.11
698.473	0.11
698.794	0.1
699.114	0.1
699.435	0.08
699.756	0.08
700.077	0.09
700.397	0.09
700.718	0.09
701.038	0.09
701.359	0.09
701.679	0.09
701.999	0.09
702.32	0.09
702.64	0.09
702.96	0.09
703.28	0.09
703.6	0.09
703.92	0.09
704.24	0.09
704.56	0.08
704.879	0.08
705.199	0.08
705.519	0.08
705.838	0.08
706.158	0.08
706.478	0.08
706.797	0.08
707.116	0.08
707.436	0.08
707.755	0.08
708.074	0.08
708.393	0.08
708.712	0.07
709.031	0.06
709.35	0.06
709.669	0.05
709.988	0.06
710.307	0.06
710.626	0.06
710.944	0.07
711.263	0.07
711.582	0.07
711.9	0.08
712.219	0.07
712.537	0.07
712.855	0.07
713.174	0.07
713.492	0.07
713.81	0.08
714.128	0.07
714.446	0.08
714.764	0.07
715.082	0.06
715.4	0.07
715.718	0.07
716.035	0.07
716.353	0.07
716.671	0.07
716.988	0.07
717.306	0.06
717.623	0.07
717.941	0.08
718.258	0.08
718.575	0.08
718.893	0.08
719.21	0.08
719.527	0.08
719.844	0.08
720.161	0.08
720.478	0.08
720.795	0.08
721.112	0.08
721.428	0.08
721.745	0.08
722.062	0.08
722.378	0.09
722.695	0.09
723.011	0.09
723.328	0.09
723.644	0.09
723.96	0.09
724.276	0.09
724.593	0.09
724.909	0.09
725.225	0.09
725.541	0.09
725.857	0.09
726.173	0.09
726.488	0.09
726.804	0.09
727.12	0.09
727.435	0.09
727.751	0.09
728.067	0.09
728.382	0.09
728.697	0.09
729.013	0.09
729.328	0.09
729.643	0.09
729.958	0.09
730.273	0.09
730.588	0.08
730.903	0.09
731.218	0.09
731.533	0.09
731.848	0.09
732.163	0.09
732.477	0.09
732.792	0.09
733.107	0.08
733.421	0.08
733.736	0.08
734.05	0.09
734.364	0.08
734.678	0.09
734.993	0.08
735.307	0.09
735.621	0.08
735.935	0.08
736.249	0.08
736.563	0.09
736.877	0.09
737.19	0.09
737.504	0.09
737.818	0.09
738.131	0.09
738.445	0.09
738.758	0.09
739.072	0.09
739.385	0.09
739.698	0.09
740.012	0.09
740.325	0.09
740.638	0.08
740.951	0.08
741.264	0.08
741.577	0.08
741.89	0.08
742.203	0.08
742.515	0.08
742.828	0.08
743.141	0.08
743.453	0.08
743.766	0.08
744.078	0.08
744.391	0.08
744.703	0.08
745.015	0.08
745.327	0.08
745.639	0.08
745.952	0.08
746.264	0.07
746.575	0.07
746.887	0.07
747.199	0.07
747.511	0.07
747.823	0.07
748.134	0.07
748.446	0.07
748.757	0.07
749.069	0.07
749.38	0.07
749.692	0.07
750.003	0.07
750.314	0.07
750.625	0.07
750.936	0.07
751.248	0.06
751.559	0.06
751.869	0.06
752.18	0.06
752.491	0.06
752.802	0.06
753.112	0.06
753.423	0.06
753.734	0.06
754.044	0.06
754.355	0.06
754.665	0.06
754.975	0.05
755.285	0.05
755.596	0.05
755.906	0.05
756.216	0.05
756.526	0.05
756.836	0.05
757.146	0.05
757.455	0.05
757.765	0.05
758.075	0.05
758.385	0.05
758.694	0.05
759.004	0.04
759.313	0.04
759.622	0.04
759.932	0.04
760.241	0.04
760.55	0.04
760.859	0.04
761.168	0.04
761.477	0.04
761.786	0.03
762.095	0.03
762.404	0.03
762.713	0.03
763.021	0.03
763.33	0.03
763.639	0.03
763.947	0.03
764.256	0.03
764.564	0.03
764.872	0.03
765.181	0.03
765.489	0.03
765.797	0.03
766.105	0.03
766.413	0.03
766.721	0.03
767.029	0.03
767.337	0.02
767.644	0.02
767.952	0.02
768.26	0.02
768.567	0.03
768.875	0.03
769.182	0.03
769.49	0.03
769.797	0.03
770.104	0.03
770.411	0.03
770.718	0.03
771.026	0.03
771.333	0.03
771.639	0.03
771.946	0.03
772.253	0.03
772.56	0.03
772.867	0.02
773.173	0.02
773.48	0.02
773.786	0.02
774.093	0.02
774.399	0.02
774.705	0.02
775.012	0.02
775.318	0.02
775.624	0.01
775.93	0.01
776.236	0.01
776.542	0.02
776.848	0.02
777.154	0.02
777.459	0.02
777.765	0.02
778.071	0.02
778.376	0.02
778.682	0.02
778.987	0.02
779.292	0.02
779.598	0.02
779.903	0.02
780.208	0.02
780.513	0.02
780.818	0.02
781.123	0.02
781.428	0.02
781.733	0.02
782.038	0.02
782.343	0.02
782.647	0.02
782.952	0.03
783.256	0.03
783.561	0.03
783.865	0.03
784.17	0.03
784.474	0.02
784.778	0.02
785.082	0.02
785.386	0.02
785.69	0.02
785.994	0.02
786.298	0.03
786.602	0.03
786.906	0.03
787.209	0.03
787.513	0.03
787.817	0.03
788.12	0.03
788.424	0.03
788.727	0.03
789.03	0.02
789.333	0.02
789.637	0.02
789.94	0.02
790.243	0.02
790.546	0.02
790.849	0.03
791.152	0.03
791.454	0.03
791.757	0.03
792.06	0.02
792.362	0.02
792.665	0.02
792.967	0.02
793.27	0.03
793.572	0.02
793.874	0.02
794.177	0.02
794.479	0.02
794.781	0.02
795.083	0.02
795.385	0.02
795.687	0.01
795.989	0.02
796.29	0.02
796.592	0.02
796.894	0.03
797.195	0.03
797.497	0.03
797.798	0.03
798.1	0.03
798.401	0.03
798.702	0.03
799.003	0.03
799.304	0.03
799.605	0.03
799.906	0.03
800.207	0.03
800.508	0.03
800.809	0.03
801.11	0.02
801.41	0.02
801.711	0.02
802.011	0.02
802.312	0.02
802.612	0.02
802.913	0.02
803.213	0.02
803.513	0.01
803.813	0.02
804.113	0.02
804.413	0.02
804.713	0.02
805.013	0.02
805.313	0.03
805.613	0.03
805.912	0.03
806.212	0.03
806.511	0.02
806.811	0.02
807.11	0.02
807.41	0.02
807.709	0.02
808.008	0.02
808.307	0.03
808.606	0.02
808.905	0.02
809.204	0.02
809.503	0.03
809.802	0.02
810.101	0.02
810.399	0.02
810.698	0.03
810.997	0.03
811.295	0.03
811.593	0.03
811.892	0.03
812.19	0.02
812.488	0.02
812.786	0.03
813.084	0.03
813.383	0.03
813.68	0.03
813.978	0.03
814.276	0.03
814.574	0.03
814.872	0.03
815.169	0.03
815.467	0.03
815.764	0.03
816.062	0.03
816.359	0.03
816.656	0.03
816.954	0.03
817.251	0.03
817.548	0.04
817.845	0.04
818.142	0.04
818.439	0.04
818.735	0.04
819.032	0.04
819.329	0.04
819.626	0.04
819.922	0.03
820.219	0.03
820.515	0.03
820.811	0.03
821.108	0.03
821.404	0.03
821.7	0.04
821.996	0.03
822.292	0.03
822.588	0.03
822.884	0.04
823.18	0.03
823.475	0.03
823.771	0.04
824.067	0.04
824.362	0.03
824.658	0.04
824.953	0.04
825.249	0.04
825.544	0.04
825.839	0.04
826.134	0.04
826.429	0.04
826.724	0.04
827.019	0.04
827.314	0.04
827.609	0.03
827.904	0.03
828.198	0.03
828.493	0.03
828.787	0.03
829.082	0.03
829.376	0.03
829.671	0.03
829.965	0.03
830.259	0.04
830.553	0.04
830.847	0.04
831.141	0.05
831.435	0.04
831.729	0.04
832.023	0.05
832.317	0.05
832.61	0.05
832.904	0.04
833.197	0.04
833.491	0.04
833.784	0.05
834.077	0.04
834.371	0.05
834.664	0.04
834.957	0.04
835.25	0.04
835.543	0.05
835.836	0.05
836.129	0.05
836.421	0.05
836.714	0.05
837.007	0.05
837.299	0.04
837.592	0.05
837.884	0.05
838.177	0.05
838.469	0.04
838.761	0.05
839.053	0.04
839.345	0.05
839.637	0.05
839.929	0.05
840.221	0.06
840.513	0.05
840.805	0.05
841.096	0.05
841.388	0.05
841.68	0.05
841.971	0.04
842.262	0.05
842.554	0.05
842.845	0.05
843.136	0.06
843.427	0.05
843.718	0.05
844.009	0.05
844.3	0.04
844.591	0.04
844.882	0.04
845.173	0.04
845.463	0.04
845.754	0.04
846.044	0.04
846.335	0.05
846.625	0.05
846.915	0.05
847.206	0.05
847.496	0.06
847.786	0.05
848.076	0.05
848.366	0.06
848.656	0.05
848.945	0.05
849.235	0.05
849.525	0.05
849.814	0.04
850.104	0.04
850.393	0.04
850.683	0.04
850.972	0.05
851.261	0.04
851.551	0.05
851.84	0.04
852.129	0.06
852.418	0.05
852.707	0.05
852.995	0.04
853.284	0.05
853.573	0.05
853.862	0.04
854.15	0.05
854.439	0.06
854.727	0.05
855.015	0.05
855.304	0.05
855.592	0.04
855.88	0.04
856.168	0.04
856.456	0.05
856.744	0.05
857.032	0.04
857.32	0.04
857.607	0.06
857.895	0.04
858.183	0.05
858.47	0.05
858.757	0.04
859.045	0.05
859.332	0.05
859.619	0.04
859.907	0.04
860.194	0.03
860.481	0.05
860.768	0.05
861.054	0.05
861.341	0.06
861.628	0.04
861.915	0.04
862.201	0.05
862.488	0.03
862.774	0.04
863.061	0.03
863.347	0.04
863.633	0.04
863.919	0.05
864.205	0.05
864.491	0.04
864.777	0.03
865.063	0.03
865.349	0.04
865.635	0.06
865.92	0.05
866.206	0.03
866.492	0.02
866.777	0.05
867.062	0.03
867.348	0.07
867.633	0.04
867.918	0
868.203	0.03
868.488	0.04
868.773	0.01
869.058	0.04
869.343	0.01
869.628	0.03
869.912	0.02
870.197	0.02
870.482	0.05
870.766	0.02
871.05	0.03
871.335	0.04
871.619	0.05
871.903	-0.01
872.187	0.02
872.471	0.06
872.755	0.01
873.039	0.01
873.323	0.07
873.607	-0
873.89	0.01
874.174	-0.03
874.458	0
874.741	0.02
875.024	-0
875.308	0
875.591	0.04
875.874	0.01
876.157	0.04
876.44	-0.04
876.723	-0.03
877.006	0.03
877.289	-0.04
877.572	0.02
877.854	0.02
878.137	0.01
878.42	0.02
878.702	-0.02
878.984	-0.01
879.267	-0.04
879.549	0
879.831	-0.01
880.113	0.05
880.395	0.05
880.677	0.01
880.959	0.07
