Data from Rubpy_EV_1800_EDTA_Buffered_Absorbance_15-44-58-732.txt Node
Date: Tue Jun 30 15:44:58 BST 2026
User: fpm-admin
Spectrometer: OFX00224
Trigger mode: 0
Integration Time (sec): 7.000000E-2
Scans to average: 3
Nonlinearity correction enabled: false
Boxcar width: 0
Storing dark spectrum: false
XAxis mode: Wavelengths
Number of Pixels in Spectrum: 2136
>>>>>Begin Spectral Data<<<<<
154.91	-0.21
155.289	-0
155.669	-0.05
156.048	-0
156.428	-0.54
156.807	-0
157.186	-0
157.566	0.21
157.945	0.71
158.325	-0.3
158.704	-0
159.083	-0.38
159.462	0.05
159.842	-0.51
160.221	0.29
160.6	-0.44
160.979	-0.56
161.359	0.14
161.738	-0.44
162.117	-0
162.496	-0.21
162.875	-0
163.254	-0.26
163.633	-0
164.012	-0.26
164.391	0.23
164.77	0.68
165.149	-0.04
165.528	-0.03
165.907	-0.88
166.286	0.11
166.665	0.41
167.044	-0.94
167.423	0.3
167.802	-0
168.181	-0
168.559	-0
168.938	-0.76
169.317	0.48
169.696	0.08
170.074	0.22
170.453	-0
170.832	-0.18
171.21	-0
171.589	-0
171.968	-0
172.346	-0.45
172.725	0.1
173.103	-0.23
173.482	0.18
173.861	0.32
174.239	-0
174.617	0.76
174.996	-0.21
175.374	-0.24
175.753	-0
176.131	1.17
176.51	0.54
176.888	-0
177.266	-0
177.645	-0.05
178.023	0.69
178.401	-0.31
178.779	-0.12
179.158	0.45
179.536	-0.05
179.914	-0.24
180.292	-0.26
180.67	0.07
181.048	-0.85
181.427	-0.05
181.805	-0.07
182.183	-0.1
182.561	-0
182.939	-0
183.317	-0.65
183.695	-0.03
184.073	0.11
184.451	0.86
184.829	-0.03
185.206	0.22
185.584	0.05
185.962	-0
186.34	-0.34
186.718	-0
187.096	0.24
187.473	-0
187.851	-0.53
188.229	0.3
188.607	0.21
188.984	0.23
189.362	0.33
189.74	0.17
190.117	0.29
190.495	0.31
190.872	0.12
191.25	0.19
191.627	0.1
192.005	0.19
192.382	0.12
192.76	0.19
193.137	0.26
193.515	0.17
193.892	0.32
194.269	0.16
194.647	0.22
195.024	0.19
195.401	0.25
195.779	0.14
196.156	0.15
196.533	0.21
196.91	0.28
197.288	0.25
197.665	0.24
198.042	0.31
198.419	0.24
198.796	0.2
199.173	0.26
199.55	0.28
199.927	0.18
200.304	0.25
200.681	0.24
201.058	0.16
201.435	0.2
201.812	0.29
202.189	0.19
202.566	0.23
202.943	0.26
203.32	0.28
203.697	0.36
204.073	0.44
204.45	0.22
204.827	0.24
205.204	0.23
205.58	0.17
205.957	0.14
206.334	0.23
206.71	0.16
207.087	0.17
207.464	0.17
207.84	0.2
208.217	0.24
208.593	0.24
208.97	0.15
209.346	0.28
209.723	0.16
210.099	0.16
210.476	0.35
210.852	0.16
211.228	0.17
211.605	0.28
211.981	0.11
212.357	0.23
212.733	0.25
213.11	0.28
213.486	0.32
213.862	0.23
214.238	0.18
214.614	0.24
214.991	0.24
215.367	0.18
215.743	0.18
216.119	0.24
216.495	0.25
216.871	0.25
217.247	0.31
217.623	0.2
217.999	0.22
218.375	0.23
218.751	0.15
219.127	0.29
219.502	0.14
219.878	0.12
220.254	0.3
220.63	0.21
221.006	0.22
221.381	0.32
221.757	0.19
222.133	0.31
222.508	0.3
222.884	0.19
223.26	0.17
223.635	0.22
224.011	0.21
224.386	0.21
224.762	0.16
225.137	0.23
225.513	0.26
225.888	0.22
226.264	0.21
226.639	0.29
227.014	0.23
227.39	0.25
227.765	0.27
228.14	0.22
228.516	0.19
228.891	0.28
229.266	0.23
229.641	0.39
230.017	0.34
230.392	0.34
230.767	0.23
231.142	0.21
231.517	0.19
231.892	0.3
232.267	0.29
232.642	0.18
233.017	0.26
233.392	0.34
233.767	0.38
234.142	0.11
234.517	0.19
234.892	0.35
235.267	0.24
235.641	0.25
236.016	0.25
236.391	0.16
236.766	0.19
237.14	0.16
237.515	0.17
237.89	0.28
238.264	0.2
238.639	0.23
239.014	0.3
239.388	0.19
239.763	0.28
240.137	0.29
240.512	0.32
240.886	0.2
241.261	0.2
241.635	0.27
242.009	0.26
242.384	0.26
242.758	0.37
243.132	0.26
243.507	0.25
243.881	0.15
244.255	0.22
244.629	0.22
245.004	0.25
245.378	0.16
245.752	0.25
246.126	0.24
246.5	0.25
246.874	0.16
247.248	0.16
247.622	0.13
247.996	0.26
248.37	0.28
248.744	0.21
249.118	0.33
249.492	0.1
249.866	0.21
250.24	0.29
250.613	0.25
250.987	0.23
251.361	0.25
251.735	0.27
252.108	0.21
252.482	0.22
252.856	0.17
253.229	0.21
253.603	0.27
253.977	0.22
254.35	0.26
254.724	0.14
255.097	0.27
255.471	0.24
255.844	0.23
256.218	0.27
256.591	0.23
256.964	0.23
257.338	0.13
257.711	0.24
258.084	0.21
258.458	0.24
258.831	0.23
259.204	0.24
259.577	0.18
259.95	0.26
260.323	0.23
260.697	0.29
261.07	0.33
261.443	0.3
261.816	0.32
262.189	0.2
262.562	0.33
262.935	0.22
263.308	0.22
263.68	0.24
264.053	0.26
264.426	0.29
264.799	0.2
265.172	0.22
265.545	0.26
265.917	0.26
266.29	0.3
266.663	0.26
267.035	0.27
267.408	0.26
267.781	0.27
268.153	0.26
268.526	0.27
268.898	0.25
269.271	0.28
269.643	0.25
270.016	0.22
270.388	0.23
270.76	0.25
271.133	0.31
271.505	0.3
271.877	0.28
272.25	0.23
272.622	0.22
272.994	0.26
273.366	0.25
273.739	0.3
274.111	0.24
274.483	0.24
274.855	0.23
275.227	0.21
275.599	0.25
275.971	0.28
276.343	0.25
276.715	0.35
277.087	0.24
277.459	0.26
277.831	0.29
278.203	0.31
278.574	0.27
278.946	0.31
279.318	0.25
279.69	0.2
280.061	0.24
280.433	0.26
280.805	0.29
281.176	0.26
281.548	0.31
281.92	0.25
282.291	0.25
282.663	0.25
283.034	0.3
283.406	0.3
283.777	0.31
284.148	0.29
284.52	0.25
284.891	0.19
285.262	0.25
285.634	0.25
286.005	0.27
286.376	0.26
286.747	0.24
287.119	0.23
287.49	0.25
287.861	0.29
288.232	0.22
288.603	0.19
288.974	0.33
289.345	0.16
289.716	0.2
290.087	0.26
290.458	0.22
290.829	0.31
291.2	0.23
291.571	0.3
291.941	0.32
292.312	0.21
292.683	0.29
293.054	0.27
293.424	0.28
293.795	0.27
294.166	0.3
294.536	0.26
294.907	0.29
295.277	0.29
295.648	0.25
296.018	0.25
296.389	0.26
296.759	0.25
297.13	0.21
297.5	0.31
297.871	0.28
298.241	0.26
298.611	0.28
298.981	0.23
299.352	0.29
299.722	0.27
300.092	0.26
300.462	0.27
300.832	0.29
301.202	0.23
301.573	0.2
301.943	0.22
302.313	0.19
302.683	0.25
303.053	0.25
303.422	0.24
303.792	0.21
304.162	0.23
304.532	0.27
304.902	0.22
305.272	0.23
305.641	0.23
306.011	0.24
306.381	0.25
306.75	0.25
307.12	0.25
307.49	0.27
307.859	0.27
308.229	0.26
308.598	0.26
308.968	0.26
309.337	0.27
309.707	0.26
310.076	0.27
310.445	0.28
310.815	0.29
311.184	0.28
311.553	0.28
311.923	0.29
312.292	0.29
312.661	0.29
313.03	0.3
313.399	0.29
313.768	0.3
314.137	0.3
314.506	0.3
314.875	0.3
315.244	0.29
315.613	0.29
315.982	0.29
316.351	0.29
316.72	0.29
317.089	0.29
317.458	0.28
317.826	0.28
318.195	0.29
318.564	0.28
318.933	0.28
319.301	0.28
319.67	0.28
320.038	0.27
320.407	0.27
320.775	0.27
321.144	0.26
321.512	0.26
321.881	0.26
322.249	0.26
322.618	0.26
322.986	0.26
323.354	0.25
323.723	0.26
324.091	0.24
324.459	0.25
324.827	0.25
325.195	0.25
325.564	0.24
325.932	0.24
326.3	0.24
326.668	0.25
327.036	0.24
327.404	0.24
327.772	0.24
328.14	0.24
328.508	0.24
328.875	0.25
329.243	0.25
329.611	0.24
329.979	0.25
330.346	0.25
330.714	0.25
331.082	0.26
331.449	0.26
331.817	0.26
332.185	0.26
332.552	0.25
332.92	0.26
333.287	0.27
333.655	0.27
334.022	0.27
334.389	0.27
334.757	0.28
335.124	0.28
335.491	0.28
335.859	0.29
336.226	0.29
336.593	0.29
336.96	0.3
337.327	0.3
337.695	0.3
338.062	0.31
338.429	0.31
338.796	0.32
339.163	0.32
339.53	0.32
339.897	0.33
340.263	0.33
340.63	0.34
340.997	0.35
341.364	0.35
341.731	0.36
342.097	0.37
342.464	0.37
342.831	0.38
343.197	0.38
343.564	0.39
343.931	0.4
344.297	0.4
344.664	0.41
345.03	0.42
345.396	0.42
345.763	0.42
346.129	0.43
346.496	0.43
346.862	0.44
347.228	0.45
347.594	0.45
347.961	0.46
348.327	0.47
348.693	0.48
349.059	0.48
349.425	0.49
349.791	0.5
350.157	0.51
350.523	0.52
350.889	0.53
351.255	0.53
351.621	0.54
351.987	0.56
352.353	0.56
352.719	0.58
353.084	0.59
353.45	0.59
353.816	0.61
354.181	0.62
354.547	0.63
354.913	0.64
355.278	0.66
355.644	0.67
356.009	0.68
356.375	0.69
356.74	0.7
357.106	0.72
357.471	0.73
357.836	0.75
358.202	0.76
358.567	0.78
358.932	0.79
359.297	0.81
359.663	0.82
360.028	0.83
360.393	0.84
360.758	0.85
361.123	0.85
361.488	0.88
361.853	0.88
362.218	0.89
362.583	0.89
362.948	0.91
363.312	0.91
363.677	0.93
364.042	0.94
364.407	0.96
364.772	0.98
365.136	0.98
365.501	1
365.865	1.03
366.23	1.04
366.595	1.07
366.959	1.07
367.324	1.1
367.688	1.11
368.052	1.12
368.417	1.15
368.781	1.15
369.145	1.17
369.51	1.18
369.874	1.18
370.238	1.2
370.602	1.19
370.967	1.18
371.331	1.16
371.695	1.17
372.059	1.18
372.423	1.16
372.787	1.14
373.151	1.14
373.515	1.15
373.878	1.14
374.242	1.14
374.606	1.14
374.97	1.15
375.334	1.15
375.697	1.13
376.061	1.14
376.425	1.16
376.788	1.15
377.152	1.17
377.515	1.17
377.879	1.2
378.242	1.2
378.606	1.21
378.969	1.21
379.333	1.24
379.696	1.25
380.059	1.26
380.422	1.26
380.786	1.28
381.149	1.32
381.512	1.34
381.875	1.36
382.238	1.4
382.601	1.42
382.964	1.45
383.327	1.47
383.69	1.52
384.053	1.55
384.416	1.57
384.779	1.6
385.142	1.62
385.504	1.65
385.867	1.66
386.23	1.66
386.593	1.67
386.955	1.71
387.318	1.72
387.68	1.65
388.043	1.7
388.405	1.68
388.768	1.65
389.13	1.64
389.493	1.64
389.855	1.61
390.217	1.62
390.58	1.64
390.942	1.64
391.304	1.64
391.666	1.64
392.028	1.66
392.391	1.71
392.753	1.74
393.115	1.73
393.477	1.83
393.839	1.83
394.201	1.88
394.563	1.97
394.924	1.97
395.286	2
395.648	2.03
396.01	2.06
396.371	2.05
396.733	2.04
397.095	2.06
397.456	2.07
397.818	2.05
398.18	2.07
398.541	1.98
398.903	2.04
399.264	2.01
399.625	2
399.987	1.95
400.348	1.92
400.709	1.9
401.071	1.82
401.432	1.74
401.793	1.65
402.154	1.6
402.515	1.5
402.876	1.42
403.238	1.32
403.599	1.25
403.96	1.16
404.32	1.08
404.681	1.01
405.042	0.93
405.403	0.87
405.764	0.81
406.125	0.75
406.485	0.71
406.846	0.67
407.207	0.63
407.567	0.58
407.928	0.55
408.288	0.53
408.649	0.49
409.009	0.47
409.37	0.45
409.73	0.42
410.091	0.4
410.451	0.39
410.811	0.37
411.171	0.35
411.532	0.34
411.892	0.32
412.252	0.31
412.612	0.29
412.972	0.28
413.332	0.28
413.692	0.26
414.052	0.25
414.412	0.25
414.772	0.24
415.132	0.22
415.492	0.23
415.851	0.23
416.211	0.21
416.571	0.21
416.931	0.2
417.29	0.2
417.65	0.19
418.009	0.19
418.369	0.18
418.728	0.18
419.088	0.17
419.447	0.17
419.807	0.17
420.166	0.16
420.525	0.16
420.884	0.15
421.244	0.16
421.603	0.15
421.962	0.16
422.321	0.15
422.68	0.15
423.039	0.14
423.398	0.15
423.757	0.14
424.116	0.14
424.475	0.13
424.834	0.14
425.193	0.14
425.551	0.14
425.91	0.13
426.269	0.12
426.628	0.13
426.986	0.13
427.345	0.13
427.703	0.12
428.062	0.12
428.42	0.13
428.779	0.12
429.137	0.12
429.496	0.11
429.854	0.12
430.212	0.12
430.57	0.11
430.929	0.1
431.287	0.11
431.645	0.11
432.003	0.11
432.361	0.11
432.719	0.1
433.077	0.11
433.435	0.1
433.793	0.11
434.151	0.11
434.509	0.1
434.866	0.1
435.224	0.1
435.582	0.09
435.94	0.1
436.297	0.1
436.655	0.1
437.012	0.09
437.37	0.1
437.727	0.1
438.085	0.09
438.442	0.09
438.8	0.09
439.157	0.09
439.514	0.1
439.872	0.09
440.229	0.09
440.586	0.08
440.943	0.09
441.3	0.08
441.657	0.08
442.014	0.09
442.371	0.09
442.728	0.09
443.085	0.08
443.442	0.08
443.799	0.08
444.156	0.08
444.513	0.08
444.869	0.08
445.226	0.07
445.583	0.08
445.939	0.07
446.296	0.08
446.652	0.07
447.009	0.07
447.365	0.07
447.722	0.07
448.078	0.07
448.434	0.07
448.791	0.07
449.147	0.07
449.503	0.07
449.859	0.07
450.215	0.06
450.571	0.07
450.928	0.07
451.284	0.06
451.64	0.06
451.995	0.07
452.351	0.06
452.707	0.06
453.063	0.06
453.419	0.05
453.775	0.06
454.13	0.06
454.486	0.06
454.842	0.05
455.197	0.05
455.553	0.05
455.908	0.05
456.264	0.04
456.619	0.04
456.975	0.04
457.33	0.04
457.685	0.04
458.04	0.04
458.396	0.03
458.751	0.05
459.106	0.03
459.461	0.04
459.816	0.03
460.171	0.03
460.526	0.03
460.881	0.02
461.236	0.03
461.591	0.02
461.946	0.01
462.301	0.01
462.655	0.02
463.01	0.01
463.365	0.01
463.719	0
464.074	0.01
464.428	-0
464.783	-0
465.137	0
465.492	-0
465.846	-0.01
466.201	-0.01
466.555	-0.01
466.909	-0
467.263	-0
467.618	0
467.972	0
468.326	0
468.68	-0.01
469.034	-0.01
469.388	-0
469.742	-0
470.096	-0
470.45	-0
470.804	-0
471.157	-0.01
471.511	-0
471.865	0.01
472.218	0
472.572	0.01
472.926	0.01
473.279	0.01
473.633	0.01
473.986	0.02
474.34	0.02
474.693	0.02
475.046	0.03
475.4	0.04
475.753	0.04
476.106	0.04
476.459	0.04
476.812	0.05
477.165	0.05
477.519	0.06
477.872	0.06
478.224	0.06
478.577	0.07
478.93	0.07
479.283	0.07
479.636	0.07
479.989	0.07
480.341	0.08
480.694	0.09
481.047	0.08
481.399	0.09
481.752	0.1
482.104	0.1
482.457	0.1
482.809	0.1
483.162	0.1
483.514	0.11
483.866	0.11
484.219	0.11
484.571	0.11
484.923	0.11
485.275	0.12
485.627	0.12
485.979	0.12
486.331	0.13
486.683	0.12
487.035	0.13
487.387	0.13
487.739	0.13
488.091	0.13
488.443	0.14
488.794	0.14
489.146	0.14
489.498	0.14
489.849	0.14
490.201	0.14
490.552	0.15
490.904	0.15
491.255	0.16
491.607	0.15
491.958	0.15
492.309	0.16
492.661	0.16
493.012	0.17
493.363	0.16
493.714	0.16
494.065	0.17
494.416	0.16
494.767	0.17
495.118	0.17
495.469	0.18
495.82	0.18
496.171	0.18
496.522	0.18
496.872	0.18
497.223	0.19
497.574	0.19
497.924	0.19
498.275	0.19
498.626	0.2
498.976	0.2
499.327	0.2
499.677	0.2
500.027	0.2
500.378	0.21
500.728	0.21
501.078	0.21
501.428	0.21
501.779	0.21
502.129	0.22
502.479	0.22
502.829	0.22
503.179	0.22
503.529	0.23
503.879	0.23
504.229	0.24
504.578	0.23
504.928	0.23
505.278	0.24
505.628	0.24
505.977	0.24
506.327	0.24
506.676	0.25
507.026	0.25
507.375	0.26
507.725	0.25
508.074	0.26
508.424	0.26
508.773	0.26
509.122	0.27
509.471	0.26
509.82	0.27
510.17	0.27
510.519	0.28
510.868	0.28
511.217	0.28
511.566	0.28
511.915	0.28
512.263	0.29
512.612	0.29
512.961	0.29
513.31	0.3
513.659	0.3
514.007	0.3
514.356	0.3
514.704	0.3
515.053	0.3
515.401	0.31
515.75	0.31
516.098	0.32
516.447	0.32
516.795	0.32
517.143	0.32
517.491	0.33
517.839	0.32
518.188	0.33
518.536	0.33
518.884	0.33
519.232	0.34
519.58	0.33
519.928	0.34
520.275	0.34
520.623	0.35
520.971	0.35
521.319	0.35
521.666	0.35
522.014	0.36
522.362	0.36
522.709	0.36
523.057	0.36
523.404	0.37
523.752	0.36
524.099	0.37
524.446	0.37
524.794	0.38
525.141	0.38
525.488	0.38
525.835	0.38
526.182	0.39
526.529	0.39
526.876	0.39
527.223	0.39
527.57	0.4
527.917	0.4
528.264	0.4
528.611	0.4
528.958	0.41
529.304	0.41
529.651	0.41
529.998	0.42
530.344	0.42
530.691	0.42
531.037	0.42
531.384	0.43
531.73	0.43
532.076	0.43
532.423	0.43
532.769	0.44
533.115	0.44
533.461	0.44
533.807	0.45
534.154	0.45
534.5	0.46
534.846	0.46
535.192	0.46
535.537	0.46
535.883	0.47
536.229	0.47
536.575	0.47
536.921	0.48
537.266	0.48
537.612	0.48
537.957	0.48
538.303	0.48
538.649	0.49
538.994	0.49
539.339	0.5
539.685	0.5
540.03	0.51
540.375	0.51
540.721	0.51
541.066	0.51
541.411	0.52
541.756	0.52
542.101	0.52
542.446	0.53
542.791	0.53
543.136	0.54
543.481	0.54
543.825	0.54
544.17	0.55
544.515	0.55
544.86	0.55
545.204	0.56
545.549	0.56
545.893	0.56
546.238	0.57
546.582	0.57
546.927	0.58
547.271	0.58
547.615	0.59
547.96	0.59
548.304	0.59
548.648	0.59
548.992	0.59
549.336	0.6
549.68	0.59
550.024	0.61
550.368	0.61
550.712	0.61
551.056	0.61
551.4	0.62
551.743	0.62
552.087	0.62
552.431	0.62
552.774	0.62
553.118	0.63
553.462	0.63
553.805	0.63
554.148	0.63
554.492	0.64
554.835	0.64
555.178	0.64
555.522	0.65
555.865	0.64
556.208	0.65
556.551	0.65
556.894	0.65
557.237	0.65
557.58	0.66
557.923	0.66
558.266	0.66
558.609	0.66
558.952	0.66
559.294	0.67
559.637	0.67
559.98	0.67
560.322	0.67
560.665	0.67
561.007	0.67
561.35	0.67
561.692	0.67
562.034	0.68
562.377	0.68
562.719	0.68
563.061	0.68
563.403	0.68
563.745	0.68
564.088	0.68
564.43	0.69
564.772	0.69
565.113	0.69
565.455	0.69
565.797	0.7
566.139	0.69
566.481	0.7
566.822	0.7
567.164	0.7
567.506	0.7
567.847	0.71
568.189	0.7
568.53	0.71
568.872	0.7
569.213	0.7
569.554	0.71
569.895	0.71
570.237	0.71
570.578	0.7
570.919	0.7
571.26	0.71
571.601	0.71
571.942	0.71
572.283	0.71
572.624	0.71
572.965	0.7
573.306	0.71
573.646	0.71
573.987	0.71
574.328	0.71
574.668	0.71
575.009	0.71
575.349	0.71
575.69	0.71
576.03	0.71
576.37	0.7
576.711	0.7
577.051	0.71
577.391	0.7
577.731	0.71
578.072	0.71
578.412	0.71
578.752	0.71
579.092	0.71
579.431	0.7
579.771	0.68
580.111	0.66
580.451	0.66
580.791	0.69
581.13	0.71
581.47	0.72
581.81	0.72
582.149	0.72
582.489	0.72
582.828	0.72
583.167	0.69
583.507	0.65
583.846	0.63
584.185	0.64
584.525	0.67
584.864	0.7
585.203	0.73
585.542	0.74
585.881	0.74
586.22	0.74
586.559	0.74
586.898	0.73
587.236	0.72
587.575	0.71
587.914	0.72
588.252	0.74
588.591	0.75
588.93	0.76
589.268	0.75
589.607	0.76
589.945	0.76
590.283	0.76
590.622	0.76
590.96	0.77
591.298	0.78
591.636	0.78
591.974	0.79
592.313	0.79
592.651	0.8
592.989	0.8
593.326	0.8
593.664	0.81
594.002	0.81
594.34	0.81
594.678	0.81
595.015	0.81
595.353	0.79
595.691	0.8
596.028	0.82
596.366	0.82
596.703	0.83
597.04	0.83
597.378	0.83
597.715	0.84
598.052	0.84
598.389	0.85
598.726	0.85
599.064	0.86
599.401	0.85
599.738	0.86
600.074	0.86
600.411	0.86
600.748	0.85
601.085	0.85
601.422	0.85
601.758	0.85
602.095	0.85
602.432	0.85
602.768	0.85
603.105	0.86
603.441	0.86
603.777	0.86
604.114	0.86
604.45	0.87
604.786	0.87
605.122	0.87
605.459	0.86
605.795	0.86
606.131	0.86
606.467	0.86
606.803	0.86
607.139	0.86
607.474	0.86
607.81	0.85
608.146	0.86
608.482	0.85
608.817	0.85
609.153	0.85
609.488	0.84
609.824	0.84
610.159	0.85
610.495	0.84
610.83	0.85
611.165	0.84
611.5	0.84
611.836	0.84
612.171	0.83
612.506	0.84
612.841	0.84
613.176	0.83
613.511	0.84
613.845	0.83
614.18	0.83
614.515	0.83
614.85	0.82
615.184	0.82
615.519	0.82
615.854	0.82
616.188	0.82
616.523	0.81
616.857	0.81
617.191	0.81
617.526	0.8
617.86	0.8
618.194	0.79
618.528	0.8
618.862	0.8
619.196	0.79
619.53	0.79
619.864	0.78
620.198	0.79
620.532	0.79
620.866	0.78
621.2	0.78
621.533	0.77
621.867	0.78
622.201	0.77
622.534	0.77
622.868	0.77
623.201	0.77
623.534	0.76
623.868	0.76
624.201	0.75
624.534	0.75
624.868	0.75
625.201	0.75
625.534	0.75
625.867	0.74
626.2	0.74
626.533	0.73
626.865	0.74
627.198	0.72
627.531	0.72
627.864	0.72
628.196	0.72
628.529	0.71
628.862	0.71
629.194	0.7
629.527	0.7
629.859	0.7
630.191	0.69
630.524	0.69
630.856	0.69
631.188	0.68
631.52	0.68
631.852	0.67
632.184	0.67
632.516	0.67
632.848	0.66
633.18	0.66
633.512	0.66
633.844	0.65
634.175	0.64
634.507	0.64
634.839	0.63
635.17	0.63
635.502	0.63
635.833	0.61
636.165	0.61
636.496	0.61
636.827	0.6
637.159	0.6
637.49	0.6
637.821	0.59
638.152	0.59
638.483	0.58
638.814	0.58
639.145	0.57
639.476	0.57
639.807	0.57
640.137	0.56
640.468	0.56
640.799	0.54
641.129	0.54
641.46	0.54
641.791	0.54
642.121	0.53
642.451	0.53
642.782	0.53
643.112	0.52
643.442	0.52
643.773	0.51
644.103	0.51
644.433	0.51
644.763	0.51
645.093	0.51
645.423	0.5
645.753	0.5
646.082	0.49
646.412	0.49
646.742	0.49
647.072	0.49
647.401	0.49
647.731	0.48
648.06	0.48
648.39	0.48
648.719	0.48
649.048	0.48
649.378	0.47
649.707	0.47
650.036	0.47
650.365	0.47
650.694	0.46
651.023	0.46
651.352	0.46
651.681	0.46
652.01	0.47
652.339	0.46
652.668	0.46
652.996	0.46
653.325	0.46
653.654	0.46
653.982	0.46
654.311	0.46
654.639	0.46
654.967	0.46
655.296	0.46
655.624	0.46
655.952	0.45
656.28	0.46
656.609	0.45
656.937	0.45
657.265	0.45
657.593	0.39
657.92	0.25
658.248	0.19
658.576	0.17
658.904	0.25
659.231	0.34
659.559	0.42
659.887	0.45
660.214	0.45
660.542	0.45
660.869	0.45
661.196	0.45
661.524	0.45
661.851	0.45
662.178	0.45
662.505	0.45
662.832	0.45
663.159	0.45
663.486	0.45
663.813	0.45
664.14	0.44
664.467	0.44
664.794	0.44
665.12	0.44
665.447	0.44
665.774	0.44
666.1	0.43
666.427	0.43
666.753	0.43
667.079	0.43
667.406	0.43
667.732	0.42
668.058	0.43
668.384	0.42
668.71	0.42
669.036	0.42
669.362	0.42
669.688	0.42
670.014	0.42
670.34	0.42
670.666	0.42
670.991	0.41
671.317	0.42
671.643	0.41
671.968	0.41
672.294	0.41
672.619	0.41
672.945	0.41
673.27	0.4
673.595	0.4
673.92	0.39
674.246	0.39
674.571	0.39
674.896	0.38
675.221	0.38
675.546	0.39
675.87	0.38
676.195	0.38
676.52	0.38
676.845	0.38
677.169	0.37
677.494	0.37
677.819	0.36
678.143	0.36
678.468	0.35
678.792	0.35
679.116	0.35
679.44	0.35
679.765	0.35
680.089	0.35
680.413	0.34
680.737	0.34
681.061	0.33
681.385	0.33
681.709	0.32
682.033	0.32
682.356	0.32
682.68	0.32
683.004	0.32
683.327	0.31
683.651	0.31
683.974	0.3
684.298	0.31
684.621	0.3
684.944	0.3
685.268	0.29
685.591	0.29
685.914	0.28
686.237	0.28
686.56	0.28
686.883	0.27
687.206	0.27
687.529	0.26
687.852	0.26
688.175	0.26
688.497	0.26
688.82	0.25
689.142	0.25
689.465	0.25
689.787	0.25
690.11	0.25
690.432	0.24
690.755	0.24
691.077	0.24
691.399	0.23
691.721	0.23
692.043	0.23
692.365	0.23
692.687	0.22
693.009	0.22
693.331	0.21
693.653	0.21
693.974	0.21
694.296	0.21
694.618	0.2
694.939	0.2
695.261	0.2
695.582	0.19
695.904	0.19
696.225	0.2
696.546	0.2
696.868	0.19
697.189	0.19
697.51	0.19
697.831	0.18
698.152	0.18
698.473	0.18
698.794	0.17
699.114	0.17
699.435	0.15
699.756	0.15
700.077	0.16
700.397	0.16
700.718	0.16
701.038	0.16
701.359	0.16
701.679	0.16
701.999	0.16
702.32	0.16
702.64	0.16
702.96	0.16
703.28	0.16
703.6	0.16
703.92	0.15
704.24	0.15
704.56	0.14
704.879	0.14
705.199	0.15
705.519	0.14
705.838	0.14
706.158	0.14
706.478	0.14
706.797	0.14
707.116	0.14
707.436	0.14
707.755	0.14
708.074	0.14
708.393	0.14
708.712	0.13
709.031	0.12
709.35	0.11
709.669	0.11
709.988	0.11
710.307	0.12
710.626	0.12
710.944	0.13
711.263	0.13
711.582	0.13
711.9	0.13
712.219	0.13
712.537	0.13
712.855	0.13
713.174	0.12
713.492	0.13
713.81	0.13
714.128	0.13
714.446	0.13
714.764	0.12
715.082	0.12
715.4	0.12
715.718	0.12
716.035	0.12
716.353	0.12
716.671	0.12
716.988	0.12
717.306	0.12
717.623	0.13
717.941	0.13
718.258	0.13
718.575	0.14
718.893	0.14
719.21	0.13
719.527	0.14
719.844	0.14
720.161	0.14
720.478	0.14
720.795	0.14
721.112	0.14
721.428	0.14
721.745	0.15
722.062	0.15
722.378	0.15
722.695	0.15
723.011	0.15
723.328	0.15
723.644	0.15
723.96	0.15
724.276	0.15
724.593	0.15
724.909	0.16
725.225	0.15
725.541	0.15
725.857	0.15
726.173	0.16
726.488	0.16
726.804	0.16
727.12	0.16
727.435	0.15
727.751	0.15
728.067	0.15
728.382	0.15
728.697	0.15
729.013	0.15
729.328	0.15
729.643	0.15
729.958	0.15
730.273	0.15
730.588	0.15
730.903	0.15
731.218	0.15
731.533	0.15
731.848	0.15
732.163	0.15
732.477	0.15
732.792	0.15
733.107	0.14
733.421	0.14
733.736	0.14
734.05	0.15
734.364	0.15
734.678	0.15
734.993	0.15
735.307	0.15
735.621	0.15
735.935	0.15
736.249	0.15
736.563	0.15
736.877	0.15
737.19	0.15
737.504	0.15
737.818	0.15
738.131	0.15
738.445	0.15
738.758	0.15
739.072	0.15
739.385	0.15
739.698	0.15
740.012	0.15
740.325	0.14
740.638	0.14
740.951	0.14
741.264	0.14
741.577	0.14
741.89	0.14
742.203	0.15
742.515	0.14
742.828	0.14
743.141	0.14
743.453	0.14
743.766	0.14
744.078	0.14
744.391	0.14
744.703	0.14
745.015	0.13
745.327	0.13
745.639	0.13
745.952	0.13
746.264	0.13
746.575	0.13
746.887	0.13
747.199	0.13
747.511	0.13
747.823	0.13
748.134	0.12
748.446	0.12
748.757	0.12
749.069	0.12
749.38	0.12
749.692	0.12
750.003	0.12
750.314	0.11
750.625	0.11
750.936	0.11
751.248	0.11
751.559	0.1
751.869	0.1
752.18	0.1
752.491	0.1
752.802	0.1
753.112	0.1
753.423	0.1
753.734	0.1
754.044	0.1
754.355	0.1
754.665	0.09
754.975	0.09
755.285	0.09
755.596	0.09
755.906	0.09
756.216	0.08
756.526	0.08
756.836	0.08
757.146	0.08
757.455	0.08
757.765	0.08
758.075	0.08
758.385	0.08
758.694	0.07
759.004	0.07
759.313	0.07
759.622	0.07
759.932	0.07
760.241	0.07
760.55	0.07
760.859	0.06
761.168	0.06
761.477	0.06
761.786	0.06
762.095	0.05
762.404	0.06
762.713	0.06
763.021	0.06
763.33	0.06
763.639	0.05
763.947	0.05
764.256	0.05
764.564	0.05
764.872	0.06
765.181	0.05
765.489	0.05
765.797	0.05
766.105	0.05
766.413	0.05
766.721	0.05
767.029	0.05
767.337	0.04
767.644	0.04
767.952	0.04
768.26	0.05
768.567	0.05
768.875	0.05
769.182	0.05
769.49	0.05
769.797	0.05
770.104	0.05
770.411	0.05
770.718	0.05
771.026	0.05
771.333	0.05
771.639	0.05
771.946	0.05
772.253	0.05
772.56	0.05
772.867	0.04
773.173	0.04
773.48	0.04
773.786	0.04
774.093	0.04
774.399	0.04
774.705	0.04
775.012	0.03
775.318	0.03
775.624	0.03
775.93	0.03
776.236	0.03
776.542	0.03
776.848	0.03
777.154	0.03
777.459	0.04
777.765	0.04
778.071	0.04
778.376	0.04
778.682	0.04
778.987	0.04
779.292	0.04
779.598	0.04
779.903	0.04
780.208	0.04
780.513	0.04
780.818	0.04
781.123	0.04
781.428	0.04
781.733	0.04
782.038	0.04
782.343	0.05
782.647	0.04
782.952	0.04
783.256	0.04
783.561	0.04
783.865	0.04
784.17	0.04
784.474	0.04
784.778	0.04
785.082	0.04
785.386	0.04
785.69	0.04
785.994	0.04
786.298	0.04
786.602	0.04
786.906	0.04
787.209	0.04
787.513	0.04
787.817	0.04
788.12	0.04
788.424	0.04
788.727	0.04
789.03	0.04
789.333	0.04
789.637	0.04
789.94	0.04
790.243	0.04
790.546	0.04
790.849	0.04
791.152	0.04
791.454	0.04
791.757	0.04
792.06	0.04
792.362	0.04
792.665	0.04
792.967	0.04
793.27	0.04
793.572	0.04
793.874	0.04
794.177	0.04
794.479	0.04
794.781	0.04
795.083	0.04
795.385	0.04
795.687	0.03
795.989	0.04
796.29	0.04
796.592	0.04
796.894	0.04
797.195	0.04
797.497	0.05
797.798	0.05
798.1	0.04
798.401	0.04
798.702	0.04
799.003	0.04
799.304	0.05
799.605	0.05
799.906	0.05
800.207	0.04
800.508	0.04
800.809	0.04
801.11	0.04
801.41	0.04
801.711	0.04
802.011	0.03
802.312	0.03
802.612	0.03
802.913	0.03
803.213	0.03
803.513	0.03
803.813	0.04
804.113	0.04
804.413	0.05
804.713	0.04
805.013	0.04
805.313	0.04
805.613	0.04
805.912	0.04
806.212	0.04
806.511	0.04
806.811	0.04
807.11	0.04
807.41	0.04
807.709	0.04
808.008	0.04
808.307	0.05
808.606	0.05
808.905	0.05
809.204	0.05
809.503	0.05
809.802	0.04
810.101	0.04
810.399	0.04
810.698	0.04
810.997	0.04
811.295	0.05
811.593	0.05
811.892	0.04
812.19	0.04
812.488	0.04
812.786	0.05
813.084	0.05
813.383	0.05
813.68	0.06
813.978	0.05
814.276	0.06
814.574	0.05
814.872	0.05
815.169	0.05
815.467	0.05
815.764	0.05
816.062	0.05
816.359	0.05
816.656	0.05
816.954	0.05
817.251	0.05
817.548	0.05
817.845	0.06
818.142	0.07
818.439	0.06
818.735	0.06
819.032	0.05
819.329	0.06
819.626	0.06
819.922	0.05
820.219	0.06
820.515	0.06
820.811	0.05
821.108	0.06
821.404	0.05
821.7	0.04
821.996	0.05
822.292	0.05
822.588	0.05
822.884	0.05
823.18	0.05
823.475	0.05
823.771	0.05
824.067	0.05
824.362	0.05
824.658	0.06
824.953	0.06
825.249	0.06
825.544	0.05
825.839	0.06
826.134	0.05
826.429	0.06
826.724	0.06
827.019	0.06
827.314	0.06
827.609	0.05
827.904	0.04
828.198	0.05
828.493	0.05
828.787	0.05
829.082	0.05
829.376	0.05
829.671	0.05
829.965	0.05
830.259	0.05
830.553	0.05
830.847	0.06
831.141	0.07
831.435	0.06
831.729	0.06
832.023	0.06
832.317	0.07
832.61	0.07
832.904	0.07
833.197	0.06
833.491	0.06
833.784	0.07
834.077	0.06
834.371	0.07
834.664	0.05
834.957	0.06
835.25	0.07
835.543	0.07
835.836	0.06
836.129	0.06
836.421	0.06
836.714	0.06
837.007	0.06
837.299	0.06
837.592	0.06
837.884	0.06
838.177	0.05
838.469	0.05
838.761	0.05
839.053	0.05
839.345	0.06
839.637	0.06
839.929	0.06
840.221	0.08
840.513	0.06
840.805	0.07
841.096	0.07
841.388	0.07
841.68	0.07
841.971	0.06
842.262	0.06
842.554	0.07
842.845	0.07
843.136	0.07
843.427	0.07
843.718	0.07
844.009	0.07
844.3	0.07
844.591	0.06
844.882	0.07
845.173	0.06
845.463	0.07
845.754	0.06
846.044	0.05
846.335	0.07
846.625	0.07
846.915	0.07
847.206	0.06
847.496	0.08
847.786	0.07
848.076	0.07
848.366	0.07
848.656	0.07
848.945	0.07
849.235	0.06
849.525	0.07
849.814	0.05
850.104	0.05
850.393	0.06
850.683	0.06
850.972	0.07
851.261	0.07
851.551	0.06
851.84	0.06
852.129	0.07
852.418	0.07
852.707	0.07
852.995	0.07
853.284	0.07
853.573	0.06
853.862	0.06
854.15	0.07
854.439	0.07
854.727	0.06
855.015	0.06
855.304	0.07
855.592	0.06
855.88	0.06
856.168	0.07
856.456	0.07
856.744	0.07
857.032	0.06
857.32	0.07
857.607	0.08
857.895	0.06
858.183	0.07
858.47	0.06
858.757	0.06
859.045	0.07
859.332	0.08
859.619	0.06
859.907	0.06
860.194	0.07
860.481	0.06
860.768	0.07
861.054	0.06
861.341	0.06
861.628	0.05
861.915	0.07
862.201	0.06
862.488	0.07
862.774	0.06
863.061	0.07
863.347	0.05
863.633	0.04
863.919	0.06
864.205	0.07
864.491	0.06
864.777	0.05
865.063	0.03
865.349	0.06
865.635	0.09
865.92	0.05
866.206	0.04
866.492	0.05
866.777	0.06
867.062	0.06
867.348	0.06
867.633	0.04
867.918	0.04
868.203	0.06
868.488	0.06
868.773	0.04
869.058	0.08
869.343	0.06
869.628	0.03
869.912	0.02
870.197	0.04
870.482	0.05
870.766	0.05
871.05	0.06
871.335	0.07
871.619	0.06
871.903	0.04
872.187	0.06
872.471	0.05
872.755	0.03
873.039	0.03
873.323	0.06
873.607	0.04
873.89	0.02
874.174	-0.01
874.458	0.03
874.741	-0.01
875.024	0.06
875.308	0.03
875.591	-0.01
875.874	0.03
876.157	0.04
876.44	0
876.723	0.03
877.006	0.02
877.289	0.02
877.572	0.1
877.854	0.04
878.137	0.03
878.42	0.06
878.702	0.03
878.984	0.02
879.267	-0
879.549	0.11
879.831	0.09
880.113	0.08
880.395	0.07
880.677	0.02
880.959	-0.06
