Data from Rubpy_EV_1800_EDTA_Buffered_Absorbance_15-39-33-620.txt Node
Date: Tue Jun 30 15:39:33 BST 2026
User: fpm-admin
Spectrometer: OFX00224
Trigger mode: 0
Integration Time (sec): 7.000000E-2
Scans to average: 3
Nonlinearity correction enabled: false
Boxcar width: 0
Storing dark spectrum: false
XAxis mode: Wavelengths
Number of Pixels in Spectrum: 2136
>>>>>Begin Spectral Data<<<<<
154.91	-0.07
155.289	-0.41
155.669	-0
156.048	-0
156.428	-0.16
156.807	-0.15
157.186	1
157.566	-0.09
157.945	0.15
158.325	-0
158.704	-0.24
159.083	-0.52
159.462	0.05
159.842	-0.62
160.221	0.41
160.6	-0.51
160.979	-0.41
161.359	-0.23
161.738	-0.3
162.117	-0
162.496	-0.08
162.875	0.6
163.254	-0
163.633	-0
164.012	-0
164.391	0.39
164.77	-0
165.149	-0.1
165.528	-0.1
165.907	-0
166.286	0.08
166.665	-0.16
167.044	-0.94
167.423	0.3
167.802	0.21
168.181	0.06
168.559	-0
168.938	-0.38
169.317	-0.22
169.696	0.41
170.074	-0
170.453	-0
170.832	0.3
171.21	-0
171.589	-0.41
171.968	-0
172.346	-0.65
172.725	-0.03
173.103	0.04
173.482	0.42
173.861	0.03
174.239	-0.44
174.617	0.86
174.996	1.11
175.374	-0
175.753	-0
176.131	0.8
176.51	0.79
176.888	-0
177.266	-0
177.645	-0.19
178.023	1.36
178.401	-0.3
178.779	0.01
179.158	-0.07
179.536	0.26
179.914	-0
180.292	-0.04
180.67	-0.46
181.048	-0
181.427	0.2
181.805	-0.15
182.183	-0.43
182.561	-0.27
182.939	-0
183.317	-0.9
183.695	-0
184.073	-0.08
184.451	-0
184.829	0.51
185.206	-0.38
185.584	0.25
185.962	-0.18
186.34	-0.38
186.718	-0
187.096	0.24
187.473	-0
187.851	-0
188.229	0.88
188.607	0.14
188.984	0.23
189.362	0.24
189.74	0.22
190.117	0.2
190.495	0.15
190.872	0.07
191.25	0.09
191.627	0.09
192.005	0.11
192.382	0.1
192.76	0.18
193.137	0.2
193.515	0.11
193.892	0.31
194.269	0.2
194.647	0.23
195.024	0.19
195.401	0.19
195.779	0.14
196.156	0.17
196.533	0.14
196.91	0.16
197.288	0.15
197.665	0.17
198.042	0.25
198.419	0.16
198.796	0.17
199.173	0.25
199.55	0.22
199.927	0.14
200.304	0.24
200.681	0.19
201.058	0.25
201.435	0.25
201.812	0.27
202.189	0.22
202.566	0.09
202.943	0.19
203.32	0.15
203.697	0.16
204.073	0.29
204.45	0.18
204.827	0.17
205.204	0.2
205.58	0.12
205.957	0.14
206.334	0.18
206.71	0.24
207.087	0.26
207.464	0.12
207.84	0.24
208.217	0.23
208.593	0.28
208.97	0.13
209.346	0.23
209.723	0.14
210.099	0.14
210.476	0.21
210.852	0.21
211.228	0.13
211.605	0.16
211.981	0.17
212.357	0.12
212.733	0.23
213.11	0.24
213.486	0.23
213.862	0.16
214.238	0.24
214.614	0.1
214.991	0.16
215.367	0.11
215.743	0.14
216.119	0.18
216.495	0.16
216.871	0.21
217.247	0.22
217.623	0.14
217.999	0.21
218.375	0.09
218.751	0.11
219.127	0.26
219.502	0.09
219.878	0.11
220.254	0.15
220.63	0.13
221.006	0.22
221.381	0.23
221.757	0.16
222.133	0.2
222.508	0.22
222.884	0.22
223.26	0.18
223.635	0.11
224.011	0.2
224.386	0.23
224.762	0.24
225.137	0.1
225.513	0.26
225.888	0.15
226.264	0.09
226.639	0.2
227.014	0.23
227.39	0.16
227.765	0.22
228.14	0.17
228.516	0.28
228.891	0.3
229.266	0.17
229.641	0.35
230.017	0.18
230.392	0.31
230.767	0.3
231.142	0.07
231.517	0.22
231.892	0.22
232.267	0.23
232.642	0.18
233.017	0.23
233.392	0.28
233.767	0.21
234.142	0.18
234.517	0.21
234.892	0.25
235.267	0.18
235.641	0.21
236.016	0.22
236.391	0.14
236.766	0.11
237.14	0.14
237.515	0.1
237.89	0.14
238.264	0.19
238.639	0.1
239.014	0.12
239.388	0.21
239.763	0.14
240.137	0.19
240.512	0.23
240.886	0.22
241.261	0.22
241.635	0.22
242.009	0.14
242.384	0.2
242.758	0.25
243.132	0.17
243.507	0.13
243.881	0.11
244.255	0.2
244.629	0.19
245.004	0.1
245.378	0.15
245.752	0.33
246.126	0.2
246.5	0.28
246.874	0.26
247.248	0.05
247.622	0.19
247.996	0.19
248.37	0.09
248.744	0.15
249.118	0.13
249.492	0.09
249.866	0.14
250.24	0.22
250.613	0.24
250.987	0.16
251.361	0.18
251.735	0.3
252.108	0.13
252.482	0.21
252.856	0.26
253.229	0.14
253.603	0.2
253.977	0.2
254.35	0.15
254.724	0.13
255.097	0.24
255.471	0.2
255.844	0.23
256.218	0.25
256.591	0.18
256.964	0.22
257.338	0.2
257.711	0.17
258.084	0.22
258.458	0.2
258.831	0.22
259.204	0.18
259.577	0.19
259.95	0.23
260.323	0.18
260.697	0.15
261.07	0.18
261.443	0.2
261.816	0.18
262.189	0.21
262.562	0.23
262.935	0.15
263.308	0.17
263.68	0.28
264.053	0.28
264.426	0.24
264.799	0.21
265.172	0.21
265.545	0.2
265.917	0.22
266.29	0.18
266.663	0.2
267.035	0.3
267.408	0.16
267.781	0.22
268.153	0.17
268.526	0.24
268.898	0.2
269.271	0.22
269.643	0.19
270.016	0.22
270.388	0.14
270.76	0.25
271.133	0.22
271.505	0.24
271.877	0.22
272.25	0.17
272.622	0.15
272.994	0.28
273.366	0.14
273.739	0.29
274.111	0.15
274.483	0.14
274.855	0.23
275.227	0.22
275.599	0.25
275.971	0.18
276.343	0.22
276.715	0.3
277.087	0.24
277.459	0.25
277.831	0.21
278.203	0.25
278.574	0.29
278.946	0.21
279.318	0.24
279.69	0.15
280.061	0.2
280.433	0.22
280.805	0.25
281.176	0.24
281.548	0.21
281.92	0.16
282.291	0.22
282.663	0.16
283.034	0.19
283.406	0.21
283.777	0.23
284.148	0.22
284.52	0.2
284.891	0.13
285.262	0.19
285.634	0.2
286.005	0.23
286.376	0.21
286.747	0.18
287.119	0.2
287.49	0.19
287.861	0.18
288.232	0.21
288.603	0.22
288.974	0.25
289.345	0.17
289.716	0.19
290.087	0.18
290.458	0.15
290.829	0.22
291.2	0.14
291.571	0.19
291.941	0.19
292.312	0.16
292.683	0.21
293.054	0.21
293.424	0.23
293.795	0.3
294.166	0.21
294.536	0.24
294.907	0.24
295.277	0.27
295.648	0.2
296.018	0.2
296.389	0.26
296.759	0.23
297.13	0.2
297.5	0.24
297.871	0.2
298.241	0.21
298.611	0.21
298.981	0.23
299.352	0.24
299.722	0.18
300.092	0.16
300.462	0.24
300.832	0.29
301.202	0.21
301.573	0.17
301.943	0.19
302.313	0.16
302.683	0.23
303.053	0.2
303.422	0.19
303.792	0.19
304.162	0.21
304.532	0.2
304.902	0.2
305.272	0.2
305.641	0.19
306.011	0.21
306.381	0.21
306.75	0.2
307.12	0.19
307.49	0.21
307.859	0.22
308.229	0.2
308.598	0.21
308.968	0.21
309.337	0.22
309.707	0.22
310.076	0.22
310.445	0.23
310.815	0.24
311.184	0.23
311.553	0.24
311.923	0.23
312.292	0.24
312.661	0.24
313.03	0.23
313.399	0.23
313.768	0.25
314.137	0.24
314.506	0.24
314.875	0.24
315.244	0.24
315.613	0.24
315.982	0.24
316.351	0.23
316.72	0.23
317.089	0.23
317.458	0.24
317.826	0.23
318.195	0.23
318.564	0.23
318.933	0.22
319.301	0.22
319.67	0.23
320.038	0.21
320.407	0.22
320.775	0.21
321.144	0.21
321.512	0.21
321.881	0.2
322.249	0.21
322.618	0.21
322.986	0.2
323.354	0.2
323.723	0.2
324.091	0.19
324.459	0.2
324.827	0.2
325.195	0.2
325.564	0.19
325.932	0.19
326.3	0.2
326.668	0.19
327.036	0.19
327.404	0.2
327.772	0.19
328.14	0.2
328.508	0.19
328.875	0.2
329.243	0.19
329.611	0.2
329.979	0.19
330.346	0.2
330.714	0.2
331.082	0.2
331.449	0.21
331.817	0.2
332.185	0.2
332.552	0.21
332.92	0.21
333.287	0.21
333.655	0.21
334.022	0.21
334.389	0.21
334.757	0.22
335.124	0.22
335.491	0.22
335.859	0.23
336.226	0.23
336.593	0.22
336.96	0.23
337.327	0.23
337.695	0.24
338.062	0.24
338.429	0.24
338.796	0.25
339.163	0.26
339.53	0.26
339.897	0.26
340.263	0.26
340.63	0.27
340.997	0.28
341.364	0.28
341.731	0.28
342.097	0.29
342.464	0.29
342.831	0.3
343.197	0.3
343.564	0.31
343.931	0.31
344.297	0.32
344.664	0.32
345.03	0.33
345.396	0.33
345.763	0.34
346.129	0.34
346.496	0.34
346.862	0.35
347.228	0.35
347.594	0.35
347.961	0.37
348.327	0.37
348.693	0.38
349.059	0.38
349.425	0.39
349.791	0.4
350.157	0.4
350.523	0.4
350.889	0.42
351.255	0.42
351.621	0.43
351.987	0.44
352.353	0.45
352.719	0.45
353.084	0.47
353.45	0.47
353.816	0.49
354.181	0.49
354.547	0.5
354.913	0.51
355.278	0.52
355.644	0.53
356.009	0.54
356.375	0.55
356.74	0.56
357.106	0.57
357.471	0.58
357.836	0.6
358.202	0.61
358.567	0.62
358.932	0.63
359.297	0.65
359.663	0.65
360.028	0.66
360.393	0.67
360.758	0.68
361.123	0.69
361.488	0.69
361.853	0.7
362.218	0.71
362.583	0.72
362.948	0.73
363.312	0.74
363.677	0.74
364.042	0.76
364.407	0.77
364.772	0.77
365.136	0.79
365.501	0.8
365.865	0.83
366.23	0.84
366.595	0.86
366.959	0.87
367.324	0.88
367.688	0.9
368.052	0.91
368.417	0.93
368.781	0.93
369.145	0.94
369.51	0.94
369.874	0.96
370.238	0.96
370.602	0.95
370.967	0.95
371.331	0.95
371.695	0.95
372.059	0.95
372.423	0.93
372.787	0.94
373.151	0.92
373.515	0.94
373.878	0.93
374.242	0.92
374.606	0.93
374.97	0.93
375.334	0.93
375.697	0.94
376.061	0.94
376.425	0.94
376.788	0.94
377.152	0.95
377.515	0.94
377.879	0.96
378.242	0.98
378.606	0.99
378.969	0.99
379.333	1
379.696	1.01
380.059	1.03
380.422	1.05
380.786	1.05
381.149	1.07
381.512	1.1
381.875	1.12
382.238	1.14
382.601	1.16
382.964	1.19
383.327	1.22
383.69	1.25
384.053	1.27
384.416	1.3
384.779	1.34
385.142	1.36
385.504	1.37
385.867	1.39
386.23	1.4
386.593	1.41
386.955	1.43
387.318	1.44
387.68	1.42
388.043	1.41
388.405	1.41
388.768	1.4
389.13	1.39
389.493	1.37
389.855	1.36
390.217	1.35
390.58	1.35
390.942	1.36
391.304	1.38
391.666	1.38
392.028	1.39
392.391	1.43
392.753	1.47
393.115	1.5
393.477	1.54
393.839	1.58
394.201	1.64
394.563	1.68
394.924	1.75
395.286	1.78
395.648	1.82
396.01	1.83
396.371	1.86
396.733	1.86
397.095	1.87
397.456	1.92
397.818	1.91
398.18	1.91
398.541	1.84
398.903	1.84
399.264	1.81
399.625	1.77
399.987	1.74
400.348	1.72
400.709	1.65
401.071	1.58
401.432	1.51
401.793	1.42
402.154	1.35
402.515	1.26
402.876	1.17
403.238	1.1
403.599	1.03
403.96	0.96
404.32	0.88
404.681	0.83
405.042	0.77
405.403	0.72
405.764	0.67
406.125	0.62
406.485	0.58
406.846	0.55
407.207	0.51
407.567	0.48
407.928	0.45
408.288	0.43
408.649	0.4
409.009	0.38
409.37	0.36
409.73	0.34
410.091	0.33
410.451	0.32
410.811	0.3
411.171	0.28
411.532	0.28
411.892	0.26
412.252	0.25
412.612	0.24
412.972	0.23
413.332	0.22
413.692	0.21
414.052	0.21
414.412	0.2
414.772	0.19
415.132	0.18
415.492	0.18
415.851	0.18
416.211	0.17
416.571	0.17
416.931	0.16
417.29	0.16
417.65	0.15
418.009	0.15
418.369	0.15
418.728	0.14
419.088	0.14
419.447	0.14
419.807	0.13
420.166	0.13
420.525	0.14
420.884	0.13
421.244	0.12
421.603	0.12
421.962	0.14
422.321	0.12
422.68	0.12
423.039	0.12
423.398	0.12
423.757	0.12
424.116	0.11
424.475	0.11
424.834	0.11
425.193	0.11
425.551	0.11
425.91	0.1
426.269	0.1
426.628	0.1
426.986	0.1
427.345	0.1
427.703	0.1
428.062	0.09
428.42	0.09
428.779	0.1
429.137	0.1
429.496	0.09
429.854	0.09
430.212	0.09
430.57	0.09
430.929	0.08
431.287	0.08
431.645	0.09
432.003	0.08
432.361	0.08
432.719	0.09
433.077	0.09
433.435	0.09
433.793	0.08
434.151	0.09
434.509	0.08
434.866	0.08
435.224	0.08
435.582	0.07
435.94	0.08
436.297	0.08
436.655	0.08
437.012	0.07
437.37	0.08
437.727	0.07
438.085	0.07
438.442	0.07
438.8	0.07
439.157	0.07
439.514	0.07
439.872	0.08
440.229	0.08
440.586	0.07
440.943	0.08
441.3	0.07
441.657	0.06
442.014	0.07
442.371	0.07
442.728	0.07
443.085	0.06
443.442	0.07
443.799	0.06
444.156	0.07
444.513	0.06
444.869	0.06
445.226	0.06
445.583	0.06
445.939	0.06
446.296	0.06
446.652	0.05
447.009	0.06
447.365	0.05
447.722	0.06
448.078	0.06
448.434	0.05
448.791	0.05
449.147	0.06
449.503	0.06
449.859	0.05
450.215	0.05
450.571	0.05
450.928	0.05
451.284	0.05
451.64	0.05
451.995	0.05
452.351	0.05
452.707	0.05
453.063	0.05
453.419	0.04
453.775	0.05
454.13	0.04
454.486	0.04
454.842	0.03
455.197	0.03
455.553	0.03
455.908	0.03
456.264	0.03
456.619	0.03
456.975	0.03
457.33	0.02
457.685	0.02
458.04	0.02
458.396	0.02
458.751	0.02
459.106	0.01
459.461	0.02
459.816	0.01
460.171	0.01
460.526	0.01
460.881	0
461.236	0.01
461.591	0
461.946	0
462.301	-0
462.655	-0
463.01	-0
463.365	-0.01
463.719	-0.01
464.074	-0.01
464.428	-0.02
464.783	-0.02
465.137	-0.01
465.492	-0.02
465.846	-0.02
466.201	-0.02
466.555	-0.02
466.909	-0.02
467.263	-0.02
467.618	-0.01
467.972	-0.01
468.326	-0.02
468.68	-0.02
469.034	-0.03
469.388	-0.02
469.742	-0.02
470.096	-0.02
470.45	-0.02
470.804	-0.02
471.157	-0.02
471.511	-0.02
471.865	-0.01
472.218	-0.02
472.572	-0.01
472.926	-0.02
473.279	-0.01
473.633	-0.01
473.986	0
474.34	0
474.693	0.01
475.046	0.01
475.4	0.02
475.753	0.02
476.106	0.02
476.459	0.02
476.812	0.03
477.165	0.03
477.519	0.04
477.872	0.04
478.224	0.04
478.577	0.04
478.93	0.05
479.283	0.05
479.636	0.05
479.989	0.05
480.341	0.06
480.694	0.06
481.047	0.06
481.399	0.06
481.752	0.07
482.104	0.07
482.457	0.07
482.809	0.08
483.162	0.07
483.514	0.08
483.866	0.08
484.219	0.08
484.571	0.08
484.923	0.08
485.275	0.09
485.627	0.09
485.979	0.09
486.331	0.1
486.683	0.1
487.035	0.1
487.387	0.1
487.739	0.1
488.091	0.11
488.443	0.1
488.794	0.11
489.146	0.1
489.498	0.1
489.849	0.11
490.201	0.11
490.552	0.11
490.904	0.12
491.255	0.12
491.607	0.11
491.958	0.12
492.309	0.12
492.661	0.12
493.012	0.12
493.363	0.13
493.714	0.12
494.065	0.13
494.416	0.13
494.767	0.13
495.118	0.14
495.469	0.14
495.82	0.14
496.171	0.14
496.522	0.14
496.872	0.14
497.223	0.15
497.574	0.15
497.924	0.15
498.275	0.15
498.626	0.16
498.976	0.15
499.327	0.16
499.677	0.16
500.027	0.16
500.378	0.16
500.728	0.16
501.078	0.16
501.428	0.17
501.779	0.17
502.129	0.17
502.479	0.17
502.829	0.17
503.179	0.17
503.529	0.17
503.879	0.18
504.229	0.19
504.578	0.18
504.928	0.18
505.278	0.19
505.628	0.19
505.977	0.19
506.327	0.19
506.676	0.19
507.026	0.19
507.375	0.2
507.725	0.2
508.074	0.21
508.424	0.2
508.773	0.21
509.122	0.21
509.471	0.21
509.82	0.21
510.17	0.21
510.519	0.22
510.868	0.22
511.217	0.22
511.566	0.23
511.915	0.23
512.263	0.22
512.612	0.23
512.961	0.23
513.31	0.23
513.659	0.24
514.007	0.24
514.356	0.23
514.704	0.24
515.053	0.24
515.401	0.25
515.75	0.25
516.098	0.25
516.447	0.25
516.795	0.25
517.143	0.25
517.491	0.26
517.839	0.26
518.188	0.26
518.536	0.26
518.884	0.26
519.232	0.27
519.58	0.27
519.928	0.27
520.275	0.27
520.623	0.28
520.971	0.27
521.319	0.28
521.666	0.28
522.014	0.29
522.362	0.29
522.709	0.29
523.057	0.29
523.404	0.29
523.752	0.29
524.099	0.29
524.446	0.3
524.794	0.3
525.141	0.3
525.488	0.3
525.835	0.3
526.182	0.31
526.529	0.31
526.876	0.32
527.223	0.32
527.57	0.32
527.917	0.32
528.264	0.32
528.611	0.32
528.958	0.32
529.304	0.33
529.651	0.33
529.998	0.33
530.344	0.33
530.691	0.33
531.037	0.34
531.384	0.34
531.73	0.34
532.076	0.35
532.423	0.35
532.769	0.35
533.115	0.35
533.461	0.35
533.807	0.36
534.154	0.36
534.5	0.36
534.846	0.36
535.192	0.37
535.537	0.37
535.883	0.37
536.229	0.37
536.575	0.38
536.921	0.38
537.266	0.38
537.612	0.39
537.957	0.39
538.303	0.39
538.649	0.39
538.994	0.39
539.339	0.4
539.685	0.4
540.03	0.41
540.375	0.41
540.721	0.41
541.066	0.41
541.411	0.42
541.756	0.42
542.101	0.42
542.446	0.42
542.791	0.42
543.136	0.43
543.481	0.43
543.825	0.44
544.17	0.44
544.515	0.44
544.86	0.45
545.204	0.45
545.549	0.45
545.893	0.45
546.238	0.46
546.582	0.46
546.927	0.46
547.271	0.46
547.615	0.47
547.96	0.47
548.304	0.47
548.648	0.47
548.992	0.48
549.336	0.48
549.68	0.48
550.024	0.49
550.368	0.49
550.712	0.49
551.056	0.49
551.4	0.5
551.743	0.5
552.087	0.5
552.431	0.5
552.774	0.5
553.118	0.51
553.462	0.5
553.805	0.51
554.148	0.51
554.492	0.51
554.835	0.52
555.178	0.52
555.522	0.52
555.865	0.52
556.208	0.52
556.551	0.53
556.894	0.52
557.237	0.52
557.58	0.53
557.923	0.53
558.266	0.53
558.609	0.53
558.952	0.53
559.294	0.54
559.637	0.54
559.98	0.54
560.322	0.54
560.665	0.54
561.007	0.54
561.35	0.54
561.692	0.55
562.034	0.55
562.377	0.55
562.719	0.55
563.061	0.55
563.403	0.55
563.745	0.55
564.088	0.55
564.43	0.56
564.772	0.56
565.113	0.56
565.455	0.56
565.797	0.56
566.139	0.56
566.481	0.57
566.822	0.57
567.164	0.56
567.506	0.57
567.847	0.57
568.189	0.57
568.53	0.57
568.872	0.57
569.213	0.57
569.554	0.57
569.895	0.57
570.237	0.57
570.578	0.57
570.919	0.57
571.26	0.57
571.601	0.57
571.942	0.57
572.283	0.57
572.624	0.57
572.965	0.57
573.306	0.57
573.646	0.57
573.987	0.57
574.328	0.57
574.668	0.57
575.009	0.57
575.349	0.57
575.69	0.57
576.03	0.57
576.37	0.57
576.711	0.56
577.051	0.56
577.391	0.57
577.731	0.57
578.072	0.57
578.412	0.57
578.752	0.57
579.092	0.57
579.431	0.56
579.771	0.54
580.111	0.52
580.451	0.52
580.791	0.56
581.13	0.57
581.47	0.58
581.81	0.58
582.149	0.57
582.489	0.58
582.828	0.58
583.167	0.55
583.507	0.51
583.846	0.49
584.185	0.5
584.525	0.53
584.864	0.56
585.203	0.58
585.542	0.59
585.881	0.6
586.22	0.6
586.559	0.6
586.898	0.59
587.236	0.57
587.575	0.56
587.914	0.57
588.252	0.59
588.591	0.61
588.93	0.61
589.268	0.61
589.607	0.61
589.945	0.61
590.283	0.61
590.622	0.61
590.96	0.62
591.298	0.63
591.636	0.63
591.974	0.63
592.313	0.64
592.651	0.64
592.989	0.65
593.326	0.65
593.664	0.66
594.002	0.66
594.34	0.65
594.678	0.65
595.015	0.65
595.353	0.64
595.691	0.64
596.028	0.66
596.366	0.66
596.703	0.67
597.04	0.67
597.378	0.68
597.715	0.68
598.052	0.68
598.389	0.69
598.726	0.69
599.064	0.69
599.401	0.69
599.738	0.69
600.074	0.69
600.411	0.7
600.748	0.69
601.085	0.69
601.422	0.68
601.758	0.68
602.095	0.69
602.432	0.69
602.768	0.69
603.105	0.69
603.441	0.7
603.777	0.7
604.114	0.7
604.45	0.7
604.786	0.7
605.122	0.7
605.459	0.7
605.795	0.7
606.131	0.69
606.467	0.69
606.803	0.7
607.139	0.7
607.474	0.69
607.81	0.69
608.146	0.69
608.482	0.69
608.817	0.69
609.153	0.69
609.488	0.68
609.824	0.68
610.159	0.68
610.495	0.68
610.83	0.68
611.165	0.69
611.5	0.68
611.836	0.68
612.171	0.68
612.506	0.68
612.841	0.68
613.176	0.68
613.511	0.68
613.845	0.67
614.18	0.67
614.515	0.67
614.85	0.67
615.184	0.67
615.519	0.67
615.854	0.66
616.188	0.66
616.523	0.66
616.857	0.65
617.191	0.65
617.526	0.65
617.86	0.65
618.194	0.64
618.528	0.65
618.862	0.65
619.196	0.64
619.53	0.64
619.864	0.64
620.198	0.64
620.532	0.64
620.866	0.63
621.2	0.64
621.533	0.63
621.867	0.63
622.201	0.63
622.534	0.63
622.868	0.62
623.201	0.63
623.534	0.62
623.868	0.62
624.201	0.61
624.534	0.61
624.868	0.61
625.201	0.61
625.534	0.61
625.867	0.6
626.2	0.6
626.533	0.6
626.865	0.6
627.198	0.59
627.531	0.59
627.864	0.58
628.196	0.58
628.529	0.58
628.862	0.58
629.194	0.57
629.527	0.57
629.859	0.57
630.191	0.56
630.524	0.56
630.856	0.56
631.188	0.55
631.52	0.56
631.852	0.55
632.184	0.55
632.516	0.54
632.848	0.54
633.18	0.54
633.512	0.53
633.844	0.53
634.175	0.52
634.507	0.52
634.839	0.52
635.17	0.51
635.502	0.5
635.833	0.5
636.165	0.5
636.496	0.49
636.827	0.49
637.159	0.49
637.49	0.48
637.821	0.48
638.152	0.47
638.483	0.47
638.814	0.47
639.145	0.46
639.476	0.46
639.807	0.46
640.137	0.45
640.468	0.45
640.799	0.44
641.129	0.44
641.46	0.43
641.791	0.43
642.121	0.43
642.451	0.43
642.782	0.43
643.112	0.42
643.442	0.42
643.773	0.42
644.103	0.42
644.433	0.42
644.763	0.41
645.093	0.41
645.423	0.4
645.753	0.4
646.082	0.4
646.412	0.4
646.742	0.4
647.072	0.4
647.401	0.4
647.731	0.39
648.06	0.39
648.39	0.39
648.719	0.39
649.048	0.39
649.378	0.38
649.707	0.38
650.036	0.38
650.365	0.38
650.694	0.38
651.023	0.38
651.352	0.37
651.681	0.37
652.01	0.37
652.339	0.37
652.668	0.37
652.996	0.37
653.325	0.37
653.654	0.37
653.982	0.37
654.311	0.37
654.639	0.37
654.967	0.37
655.296	0.37
655.624	0.37
655.952	0.37
656.28	0.37
656.609	0.37
656.937	0.37
657.265	0.37
657.593	0.31
657.92	0.17
658.248	0.1
658.576	0.09
658.904	0.16
659.231	0.25
659.559	0.33
659.887	0.36
660.214	0.36
660.542	0.37
660.869	0.36
661.196	0.36
661.524	0.36
661.851	0.36
662.178	0.36
662.505	0.36
662.832	0.36
663.159	0.37
663.486	0.36
663.813	0.36
664.14	0.35
664.467	0.36
664.794	0.36
665.12	0.36
665.447	0.35
665.774	0.35
666.1	0.35
666.427	0.35
666.753	0.35
667.079	0.35
667.406	0.34
667.732	0.34
668.058	0.34
668.384	0.34
668.71	0.34
669.036	0.34
669.362	0.34
669.688	0.34
670.014	0.34
670.34	0.34
670.666	0.34
670.991	0.34
671.317	0.34
671.643	0.34
671.968	0.34
672.294	0.34
672.619	0.33
672.945	0.33
673.27	0.33
673.595	0.32
673.92	0.32
674.246	0.32
674.571	0.31
674.896	0.31
675.221	0.31
675.546	0.31
675.87	0.31
676.195	0.31
676.52	0.31
676.845	0.3
677.169	0.3
677.494	0.3
677.819	0.29
678.143	0.29
678.468	0.29
678.792	0.29
679.116	0.29
679.44	0.28
679.765	0.28
680.089	0.28
680.413	0.27
680.737	0.27
681.061	0.27
681.385	0.27
681.709	0.26
682.033	0.26
682.356	0.26
682.68	0.26
683.004	0.26
683.327	0.25
683.651	0.25
683.974	0.25
684.298	0.25
684.621	0.24
684.944	0.24
685.268	0.24
685.591	0.23
685.914	0.23
686.237	0.22
686.56	0.22
686.883	0.22
687.206	0.21
687.529	0.21
687.852	0.21
688.175	0.21
688.497	0.21
688.82	0.2
689.142	0.2
689.465	0.2
689.787	0.2
690.11	0.2
690.432	0.2
690.755	0.2
691.077	0.19
691.399	0.19
691.721	0.18
692.043	0.18
692.365	0.18
692.687	0.18
693.009	0.17
693.331	0.17
693.653	0.17
693.974	0.16
694.296	0.16
694.618	0.16
694.939	0.16
695.261	0.16
695.582	0.16
695.904	0.15
696.225	0.16
696.546	0.16
696.868	0.16
697.189	0.15
697.51	0.15
697.831	0.15
698.152	0.15
698.473	0.15
698.794	0.14
699.114	0.13
699.435	0.11
699.756	0.12
700.077	0.12
700.397	0.13
700.718	0.13
701.038	0.13
701.359	0.13
701.679	0.13
701.999	0.13
702.32	0.13
702.64	0.13
702.96	0.13
703.28	0.13
703.6	0.13
703.92	0.12
704.24	0.12
704.56	0.11
704.879	0.11
705.199	0.11
705.519	0.11
705.838	0.11
706.158	0.11
706.478	0.11
706.797	0.12
707.116	0.11
707.436	0.11
707.755	0.11
708.074	0.11
708.393	0.11
708.712	0.1
709.031	0.09
709.35	0.08
709.669	0.08
709.988	0.08
710.307	0.09
710.626	0.09
710.944	0.1
711.263	0.1
711.582	0.1
711.9	0.11
712.219	0.1
712.537	0.1
712.855	0.1
713.174	0.1
713.492	0.1
713.81	0.1
714.128	0.1
714.446	0.1
714.764	0.1
715.082	0.09
715.4	0.1
715.718	0.09
716.035	0.09
716.353	0.1
716.671	0.1
716.988	0.09
717.306	0.09
717.623	0.1
717.941	0.1
718.258	0.1
718.575	0.11
718.893	0.11
719.21	0.11
719.527	0.11
719.844	0.11
720.161	0.11
720.478	0.11
720.795	0.11
721.112	0.11
721.428	0.11
721.745	0.12
722.062	0.12
722.378	0.12
722.695	0.12
723.011	0.12
723.328	0.12
723.644	0.12
723.96	0.12
724.276	0.12
724.593	0.12
724.909	0.12
725.225	0.12
725.541	0.12
725.857	0.12
726.173	0.12
726.488	0.13
726.804	0.12
727.12	0.12
727.435	0.12
727.751	0.12
728.067	0.12
728.382	0.12
728.697	0.12
729.013	0.12
729.328	0.12
729.643	0.12
729.958	0.12
730.273	0.12
730.588	0.12
730.903	0.12
731.218	0.12
731.533	0.12
731.848	0.12
732.163	0.12
732.477	0.12
732.792	0.12
733.107	0.11
733.421	0.11
733.736	0.11
734.05	0.12
734.364	0.12
734.678	0.12
734.993	0.12
735.307	0.12
735.621	0.12
735.935	0.12
736.249	0.11
736.563	0.12
736.877	0.12
737.19	0.12
737.504	0.12
737.818	0.12
738.131	0.12
738.445	0.13
738.758	0.12
739.072	0.12
739.385	0.12
739.698	0.11
740.012	0.12
740.325	0.12
740.638	0.11
740.951	0.11
741.264	0.11
741.577	0.11
741.89	0.11
742.203	0.12
742.515	0.12
742.828	0.12
743.141	0.11
743.453	0.11
743.766	0.11
744.078	0.11
744.391	0.11
744.703	0.11
745.015	0.11
745.327	0.1
745.639	0.1
745.952	0.1
746.264	0.1
746.575	0.1
746.887	0.1
747.199	0.11
747.511	0.11
747.823	0.1
748.134	0.1
748.446	0.1
748.757	0.1
749.069	0.09
749.38	0.09
749.692	0.1
750.003	0.09
750.314	0.09
750.625	0.09
750.936	0.09
751.248	0.08
751.559	0.08
751.869	0.08
752.18	0.08
752.491	0.07
752.802	0.07
753.112	0.08
753.423	0.08
753.734	0.08
754.044	0.08
754.355	0.08
754.665	0.08
754.975	0.07
755.285	0.07
755.596	0.07
755.906	0.07
756.216	0.06
756.526	0.07
756.836	0.07
757.146	0.07
757.455	0.07
757.765	0.07
758.075	0.06
758.385	0.06
758.694	0.06
759.004	0.06
759.313	0.06
759.622	0.06
759.932	0.05
760.241	0.06
760.55	0.05
760.859	0.05
761.168	0.05
761.477	0.05
761.786	0.04
762.095	0.04
762.404	0.04
762.713	0.04
763.021	0.04
763.33	0.04
763.639	0.04
763.947	0.04
764.256	0.04
764.564	0.04
764.872	0.04
765.181	0.04
765.489	0.04
765.797	0.04
766.105	0.04
766.413	0.04
766.721	0.04
767.029	0.03
767.337	0.03
767.644	0.03
767.952	0.03
768.26	0.04
768.567	0.04
768.875	0.04
769.182	0.04
769.49	0.04
769.797	0.04
770.104	0.04
770.411	0.04
770.718	0.04
771.026	0.04
771.333	0.04
771.639	0.04
771.946	0.04
772.253	0.04
772.56	0.04
772.867	0.04
773.173	0.04
773.48	0.03
773.786	0.03
774.093	0.03
774.399	0.03
774.705	0.03
775.012	0.03
775.318	0.03
775.624	0.03
775.93	0.02
776.236	0.02
776.542	0.03
776.848	0.03
777.154	0.03
777.459	0.03
777.765	0.03
778.071	0.03
778.376	0.03
778.682	0.03
778.987	0.03
779.292	0.03
779.598	0.03
779.903	0.03
780.208	0.03
780.513	0.03
780.818	0.03
781.123	0.03
781.428	0.03
781.733	0.03
782.038	0.03
782.343	0.04
782.647	0.03
782.952	0.04
783.256	0.03
783.561	0.03
783.865	0.04
784.17	0.03
784.474	0.03
784.778	0.03
785.082	0.03
785.386	0.03
785.69	0.03
785.994	0.03
786.298	0.03
786.602	0.03
786.906	0.03
787.209	0.03
787.513	0.03
787.817	0.04
788.12	0.03
788.424	0.03
788.727	0.03
789.03	0.03
789.333	0.03
789.637	0.03
789.94	0.03
790.243	0.03
790.546	0.03
790.849	0.03
791.152	0.03
791.454	0.03
791.757	0.03
792.06	0.03
792.362	0.03
792.665	0.03
792.967	0.03
793.27	0.03
793.572	0.03
793.874	0.03
794.177	0.03
794.479	0.03
794.781	0.03
795.083	0.03
795.385	0.03
795.687	0.02
795.989	0.03
796.29	0.03
796.592	0.03
796.894	0.04
797.195	0.03
797.497	0.04
797.798	0.03
798.1	0.03
798.401	0.04
798.702	0.04
799.003	0.04
799.304	0.04
799.605	0.04
799.906	0.04
800.207	0.04
800.508	0.03
800.809	0.03
801.11	0.03
801.41	0.03
801.711	0.03
802.011	0.03
802.312	0.03
802.612	0.02
802.913	0.02
803.213	0.02
803.513	0.02
803.813	0.03
804.113	0.03
804.413	0.04
804.713	0.03
805.013	0.03
805.313	0.04
805.613	0.03
805.912	0.04
806.212	0.03
806.511	0.03
806.811	0.03
807.11	0.03
807.41	0.03
807.709	0.03
808.008	0.03
808.307	0.04
808.606	0.04
808.905	0.04
809.204	0.04
809.503	0.04
809.802	0.03
810.101	0.03
810.399	0.03
810.698	0.03
810.997	0.04
811.295	0.04
811.593	0.04
811.892	0.03
812.19	0.03
812.488	0.04
812.786	0.04
813.084	0.04
813.383	0.04
813.68	0.04
813.978	0.05
814.276	0.05
814.574	0.04
814.872	0.04
815.169	0.04
815.467	0.04
815.764	0.04
816.062	0.04
816.359	0.03
816.656	0.04
816.954	0.04
817.251	0.04
817.548	0.05
817.845	0.05
818.142	0.05
818.439	0.05
818.735	0.05
819.032	0.05
819.329	0.05
819.626	0.04
819.922	0.04
820.219	0.05
820.515	0.04
820.811	0.05
821.108	0.04
821.404	0.04
821.7	0.04
821.996	0.04
822.292	0.04
822.588	0.04
822.884	0.04
823.18	0.04
823.475	0.04
823.771	0.04
824.067	0.05
824.362	0.05
824.658	0.05
824.953	0.05
825.249	0.05
825.544	0.04
825.839	0.05
826.134	0.04
826.429	0.05
826.724	0.05
827.019	0.05
827.314	0.05
827.609	0.04
827.904	0.03
828.198	0.05
828.493	0.04
828.787	0.04
829.082	0.04
829.376	0.04
829.671	0.04
829.965	0.04
830.259	0.04
830.553	0.04
830.847	0.05
831.141	0.06
831.435	0.05
831.729	0.05
832.023	0.05
832.317	0.06
832.61	0.06
832.904	0.05
833.197	0.05
833.491	0.06
833.784	0.06
834.077	0.05
834.371	0.05
834.664	0.05
834.957	0.05
835.25	0.05
835.543	0.05
835.836	0.05
836.129	0.05
836.421	0.06
836.714	0.05
837.007	0.05
837.299	0.06
837.592	0.05
837.884	0.05
838.177	0.05
838.469	0.05
838.761	0.04
839.053	0.05
839.345	0.06
839.637	0.05
839.929	0.05
840.221	0.06
840.513	0.06
840.805	0.06
841.096	0.06
841.388	0.06
841.68	0.06
841.971	0.06
842.262	0.07
842.554	0.06
842.845	0.06
843.136	0.07
843.427	0.06
843.718	0.06
844.009	0.06
844.3	0.05
844.591	0.06
844.882	0.06
845.173	0.06
845.463	0.05
845.754	0.05
846.044	0.05
846.335	0.06
846.625	0.06
846.915	0.05
847.206	0.05
847.496	0.07
847.786	0.05
848.076	0.06
848.366	0.06
848.656	0.05
848.945	0.05
849.235	0.06
849.525	0.07
849.814	0.05
850.104	0.05
850.393	0.05
850.683	0.05
850.972	0.06
851.261	0.05
851.551	0.06
851.84	0.05
852.129	0.06
852.418	0.06
852.707	0.05
852.995	0.05
853.284	0.06
853.573	0.06
853.862	0.06
854.15	0.06
854.439	0.06
854.727	0.05
855.015	0.06
855.304	0.07
855.592	0.05
855.88	0.04
856.168	0.06
856.456	0.06
856.744	0.05
857.032	0.05
857.32	0.07
857.607	0.07
857.895	0.05
858.183	0.05
858.47	0.05
858.757	0.06
859.045	0.05
859.332	0.06
859.619	0.04
859.907	0.06
860.194	0.05
860.481	0.06
860.768	0.07
861.054	0.05
861.341	0.06
861.628	0.05
861.915	0.06
862.201	0.05
862.488	0.05
862.774	0.06
863.061	0.05
863.347	0.04
863.633	0.04
863.919	0.06
864.205	0.07
864.491	0.05
864.777	0.05
865.063	0.04
865.349	0.05
865.635	0.06
865.92	0.06
866.206	0.03
866.492	0.05
866.777	0.06
867.062	0.08
867.348	0.06
867.633	0.06
867.918	0.07
868.203	0.05
868.488	0.05
868.773	0.04
869.058	0.07
869.343	0.05
869.628	0.04
869.912	0.02
870.197	0.04
870.482	0.06
870.766	0.03
871.05	0.01
871.335	0.05
871.619	0
871.903	0.02
872.187	0.05
872.471	0.05
872.755	0.03
873.039	0
873.323	0.05
873.607	0.03
873.89	0.02
874.174	0
874.458	-0.01
874.741	0.01
875.024	0.05
875.308	0.02
875.591	0.01
875.874	0
876.157	-0.03
876.44	0.03
876.723	0.02
877.006	0.03
877.289	-0.04
877.572	0.02
877.854	0.05
878.137	0.02
878.42	0.1
878.702	-0.01
878.984	-0.01
879.267	-0.02
879.549	-0
879.831	0.06
880.113	0.07
880.395	0.01
880.677	0.01
880.959	-0.02
