Data from Rubpy_EV_1800_EDTA_Buffered_Absorbance_15-22-39-598.txt Node
Date: Tue Jun 30 15:22:39 BST 2026
User: fpm-admin
Spectrometer: OFX00224
Trigger mode: 0
Integration Time (sec): 7.000000E-2
Scans to average: 3
Nonlinearity correction enabled: false
Boxcar width: 0
Storing dark spectrum: false
XAxis mode: Wavelengths
Number of Pixels in Spectrum: 2136
>>>>>Begin Spectral Data<<<<<
154.91	-0.19
155.289	-0
155.669	-0
156.048	-0
156.428	-0
156.807	-0.2
157.186	-0
157.566	-0
157.945	-0
158.325	-0
158.704	-0
159.083	0.7
159.462	-0.3
159.842	-0.49
160.221	0.01
160.6	-0.49
160.979	-0.25
161.359	-0.07
161.738	1.15
162.117	-0
162.496	-0.13
162.875	-0.35
163.254	-0
163.633	-0
164.012	-0.45
164.391	0.18
164.77	-0
165.149	-0.14
165.528	-0
165.907	-0.82
166.286	-0.03
166.665	-0.63
167.044	-0.95
167.423	-0
167.802	-0
168.181	0.23
168.559	-0
168.938	-0.54
169.317	1.18
169.696	0.16
170.074	0.1
170.453	-0.44
170.832	0.02
171.21	-0
171.589	-0.15
171.968	-0
172.346	-0
172.725	0.03
173.103	-0.14
173.482	-0.07
173.861	-0
174.239	-0
174.617	0.76
174.996	-0.09
175.374	-0
175.753	-0.45
176.131	-0
176.51	0.35
176.888	-0
177.266	-0
177.645	-0.2
178.023	-0
178.401	-0.23
178.779	0.11
179.158	-0.01
179.536	-0
179.914	-0.13
180.292	-0.63
180.67	-0.46
181.048	-0
181.427	-0.06
181.805	0.09
182.183	-0
182.561	0.03
182.939	-0
183.317	-0.99
183.695	-0
184.073	0.02
184.451	-0
184.829	-0
185.206	-0.2
185.584	-0.25
185.962	-0.62
186.34	-0
186.718	-0
187.096	0.01
187.473	-0
187.851	-0
188.229	-0.03
188.607	0.03
188.984	0.07
189.362	0.05
189.74	0.09
190.117	0.13
190.495	0.07
190.872	-0.05
191.25	0.05
191.627	0.02
192.005	-0.03
192.382	0.03
192.76	0.03
193.137	0.08
193.515	0.03
193.892	0.12
194.269	0.14
194.647	0.08
195.024	0.14
195.401	0.11
195.779	-0.04
196.156	0.07
196.533	0.12
196.91	0.15
197.288	0.08
197.665	0.21
198.042	0.03
198.419	0.07
198.796	0.02
199.173	0.15
199.55	0.04
199.927	0.07
200.304	0.09
200.681	0.06
201.058	0.05
201.435	0.08
201.812	0.03
202.189	0.12
202.566	-0
202.943	0.11
203.32	0.11
203.697	0.18
204.073	0.11
204.45	0.14
204.827	0.1
205.204	0.13
205.58	0.07
205.957	0.1
206.334	0.15
206.71	0.1
207.087	0.11
207.464	0.06
207.84	0.13
208.217	0.09
208.593	0.17
208.97	0.07
209.346	0.04
209.723	0.03
210.099	0.1
210.476	0.16
210.852	0.19
211.228	0.03
211.605	0.2
211.981	0.05
212.357	0.15
212.733	0.15
213.11	0.11
213.486	0.17
213.862	0.03
214.238	0.19
214.614	0.03
214.991	0.07
215.367	0.09
215.743	0.06
216.119	0.05
216.495	0.15
216.871	0.09
217.247	0.16
217.623	0.03
217.999	0.18
218.375	0.05
218.751	0.14
219.127	0.09
219.502	0.07
219.878	0.03
220.254	0.1
220.63	0.09
221.006	0.08
221.381	0.14
221.757	0.05
222.133	0.17
222.508	0.07
222.884	0.06
223.26	0.05
223.635	0.09
224.011	0.16
224.386	0.11
224.762	0.08
225.137	0.1
225.513	0.09
225.888	0.12
226.264	0.03
226.639	0.04
227.014	0.1
227.39	0.08
227.765	0.17
228.14	0.05
228.516	0.09
228.891	0.21
229.266	0.08
229.641	0.16
230.017	0.16
230.392	0.12
230.767	0.13
231.142	0.02
231.517	0.1
231.892	0.1
232.267	0.1
232.642	0.11
233.017	0.12
233.392	0.13
233.767	0.17
234.142	0.08
234.517	0.19
234.892	0.11
235.267	0.1
235.641	0.11
236.016	0.07
236.391	0.12
236.766	0.01
237.14	0
237.515	0.04
237.89	0.12
238.264	0.04
238.639	0.07
239.014	0.12
239.388	0.08
239.763	0.11
240.137	0.09
240.512	0.12
240.886	0.12
241.261	0.11
241.635	0.13
242.009	0.02
242.384	0.12
242.758	0.18
243.132	0.11
243.507	0.05
243.881	0.08
244.255	0.12
244.629	0.13
245.004	0.09
245.378	0.09
245.752	0.1
246.126	0.22
246.5	0.12
246.874	0.12
247.248	0.08
247.622	0.07
247.996	0.14
248.37	0.09
248.744	0.09
249.118	0.11
249.492	0.04
249.866	0.09
250.24	0.06
250.613	0.13
250.987	0.15
251.361	0.08
251.735	0.09
252.108	0.08
252.482	0.12
252.856	0.01
253.229	0.11
253.603	0.09
253.977	0.08
254.35	0.04
254.724	0.02
255.097	0.07
255.471	0.15
255.844	0.14
256.218	0.16
256.591	0.02
256.964	0.12
257.338	0.07
257.711	0.13
258.084	0.07
258.458	0.09
258.831	0.13
259.204	0.07
259.577	0.06
259.95	0.13
260.323	0.09
260.697	0.13
261.07	0.14
261.443	0.11
261.816	0.12
262.189	0.17
262.562	0.08
262.935	0.06
263.308	0.12
263.68	0.12
264.053	0.15
264.426	0.1
264.799	0.15
265.172	0.09
265.545	0.12
265.917	0.1
266.29	0.12
266.663	0.1
267.035	0.11
267.408	0.1
267.781	0.11
268.153	0.16
268.526	0.16
268.898	0.15
269.271	0.1
269.643	0.08
270.016	0.09
270.388	0.1
270.76	0.15
271.133	0.11
271.505	0.18
271.877	0.11
272.25	0.07
272.622	0.12
272.994	0.1
273.366	0.13
273.739	0.14
274.111	0.12
274.483	0.09
274.855	0.08
275.227	0.1
275.599	0.13
275.971	0.12
276.343	0.14
276.715	0.21
277.087	0.11
277.459	0.11
277.831	0.13
278.203	0.19
278.574	0.16
278.946	0.14
279.318	0.11
279.69	0.05
280.061	0.11
280.433	0.09
280.805	0.12
281.176	0.06
281.548	0.14
281.92	0.17
282.291	0.05
282.663	0.1
283.034	0.16
283.406	0.09
283.777	0.13
284.148	0.15
284.52	0.09
284.891	0.08
285.262	0.14
285.634	0.14
286.005	0.14
286.376	0.11
286.747	0.13
287.119	0.16
287.49	0.07
287.861	0.12
288.232	0.07
288.603	0.1
288.974	0.11
289.345	0.05
289.716	0.14
290.087	0.11
290.458	0.12
290.829	0.14
291.2	0.05
291.571	0.1
291.941	0.08
292.312	0.1
292.683	0.11
293.054	0.09
293.424	0.11
293.795	0.13
294.166	0.14
294.536	0.12
294.907	0.12
295.277	0.17
295.648	0.07
296.018	0.12
296.389	0.14
296.759	0.09
297.13	0.04
297.5	0.14
297.871	0.12
298.241	0.13
298.611	0.13
298.981	0.09
299.352	0.16
299.722	0.11
300.092	0.1
300.462	0.13
300.832	0.12
301.202	0.12
301.573	0.12
301.943	0.1
302.313	0.08
302.683	0.1
303.053	0.1
303.422	0.11
303.792	0.12
304.162	0.09
304.532	0.09
304.902	0.1
305.272	0.1
305.641	0.1
306.011	0.08
306.381	0.1
306.75	0.1
307.12	0.09
307.49	0.11
307.859	0.11
308.229	0.1
308.598	0.1
308.968	0.1
309.337	0.1
309.707	0.11
310.076	0.1
310.445	0.11
310.815	0.11
311.184	0.12
311.553	0.12
311.923	0.11
312.292	0.12
312.661	0.12
313.03	0.12
313.399	0.11
313.768	0.12
314.137	0.12
314.506	0.12
314.875	0.11
315.244	0.11
315.613	0.12
315.982	0.12
316.351	0.12
316.72	0.12
317.089	0.12
317.458	0.11
317.826	0.11
318.195	0.11
318.564	0.11
318.933	0.1
319.301	0.11
319.67	0.11
320.038	0.1
320.407	0.1
320.775	0.1
321.144	0.1
321.512	0.1
321.881	0.09
322.249	0.1
322.618	0.1
322.986	0.1
323.354	0.1
323.723	0.1
324.091	0.09
324.459	0.1
324.827	0.1
325.195	0.09
325.564	0.09
325.932	0.09
326.3	0.1
326.668	0.09
327.036	0.09
327.404	0.09
327.772	0.09
328.14	0.09
328.508	0.09
328.875	0.1
329.243	0.09
329.611	0.09
329.979	0.09
330.346	0.09
330.714	0.09
331.082	0.09
331.449	0.1
331.817	0.1
332.185	0.09
332.552	0.1
332.92	0.1
333.287	0.1
333.655	0.1
334.022	0.1
334.389	0.1
334.757	0.1
335.124	0.11
335.491	0.1
335.859	0.1
336.226	0.11
336.593	0.11
336.96	0.11
337.327	0.11
337.695	0.11
338.062	0.11
338.429	0.11
338.796	0.11
339.163	0.12
339.53	0.12
339.897	0.12
340.263	0.12
340.63	0.12
340.997	0.13
341.364	0.13
341.731	0.13
342.097	0.14
342.464	0.13
342.831	0.14
343.197	0.14
343.564	0.14
343.931	0.14
344.297	0.15
344.664	0.15
345.03	0.15
345.396	0.15
345.763	0.16
346.129	0.16
346.496	0.16
346.862	0.16
347.228	0.16
347.594	0.17
347.961	0.17
348.327	0.17
348.693	0.18
349.059	0.18
349.425	0.18
349.791	0.18
350.157	0.18
350.523	0.19
350.889	0.19
351.255	0.2
351.621	0.2
351.987	0.21
352.353	0.2
352.719	0.21
353.084	0.22
353.45	0.22
353.816	0.23
354.181	0.23
354.547	0.23
354.913	0.24
355.278	0.24
355.644	0.25
356.009	0.25
356.375	0.26
356.74	0.26
357.106	0.27
357.471	0.28
357.836	0.29
358.202	0.29
358.567	0.29
358.932	0.3
359.297	0.31
359.663	0.31
360.028	0.31
360.393	0.32
360.758	0.32
361.123	0.32
361.488	0.33
361.853	0.33
362.218	0.34
362.583	0.34
362.948	0.35
363.312	0.35
363.677	0.36
364.042	0.36
364.407	0.37
364.772	0.37
365.136	0.38
365.501	0.39
365.865	0.4
366.23	0.4
366.595	0.42
366.959	0.42
367.324	0.43
367.688	0.44
368.052	0.45
368.417	0.45
368.781	0.46
369.145	0.47
369.51	0.47
369.874	0.47
370.238	0.47
370.602	0.47
370.967	0.48
371.331	0.47
371.695	0.47
372.059	0.46
372.423	0.47
372.787	0.46
373.151	0.45
373.515	0.46
373.878	0.45
374.242	0.46
374.606	0.45
374.97	0.46
375.334	0.46
375.697	0.46
376.061	0.47
376.425	0.46
376.788	0.47
377.152	0.47
377.515	0.48
377.879	0.48
378.242	0.49
378.606	0.49
378.969	0.5
379.333	0.5
379.696	0.52
380.059	0.52
380.422	0.53
380.786	0.53
381.149	0.55
381.512	0.56
381.875	0.57
382.238	0.59
382.601	0.6
382.964	0.62
383.327	0.62
383.69	0.64
384.053	0.66
384.416	0.68
384.779	0.7
385.142	0.71
385.504	0.72
385.867	0.73
386.23	0.74
386.593	0.74
386.955	0.75
387.318	0.76
387.68	0.75
388.043	0.75
388.405	0.74
388.768	0.73
389.13	0.73
389.493	0.72
389.855	0.72
390.217	0.72
390.58	0.71
390.942	0.71
391.304	0.72
391.666	0.73
392.028	0.74
392.391	0.76
392.753	0.78
393.115	0.81
393.477	0.84
393.839	0.87
394.201	0.9
394.563	0.93
394.924	0.97
395.286	1
395.648	1.04
396.01	1.07
396.371	1.1
396.733	1.13
397.095	1.14
397.456	1.15
397.818	1.14
398.18	1.14
398.541	1.13
398.903	1.1
399.264	1.08
399.625	1.04
399.987	1
400.348	0.97
400.709	0.91
401.071	0.87
401.432	0.82
401.793	0.76
402.154	0.71
402.515	0.66
402.876	0.62
403.238	0.57
403.599	0.54
403.96	0.5
404.32	0.45
404.681	0.43
405.042	0.4
405.403	0.37
405.764	0.34
406.125	0.32
406.485	0.29
406.846	0.28
407.207	0.26
407.567	0.24
407.928	0.23
408.288	0.22
408.649	0.21
409.009	0.19
409.37	0.18
409.73	0.17
410.091	0.16
410.451	0.16
410.811	0.16
411.171	0.15
411.532	0.14
411.892	0.14
412.252	0.12
412.612	0.12
412.972	0.11
413.332	0.11
413.692	0.11
414.052	0.11
414.412	0.1
414.772	0.1
415.132	0.09
415.492	0.09
415.851	0.09
416.211	0.08
416.571	0.09
416.931	0.08
417.29	0.08
417.65	0.08
418.009	0.07
418.369	0.07
418.728	0.08
419.088	0.07
419.447	0.07
419.807	0.06
420.166	0.07
420.525	0.08
420.884	0.06
421.244	0.06
421.603	0.06
421.962	0.07
422.321	0.07
422.68	0.06
423.039	0.06
423.398	0.06
423.757	0.06
424.116	0.06
424.475	0.06
424.834	0.05
425.193	0.06
425.551	0.05
425.91	0.06
426.269	0.05
426.628	0.05
426.986	0.06
427.345	0.05
427.703	0.05
428.062	0.05
428.42	0.05
428.779	0.05
429.137	0.05
429.496	0.04
429.854	0.04
430.212	0.05
430.57	0.05
430.929	0.04
431.287	0.04
431.645	0.04
432.003	0.04
432.361	0.04
432.719	0.04
433.077	0.04
433.435	0.05
433.793	0.04
434.151	0.04
434.509	0.04
434.866	0.04
435.224	0.04
435.582	0.04
435.94	0.04
436.297	0.04
436.655	0.04
437.012	0.03
437.37	0.04
437.727	0.04
438.085	0.03
438.442	0.03
438.8	0.03
439.157	0.04
439.514	0.04
439.872	0.04
440.229	0.04
440.586	0.04
440.943	0.04
441.3	0.03
441.657	0.03
442.014	0.03
442.371	0.03
442.728	0.03
443.085	0.03
443.442	0.03
443.799	0.04
444.156	0.03
444.513	0.03
444.869	0.03
445.226	0.03
445.583	0.03
445.939	0.02
446.296	0.03
446.652	0.02
447.009	0.02
447.365	0.03
447.722	0.02
448.078	0.02
448.434	0.02
448.791	0.02
449.147	0.02
449.503	0.02
449.859	0.03
450.215	0.02
450.571	0.02
450.928	0.02
451.284	0.02
451.64	0.01
451.995	0.02
452.351	0.02
452.707	0.02
453.063	0.02
453.419	0.01
453.775	0.02
454.13	0.01
454.486	0.02
454.842	0.01
455.197	0.01
455.553	0
455.908	0
456.264	0
456.619	-0.01
456.975	-0
457.33	-0.01
457.685	-0.01
458.04	-0.01
458.396	-0
458.751	-0
459.106	-0.01
459.461	-0.01
459.816	-0.02
460.171	-0.02
460.526	-0.02
460.881	-0.02
461.236	-0.02
461.591	-0.03
461.946	-0.02
462.301	-0.04
462.655	-0.03
463.01	-0.03
463.365	-0.03
463.719	-0.04
464.074	-0.05
464.428	-0.05
464.783	-0.05
465.137	-0.04
465.492	-0.04
465.846	-0.05
466.201	-0.05
466.555	-0.05
466.909	-0.05
467.263	-0.05
467.618	-0.04
467.972	-0.04
468.326	-0.04
468.68	-0.05
469.034	-0.05
469.388	-0.05
469.742	-0.06
470.096	-0.05
470.45	-0.06
470.804	-0.05
471.157	-0.05
471.511	-0.06
471.865	-0.04
472.218	-0.05
472.572	-0.05
472.926	-0.05
473.279	-0.04
473.633	-0.04
473.986	-0.04
474.34	-0.03
474.693	-0.03
475.046	-0.03
475.4	-0.03
475.753	-0.03
476.106	-0.02
476.459	-0.02
476.812	-0.01
477.165	-0.01
477.519	-0.01
477.872	-0.01
478.224	-0
478.577	-0
478.93	0
479.283	-0
479.636	0
479.989	0.01
480.341	0.01
480.694	0.01
481.047	0.01
481.399	0.01
481.752	0.01
482.104	0.02
482.457	0.02
482.809	0.02
483.162	0.02
483.514	0.03
483.866	0.03
484.219	0.03
484.571	0.03
484.923	0.03
485.275	0.03
485.627	0.03
485.979	0.03
486.331	0.04
486.683	0.04
487.035	0.04
487.387	0.04
487.739	0.03
488.091	0.04
488.443	0.04
488.794	0.04
489.146	0.04
489.498	0.04
489.849	0.04
490.201	0.04
490.552	0.04
490.904	0.05
491.255	0.05
491.607	0.05
491.958	0.05
492.309	0.05
492.661	0.05
493.012	0.05
493.363	0.05
493.714	0.05
494.065	0.05
494.416	0.05
494.767	0.06
495.118	0.06
495.469	0.06
495.82	0.06
496.171	0.06
496.522	0.06
496.872	0.06
497.223	0.06
497.574	0.06
497.924	0.07
498.275	0.07
498.626	0.07
498.976	0.07
499.327	0.07
499.677	0.07
500.027	0.07
500.378	0.07
500.728	0.07
501.078	0.07
501.428	0.07
501.779	0.07
502.129	0.08
502.479	0.07
502.829	0.08
503.179	0.07
503.529	0.08
503.879	0.08
504.229	0.09
504.578	0.08
504.928	0.09
505.278	0.09
505.628	0.09
505.977	0.09
506.327	0.09
506.676	0.09
507.026	0.09
507.375	0.1
507.725	0.09
508.074	0.1
508.424	0.09
508.773	0.09
509.122	0.1
509.471	0.1
509.82	0.1
510.17	0.1
510.519	0.1
510.868	0.1
511.217	0.1
511.566	0.11
511.915	0.1
512.263	0.1
512.612	0.11
512.961	0.11
513.31	0.11
513.659	0.11
514.007	0.11
514.356	0.11
514.704	0.11
515.053	0.11
515.401	0.12
515.75	0.12
516.098	0.12
516.447	0.12
516.795	0.12
517.143	0.12
517.491	0.12
517.839	0.12
518.188	0.13
518.536	0.13
518.884	0.13
519.232	0.13
519.58	0.13
519.928	0.13
520.275	0.13
520.623	0.13
520.971	0.14
521.319	0.14
521.666	0.13
522.014	0.14
522.362	0.14
522.709	0.14
523.057	0.14
523.404	0.14
523.752	0.14
524.099	0.14
524.446	0.14
524.794	0.14
525.141	0.14
525.488	0.14
525.835	0.15
526.182	0.15
526.529	0.15
526.876	0.15
527.223	0.15
527.57	0.15
527.917	0.15
528.264	0.15
528.611	0.15
528.958	0.15
529.304	0.16
529.651	0.16
529.998	0.16
530.344	0.16
530.691	0.16
531.037	0.17
531.384	0.17
531.73	0.16
532.076	0.17
532.423	0.17
532.769	0.17
533.115	0.17
533.461	0.17
533.807	0.17
534.154	0.17
534.5	0.18
534.846	0.18
535.192	0.18
535.537	0.18
535.883	0.18
536.229	0.18
536.575	0.18
536.921	0.18
537.266	0.19
537.612	0.19
537.957	0.19
538.303	0.19
538.649	0.19
538.994	0.19
539.339	0.2
539.685	0.2
540.03	0.2
540.375	0.2
540.721	0.2
541.066	0.2
541.411	0.2
541.756	0.2
542.101	0.21
542.446	0.21
542.791	0.21
543.136	0.21
543.481	0.21
543.825	0.21
544.17	0.22
544.515	0.22
544.86	0.22
545.204	0.22
545.549	0.22
545.893	0.22
546.238	0.22
546.582	0.23
546.927	0.23
547.271	0.23
547.615	0.23
547.96	0.23
548.304	0.23
548.648	0.24
548.992	0.23
549.336	0.24
549.68	0.23
550.024	0.24
550.368	0.24
550.712	0.24
551.056	0.25
551.4	0.25
551.743	0.25
552.087	0.25
552.431	0.25
552.774	0.25
553.118	0.25
553.462	0.25
553.805	0.25
554.148	0.25
554.492	0.25
554.835	0.26
555.178	0.26
555.522	0.26
555.865	0.26
556.208	0.26
556.551	0.26
556.894	0.26
557.237	0.26
557.58	0.26
557.923	0.26
558.266	0.26
558.609	0.26
558.952	0.27
559.294	0.27
559.637	0.27
559.98	0.27
560.322	0.27
560.665	0.27
561.007	0.27
561.35	0.27
561.692	0.27
562.034	0.27
562.377	0.27
562.719	0.27
563.061	0.27
563.403	0.28
563.745	0.27
564.088	0.27
564.43	0.27
564.772	0.28
565.113	0.28
565.455	0.28
565.797	0.28
566.139	0.28
566.481	0.28
566.822	0.28
567.164	0.28
567.506	0.28
567.847	0.29
568.189	0.28
568.53	0.28
568.872	0.28
569.213	0.28
569.554	0.28
569.895	0.28
570.237	0.28
570.578	0.28
570.919	0.28
571.26	0.28
571.601	0.28
571.942	0.28
572.283	0.28
572.624	0.28
572.965	0.28
573.306	0.28
573.646	0.28
573.987	0.28
574.328	0.28
574.668	0.28
575.009	0.28
575.349	0.28
575.69	0.28
576.03	0.28
576.37	0.27
576.711	0.27
577.051	0.27
577.391	0.28
577.731	0.28
578.072	0.28
578.412	0.28
578.752	0.28
579.092	0.28
579.431	0.27
579.771	0.25
580.111	0.23
580.451	0.23
580.791	0.26
581.13	0.28
581.47	0.28
581.81	0.28
582.149	0.28
582.489	0.28
582.828	0.27
583.167	0.25
583.507	0.21
583.846	0.19
584.185	0.21
584.525	0.23
584.864	0.26
585.203	0.28
585.542	0.29
585.881	0.29
586.22	0.3
586.559	0.29
586.898	0.28
587.236	0.27
587.575	0.26
587.914	0.27
588.252	0.28
588.591	0.29
588.93	0.3
589.268	0.3
589.607	0.3
589.945	0.3
590.283	0.3
590.622	0.3
590.96	0.31
591.298	0.31
591.636	0.31
591.974	0.31
592.313	0.32
592.651	0.32
592.989	0.32
593.326	0.33
593.664	0.32
594.002	0.32
594.34	0.32
594.678	0.32
595.015	0.32
595.353	0.3
595.691	0.31
596.028	0.32
596.366	0.33
596.703	0.33
597.04	0.33
597.378	0.34
597.715	0.34
598.052	0.34
598.389	0.34
598.726	0.34
599.064	0.35
599.401	0.34
599.738	0.34
600.074	0.35
600.411	0.35
600.748	0.34
601.085	0.34
601.422	0.33
601.758	0.33
602.095	0.34
602.432	0.33
602.768	0.34
603.105	0.34
603.441	0.34
603.777	0.35
604.114	0.35
604.45	0.35
604.786	0.35
605.122	0.35
605.459	0.35
605.795	0.35
606.131	0.34
606.467	0.35
606.803	0.35
607.139	0.35
607.474	0.35
607.81	0.34
608.146	0.34
608.482	0.35
608.817	0.34
609.153	0.34
609.488	0.33
609.824	0.34
610.159	0.34
610.495	0.34
610.83	0.34
611.165	0.34
611.5	0.34
611.836	0.34
612.171	0.34
612.506	0.34
612.841	0.34
613.176	0.34
613.511	0.34
613.845	0.34
614.18	0.33
614.515	0.34
614.85	0.34
615.184	0.33
615.519	0.33
615.854	0.33
616.188	0.33
616.523	0.33
616.857	0.33
617.191	0.33
617.526	0.33
617.86	0.33
618.194	0.32
618.528	0.33
618.862	0.32
619.196	0.32
619.53	0.32
619.864	0.33
620.198	0.32
620.532	0.32
620.866	0.32
621.2	0.32
621.533	0.32
621.867	0.32
622.201	0.32
622.534	0.32
622.868	0.32
623.201	0.32
623.534	0.32
623.868	0.31
624.201	0.31
624.534	0.31
624.868	0.31
625.201	0.31
625.534	0.3
625.867	0.31
626.2	0.3
626.533	0.3
626.865	0.3
627.198	0.3
627.531	0.3
627.864	0.3
628.196	0.3
628.529	0.3
628.862	0.29
629.194	0.29
629.527	0.28
629.859	0.29
630.191	0.29
630.524	0.28
630.856	0.28
631.188	0.28
631.52	0.28
631.852	0.28
632.184	0.27
632.516	0.27
632.848	0.27
633.18	0.27
633.512	0.27
633.844	0.27
634.175	0.26
634.507	0.27
634.839	0.26
635.17	0.26
635.502	0.25
635.833	0.25
636.165	0.25
636.496	0.24
636.827	0.24
637.159	0.24
637.49	0.24
637.821	0.24
638.152	0.24
638.483	0.24
638.814	0.24
639.145	0.23
639.476	0.23
639.807	0.23
640.137	0.23
640.468	0.23
640.799	0.22
641.129	0.22
641.46	0.22
641.791	0.22
642.121	0.22
642.451	0.22
642.782	0.22
643.112	0.21
643.442	0.21
643.773	0.21
644.103	0.21
644.433	0.21
644.763	0.21
645.093	0.21
645.423	0.2
645.753	0.2
646.082	0.2
646.412	0.2
646.742	0.2
647.072	0.2
647.401	0.2
647.731	0.19
648.06	0.19
648.39	0.19
648.719	0.19
649.048	0.19
649.378	0.19
649.707	0.19
650.036	0.19
650.365	0.19
650.694	0.18
651.023	0.18
651.352	0.18
651.681	0.18
652.01	0.19
652.339	0.19
652.668	0.18
652.996	0.18
653.325	0.19
653.654	0.18
653.982	0.19
654.311	0.18
654.639	0.19
654.967	0.19
655.296	0.18
655.624	0.19
655.952	0.18
656.28	0.18
656.609	0.18
656.937	0.18
657.265	0.18
657.593	0.13
657.92	0.01
658.248	0
658.576	0
658.904	0.01
659.231	0.08
659.559	0.15
659.887	0.18
660.214	0.19
660.542	0.19
660.869	0.19
661.196	0.19
661.524	0.19
661.851	0.19
662.178	0.19
662.505	0.19
662.832	0.19
663.159	0.19
663.486	0.18
663.813	0.18
664.14	0.18
664.467	0.18
664.794	0.18
665.12	0.18
665.447	0.18
665.774	0.18
666.1	0.18
666.427	0.17
666.753	0.17
667.079	0.17
667.406	0.17
667.732	0.17
668.058	0.17
668.384	0.17
668.71	0.17
669.036	0.17
669.362	0.17
669.688	0.17
670.014	0.17
670.34	0.17
670.666	0.17
670.991	0.17
671.317	0.17
671.643	0.17
671.968	0.17
672.294	0.17
672.619	0.17
672.945	0.17
673.27	0.17
673.595	0.17
673.92	0.16
674.246	0.16
674.571	0.16
674.896	0.16
675.221	0.16
675.546	0.16
675.87	0.16
676.195	0.16
676.52	0.16
676.845	0.16
677.169	0.15
677.494	0.15
677.819	0.15
678.143	0.15
678.468	0.14
678.792	0.15
679.116	0.15
679.44	0.15
679.765	0.14
680.089	0.14
680.413	0.14
680.737	0.13
681.061	0.14
681.385	0.13
681.709	0.13
682.033	0.13
682.356	0.13
682.68	0.13
683.004	0.13
683.327	0.13
683.651	0.13
683.974	0.13
684.298	0.13
684.621	0.12
684.944	0.12
685.268	0.12
685.591	0.12
685.914	0.12
686.237	0.11
686.56	0.11
686.883	0.11
687.206	0.1
687.529	0.1
687.852	0.1
688.175	0.1
688.497	0.1
688.82	0.1
689.142	0.1
689.465	0.1
689.787	0.1
690.11	0.1
690.432	0.1
690.755	0.1
691.077	0.1
691.399	0.09
691.721	0.09
692.043	0.09
692.365	0.09
692.687	0.09
693.009	0.09
693.331	0.08
693.653	0.08
693.974	0.08
694.296	0.08
694.618	0.08
694.939	0.08
695.261	0.07
695.582	0.08
695.904	0.08
696.225	0.08
696.546	0.08
696.868	0.08
697.189	0.08
697.51	0.08
697.831	0.07
698.152	0.07
698.473	0.07
698.794	0.06
699.114	0.06
699.435	0.05
699.756	0.05
700.077	0.05
700.397	0.06
700.718	0.06
701.038	0.06
701.359	0.06
701.679	0.06
701.999	0.06
702.32	0.06
702.64	0.06
702.96	0.06
703.28	0.06
703.6	0.06
703.92	0.06
704.24	0.06
704.56	0.05
704.879	0.05
705.199	0.05
705.519	0.05
705.838	0.05
706.158	0.05
706.478	0.05
706.797	0.05
707.116	0.06
707.436	0.05
707.755	0.05
708.074	0.05
708.393	0.05
708.712	0.05
709.031	0.03
709.35	0.03
709.669	0.03
709.988	0.03
710.307	0.04
710.626	0.04
710.944	0.04
711.263	0.04
711.582	0.05
711.9	0.05
712.219	0.04
712.537	0.05
712.855	0.05
713.174	0.04
713.492	0.04
713.81	0.05
714.128	0.05
714.446	0.05
714.764	0.04
715.082	0.04
715.4	0.04
715.718	0.04
716.035	0.04
716.353	0.04
716.671	0.04
716.988	0.04
717.306	0.04
717.623	0.05
717.941	0.05
718.258	0.05
718.575	0.05
718.893	0.05
719.21	0.05
719.527	0.05
719.844	0.05
720.161	0.05
720.478	0.05
720.795	0.05
721.112	0.05
721.428	0.06
721.745	0.06
722.062	0.06
722.378	0.06
722.695	0.06
723.011	0.06
723.328	0.06
723.644	0.06
723.96	0.06
724.276	0.06
724.593	0.06
724.909	0.06
725.225	0.06
725.541	0.06
725.857	0.06
726.173	0.06
726.488	0.06
726.804	0.06
727.12	0.06
727.435	0.06
727.751	0.06
728.067	0.06
728.382	0.06
728.697	0.06
729.013	0.06
729.328	0.06
729.643	0.06
729.958	0.06
730.273	0.06
730.588	0.05
730.903	0.06
731.218	0.06
731.533	0.06
731.848	0.05
732.163	0.06
732.477	0.06
732.792	0.06
733.107	0.05
733.421	0.05
733.736	0.05
734.05	0.06
734.364	0.05
734.678	0.06
734.993	0.05
735.307	0.05
735.621	0.05
735.935	0.06
736.249	0.05
736.563	0.06
736.877	0.06
737.19	0.06
737.504	0.06
737.818	0.06
738.131	0.06
738.445	0.06
738.758	0.06
739.072	0.06
739.385	0.06
739.698	0.06
740.012	0.06
740.325	0.06
740.638	0.06
740.951	0.05
741.264	0.05
741.577	0.05
741.89	0.06
742.203	0.06
742.515	0.05
742.828	0.05
743.141	0.05
743.453	0.05
743.766	0.05
744.078	0.05
744.391	0.05
744.703	0.05
745.015	0.05
745.327	0.05
745.639	0.05
745.952	0.05
746.264	0.05
746.575	0.05
746.887	0.05
747.199	0.05
747.511	0.05
747.823	0.05
748.134	0.05
748.446	0.05
748.757	0.05
749.069	0.04
749.38	0.05
749.692	0.05
750.003	0.05
750.314	0.05
750.625	0.05
750.936	0.05
751.248	0.04
751.559	0.04
751.869	0.04
752.18	0.04
752.491	0.04
752.802	0.04
753.112	0.04
753.423	0.04
753.734	0.04
754.044	0.04
754.355	0.04
754.665	0.04
754.975	0.04
755.285	0.04
755.596	0.03
755.906	0.03
756.216	0.03
756.526	0.03
756.836	0.03
757.146	0.03
757.455	0.03
757.765	0.03
758.075	0.03
758.385	0.03
758.694	0.03
759.004	0.03
759.313	0.03
759.622	0.03
759.932	0.03
760.241	0.03
760.55	0.03
760.859	0.02
761.168	0.02
761.477	0.02
761.786	0.02
762.095	0.02
762.404	0.02
762.713	0.02
763.021	0.02
763.33	0.02
763.639	0.02
763.947	0.02
764.256	0.02
764.564	0.02
764.872	0.02
765.181	0.02
765.489	0.02
765.797	0.02
766.105	0.02
766.413	0.02
766.721	0.02
767.029	0.01
767.337	0.01
767.644	0.01
767.952	0.01
768.26	0.02
768.567	0.02
768.875	0.02
769.182	0.02
769.49	0.02
769.797	0.02
770.104	0.02
770.411	0.02
770.718	0.02
771.026	0.02
771.333	0.02
771.639	0.02
771.946	0.02
772.253	0.02
772.56	0.02
772.867	0.02
773.173	0.01
773.48	0.01
773.786	0.01
774.093	0.01
774.399	0.01
774.705	0.01
775.012	0.01
775.318	0.01
775.624	0.01
775.93	0.01
776.236	0.01
776.542	0.01
776.848	0.01
777.154	0.01
777.459	0.01
777.765	0.02
778.071	0.01
778.376	0.01
778.682	0.01
778.987	0.01
779.292	0.01
779.598	0.01
779.903	0.02
780.208	0.02
780.513	0.01
780.818	0.01
781.123	0.01
781.428	0.01
781.733	0.01
782.038	0.01
782.343	0.02
782.647	0.02
782.952	0.02
783.256	0.02
783.561	0.02
783.865	0.02
784.17	0.02
784.474	0.01
784.778	0.01
785.082	0.02
785.386	0.02
785.69	0.02
785.994	0.02
786.298	0.02
786.602	0.02
786.906	0.02
787.209	0.02
787.513	0.02
787.817	0.02
788.12	0.02
788.424	0.02
788.727	0.02
789.03	0.02
789.333	0.02
789.637	0.02
789.94	0.02
790.243	0.02
790.546	0.01
790.849	0.02
791.152	0.02
791.454	0.02
791.757	0.02
792.06	0.02
792.362	0.02
792.665	0.01
792.967	0.02
793.27	0.02
793.572	0.02
793.874	0.02
794.177	0.01
794.479	0.02
794.781	0.01
795.083	0.01
795.385	0.01
795.687	0.01
795.989	0.01
796.29	0.01
796.592	0.02
796.894	0.02
797.195	0.02
797.497	0.02
797.798	0.02
798.1	0.02
798.401	0.02
798.702	0.02
799.003	0.02
799.304	0.02
799.605	0.02
799.906	0.02
800.207	0.02
800.508	0.02
800.809	0.02
801.11	0.02
801.41	0.02
801.711	0.01
802.011	0.01
802.312	0.01
802.612	0.01
802.913	0.01
803.213	0.01
803.513	0.01
803.813	0.01
804.113	0.01
804.413	0.02
804.713	0.02
805.013	0.02
805.313	0.02
805.613	0.02
805.912	0.02
806.212	0.02
806.511	0.02
806.811	0.02
807.11	0.01
807.41	0.01
807.709	0.02
808.008	0.01
808.307	0.02
808.606	0.02
808.905	0.02
809.204	0.02
809.503	0.02
809.802	0.01
810.101	0.02
810.399	0.02
810.698	0.02
810.997	0.02
811.295	0.02
811.593	0.02
811.892	0.02
812.19	0.02
812.488	0.02
812.786	0.02
813.084	0.02
813.383	0.02
813.68	0.02
813.978	0.03
814.276	0.03
814.574	0.02
814.872	0.03
815.169	0.02
815.467	0.02
815.764	0.02
816.062	0.02
816.359	0.02
816.656	0.02
816.954	0.03
817.251	0.03
817.548	0.03
817.845	0.03
818.142	0.03
818.439	0.03
818.735	0.03
819.032	0.03
819.329	0.03
819.626	0.03
819.922	0.02
820.219	0.02
820.515	0.02
820.811	0.02
821.108	0.03
821.404	0.02
821.7	0.02
821.996	0.03
822.292	0.02
822.588	0.02
822.884	0.03
823.18	0.03
823.475	0.02
823.771	0.02
824.067	0.03
824.362	0.02
824.658	0.03
824.953	0.03
825.249	0.03
825.544	0.03
825.839	0.03
826.134	0.03
826.429	0.04
826.724	0.03
827.019	0.03
827.314	0.03
827.609	0.03
827.904	0.02
828.198	0.02
828.493	0.02
828.787	0.03
829.082	0.02
829.376	0.02
829.671	0.02
829.965	0.02
830.259	0.02
830.553	0.03
830.847	0.03
831.141	0.04
831.435	0.03
831.729	0.04
832.023	0.04
832.317	0.04
832.61	0.04
832.904	0.03
833.197	0.04
833.491	0.04
833.784	0.03
834.077	0.03
834.371	0.03
834.664	0.02
834.957	0.03
835.25	0.03
835.543	0.04
835.836	0.04
836.129	0.04
836.421	0.03
836.714	0.04
837.007	0.04
837.299	0.03
837.592	0.03
837.884	0.03
838.177	0.03
838.469	0.03
838.761	0.03
839.053	0.03
839.345	0.04
839.637	0.04
839.929	0.04
840.221	0.05
840.513	0.04
840.805	0.04
841.096	0.04
841.388	0.04
841.68	0.04
841.971	0.03
842.262	0.04
842.554	0.04
842.845	0.04
843.136	0.04
843.427	0.03
843.718	0.04
844.009	0.05
844.3	0.04
844.591	0.04
844.882	0.04
845.173	0.03
845.463	0.03
845.754	0.04
846.044	0.03
846.335	0.03
846.625	0.03
846.915	0.03
847.206	0.04
847.496	0.05
847.786	0.03
848.076	0.04
848.366	0.04
848.656	0.04
848.945	0.03
849.235	0.04
849.525	0.04
849.814	0.03
850.104	0.03
850.393	0.02
850.683	0.03
850.972	0.03
851.261	0.03
851.551	0.04
851.84	0.04
852.129	0.03
852.418	0.04
852.707	0.04
852.995	0.03
853.284	0.03
853.573	0.03
853.862	0.03
854.15	0.05
854.439	0.04
854.727	0.03
855.015	0.03
855.304	0.03
855.592	0.02
855.88	0.02
856.168	0.03
856.456	0.03
856.744	0.02
857.032	0.03
857.32	0.04
857.607	0.06
857.895	0.03
858.183	0.04
858.47	0.03
858.757	0.04
859.045	0.03
859.332	0.03
859.619	0.04
859.907	0.04
860.194	0.03
860.481	0.05
860.768	0.04
861.054	0.03
861.341	0.03
861.628	0.03
861.915	0.05
862.201	0.03
862.488	0.02
862.774	0.04
863.061	0.04
863.347	0.04
863.633	0.04
863.919	0.02
864.205	0.03
864.491	0.04
864.777	0.03
865.063	0.01
865.349	0.01
865.635	0.04
865.92	0.03
866.206	0.01
866.492	0.02
866.777	0.03
867.062	0.03
867.348	0.03
867.633	0.02
867.918	0.01
868.203	-0
868.488	0.02
868.773	0.03
869.058	0.03
869.343	0
869.628	-0
869.912	-0.02
870.197	0.04
870.482	0.01
870.766	0.01
871.05	0.02
871.335	-0
871.619	0.03
871.903	0.02
872.187	0.03
872.471	0.02
872.755	-0.01
873.039	0.01
873.323	0.02
873.607	-0
873.89	0
874.174	-0.04
874.458	-0.01
874.741	-0
875.024	0.05
875.308	-0
875.591	0.01
875.874	0.01
876.157	0.02
876.44	0.02
876.723	-0.02
877.006	-0.03
877.289	0.02
877.572	0.03
877.854	0.01
878.137	-0.01
878.42	-0.02
878.702	-0.03
878.984	0
879.267	-0
879.549	0.05
879.831	0.09
880.113	0.13
880.395	0
880.677	0.02
880.959	0.01
