Data from Rubpy_EV_1800_EDTA_Buffered_Absorbance_15-23-31-539.txt Node
Date: Tue Jun 30 15:23:31 BST 2026
User: fpm-admin
Spectrometer: OFX00224
Trigger mode: 0
Integration Time (sec): 7.000000E-2
Scans to average: 3
Nonlinearity correction enabled: false
Boxcar width: 0
Storing dark spectrum: false
XAxis mode: Wavelengths
Number of Pixels in Spectrum: 2136
>>>>>Begin Spectral Data<<<<<
154.91	-0
155.289	-0
155.669	-0.1
156.048	-0
156.428	-0.32
156.807	-0.15
157.186	0.7
157.566	-0
157.945	-0
158.325	-0
158.704	-0
159.083	-0.57
159.462	-0
159.842	-0.04
160.221	0.57
160.6	-0.58
160.979	-0.4
161.359	-0.06
161.738	-0.48
162.117	-0
162.496	-0.01
162.875	0.25
163.254	-0
163.633	-0
164.012	-0.41
164.391	0.05
164.77	0.34
165.149	0.04
165.528	-0.19
165.907	-1.03
166.286	-0.06
166.665	1.11
167.044	-1.19
167.423	-0
167.802	-0
168.181	0.43
168.559	-0
168.938	-0.46
169.317	-0.34
169.696	-0.02
170.074	-0
170.453	-0.33
170.832	-0.22
171.21	-0
171.589	-0.75
171.968	-0
172.346	-0.9
172.725	-0.21
173.103	-0.23
173.482	0.16
173.861	0.62
174.239	0.35
174.617	0.23
174.996	-0.14
175.374	0.2
175.753	-0.24
176.131	0.41
176.51	0.21
176.888	-0
177.266	-0
177.645	-0.19
178.023	0.72
178.401	-0.21
178.779	-0.15
179.158	0.04
179.536	0.28
179.914	-0
180.292	-0
180.67	-0.23
181.048	-0
181.427	-0
181.805	-0.21
182.183	-0.2
182.561	-0
182.939	-0
183.317	-0
183.695	0.48
184.073	0.12
184.451	0.14
184.829	-0.25
185.206	0.7
185.584	-0.12
185.962	-0
186.34	-0.43
186.718	-0
187.096	0.03
187.473	-0
187.851	-0.05
188.229	-0.09
188.607	0.02
188.984	0.1
189.362	0.12
189.74	0.02
190.117	0.04
190.495	0.07
190.872	0.02
191.25	0.01
191.627	0.04
192.005	0.01
192.382	0.04
192.76	0.04
193.137	0.12
193.515	0.04
193.892	0.18
194.269	0.08
194.647	0.08
195.024	0.06
195.401	0.14
195.779	0.04
196.156	0.12
196.533	0.06
196.91	0.17
197.288	0.13
197.665	0.16
198.042	0.1
198.419	0.08
198.796	0.2
199.173	0.22
199.55	0.06
199.927	0.12
200.304	0.14
200.681	0.08
201.058	0.08
201.435	0.08
201.812	0.07
202.189	0.17
202.566	-0.03
202.943	0.09
203.32	0.1
203.697	0.12
204.073	0.14
204.45	0.04
204.827	0.1
205.204	-0.02
205.58	0.06
205.957	-0.01
206.334	0.09
206.71	0.06
207.087	0.16
207.464	0.07
207.84	0.15
208.217	0.06
208.593	0.1
208.97	0.07
209.346	0.09
209.723	0.08
210.099	0.04
210.476	0.25
210.852	0.11
211.228	0.06
211.605	0.07
211.981	0.12
212.357	0.06
212.733	0.11
213.11	0.11
213.486	0.08
213.862	0.09
214.238	0.09
214.614	0.06
214.991	0.05
215.367	0.15
215.743	0.16
216.119	0.1
216.495	0.26
216.871	0.1
217.247	0.04
217.623	0.09
217.999	0.19
218.375	0.03
218.751	0.07
219.127	0.09
219.502	0.1
219.878	0.05
220.254	0.19
220.63	0.1
221.006	0.11
221.381	0.11
221.757	0.09
222.133	0.16
222.508	0.11
222.884	0.07
223.26	0.12
223.635	0.16
224.011	0.1
224.386	0.16
224.762	0.11
225.137	0.06
225.513	0.03
225.888	0.15
226.264	0.14
226.639	0.12
227.014	0.16
227.39	0.12
227.765	0.21
228.14	0.15
228.516	0.16
228.891	0.18
229.266	0.1
229.641	0.18
230.017	0.09
230.392	0.24
230.767	0.16
231.142	0.05
231.517	0.05
231.892	0.13
232.267	0.14
232.642	0.12
233.017	0.13
233.392	0.19
233.767	0.09
234.142	0.09
234.517	0.15
234.892	0.14
235.267	0.21
235.641	0.09
236.016	0.07
236.391	0.03
236.766	0.05
237.14	0.12
237.515	0.07
237.89	0.15
238.264	0.09
238.639	0.13
239.014	0.11
239.388	0.12
239.763	0.06
240.137	0.05
240.512	0.17
240.886	0.09
241.261	0.16
241.635	0.17
242.009	0.14
242.384	0.14
242.758	0.2
243.132	0.09
243.507	0.06
243.881	0.09
244.255	0.15
244.629	0.13
245.004	0.1
245.378	0.12
245.752	0.12
246.126	0.1
246.5	0.11
246.874	0.1
247.248	0.07
247.622	0.11
247.996	0.17
248.37	0.08
248.744	0.13
249.118	0.16
249.492	0.07
249.866	0.09
250.24	0.18
250.613	0.07
250.987	0.08
251.361	0.11
251.735	0.07
252.108	0.06
252.482	0.11
252.856	0.06
253.229	0.13
253.603	0.07
253.977	0.1
254.35	0.09
254.724	0.09
255.097	0.05
255.471	0.13
255.844	0.09
256.218	0.16
256.591	0.05
256.964	0.12
257.338	0.05
257.711	0.09
258.084	0.07
258.458	0.13
258.831	0.18
259.204	0.1
259.577	0.11
259.95	0.16
260.323	0.09
260.697	0.15
261.07	0.14
261.443	0.13
261.816	0.09
262.189	0.09
262.562	0.07
262.935	0.08
263.308	0.14
263.68	0.12
264.053	0.1
264.426	0.15
264.799	0.09
265.172	0.09
265.545	0.07
265.917	0.14
266.29	0.17
266.663	0.09
267.035	0.15
267.408	0.21
267.781	0.16
268.153	0.13
268.526	0.2
268.898	0.1
269.271	0.07
269.643	0.12
270.016	0.07
270.388	0.12
270.76	0.13
271.133	0.14
271.505	0.19
271.877	0.13
272.25	0.09
272.622	0.1
272.994	0.08
273.366	0.1
273.739	0.13
274.111	0.12
274.483	0.11
274.855	0.14
275.227	0.14
275.599	0.19
275.971	0.07
276.343	0.15
276.715	0.18
277.087	0.11
277.459	0.12
277.831	0.12
278.203	0.19
278.574	0.19
278.946	0.1
279.318	0.12
279.69	0.09
280.061	0.12
280.433	0.13
280.805	0.13
281.176	0.08
281.548	0.12
281.92	0.13
282.291	0.09
282.663	0.12
283.034	0.09
283.406	0.1
283.777	0.15
284.148	0.13
284.52	0.11
284.891	0.09
285.262	0.14
285.634	0.11
286.005	0.14
286.376	0.06
286.747	0.11
287.119	0.11
287.49	0.15
287.861	0.07
288.232	0.09
288.603	0.08
288.974	0.15
289.345	0.06
289.716	0.06
290.087	0.14
290.458	0.1
290.829	0.18
291.2	0.1
291.571	0.12
291.941	0.09
292.312	0.12
292.683	0.1
293.054	0.11
293.424	0.12
293.795	0.14
294.166	0.16
294.536	0.13
294.907	0.14
295.277	0.13
295.648	0.06
296.018	0.08
296.389	0.14
296.759	0.12
297.13	0.05
297.5	0.15
297.871	0.1
298.241	0.13
298.611	0.1
298.981	0.13
299.352	0.16
299.722	0.11
300.092	0.1
300.462	0.13
300.832	0.13
301.202	0.11
301.573	0.1
301.943	0.08
302.313	0.09
302.683	0.11
303.053	0.09
303.422	0.12
303.792	0.1
304.162	0.11
304.532	0.12
304.902	0.1
305.272	0.12
305.641	0.12
306.011	0.1
306.381	0.12
306.75	0.11
307.12	0.11
307.49	0.11
307.859	0.12
308.229	0.12
308.598	0.12
308.968	0.11
309.337	0.12
309.707	0.12
310.076	0.12
310.445	0.13
310.815	0.13
311.184	0.13
311.553	0.13
311.923	0.13
312.292	0.13
312.661	0.14
313.03	0.13
313.399	0.12
313.768	0.14
314.137	0.14
314.506	0.13
314.875	0.13
315.244	0.13
315.613	0.13
315.982	0.13
316.351	0.13
316.72	0.13
317.089	0.13
317.458	0.12
317.826	0.13
318.195	0.13
318.564	0.12
318.933	0.13
319.301	0.12
319.67	0.13
320.038	0.12
320.407	0.12
320.775	0.12
321.144	0.12
321.512	0.12
321.881	0.11
322.249	0.12
322.618	0.12
322.986	0.11
323.354	0.11
323.723	0.11
324.091	0.11
324.459	0.11
324.827	0.11
325.195	0.11
325.564	0.1
325.932	0.1
326.3	0.11
326.668	0.11
327.036	0.1
327.404	0.1
327.772	0.11
328.14	0.1
328.508	0.1
328.875	0.11
329.243	0.1
329.611	0.1
329.979	0.1
330.346	0.11
330.714	0.1
331.082	0.11
331.449	0.11
331.817	0.11
332.185	0.1
332.552	0.11
332.92	0.11
333.287	0.12
333.655	0.11
334.022	0.12
334.389	0.12
334.757	0.12
335.124	0.12
335.491	0.12
335.859	0.12
336.226	0.13
336.593	0.12
336.96	0.13
337.327	0.13
337.695	0.13
338.062	0.13
338.429	0.13
338.796	0.14
339.163	0.14
339.53	0.13
339.897	0.14
340.263	0.14
340.63	0.14
340.997	0.15
341.364	0.15
341.731	0.15
342.097	0.16
342.464	0.16
342.831	0.16
343.197	0.16
343.564	0.17
343.931	0.16
344.297	0.17
344.664	0.17
345.03	0.17
345.396	0.18
345.763	0.18
346.129	0.18
346.496	0.19
346.862	0.19
347.228	0.19
347.594	0.19
347.961	0.2
348.327	0.2
348.693	0.2
349.059	0.21
349.425	0.22
349.791	0.21
350.157	0.21
350.523	0.22
350.889	0.22
351.255	0.23
351.621	0.23
351.987	0.24
352.353	0.24
352.719	0.24
353.084	0.25
353.45	0.26
353.816	0.26
354.181	0.27
354.547	0.27
354.913	0.28
355.278	0.28
355.644	0.29
356.009	0.3
356.375	0.3
356.74	0.3
357.106	0.31
357.471	0.32
357.836	0.33
358.202	0.33
358.567	0.34
358.932	0.34
359.297	0.36
359.663	0.36
360.028	0.37
360.393	0.37
360.758	0.37
361.123	0.37
361.488	0.38
361.853	0.38
362.218	0.39
362.583	0.4
362.948	0.4
363.312	0.4
363.677	0.41
364.042	0.42
364.407	0.43
364.772	0.43
365.136	0.44
365.501	0.45
365.865	0.45
366.23	0.47
366.595	0.48
366.959	0.49
367.324	0.49
367.688	0.5
368.052	0.51
368.417	0.52
368.781	0.52
369.145	0.53
369.51	0.55
369.874	0.54
370.238	0.54
370.602	0.54
370.967	0.54
371.331	0.54
371.695	0.54
372.059	0.53
372.423	0.53
372.787	0.53
373.151	0.52
373.515	0.52
373.878	0.52
374.242	0.52
374.606	0.52
374.97	0.52
375.334	0.52
375.697	0.53
376.061	0.53
376.425	0.54
376.788	0.54
377.152	0.54
377.515	0.54
377.879	0.55
378.242	0.56
378.606	0.57
378.969	0.57
379.333	0.57
379.696	0.58
380.059	0.6
380.422	0.6
380.786	0.61
381.149	0.62
381.512	0.64
381.875	0.65
382.238	0.67
382.601	0.68
382.964	0.7
383.327	0.72
383.69	0.74
384.053	0.75
384.416	0.77
384.779	0.78
385.142	0.81
385.504	0.82
385.867	0.83
386.23	0.84
386.593	0.85
386.955	0.85
387.318	0.86
387.68	0.84
388.043	0.86
388.405	0.84
388.768	0.83
389.13	0.83
389.493	0.82
389.855	0.81
390.217	0.81
390.58	0.81
390.942	0.82
391.304	0.82
391.666	0.83
392.028	0.83
392.391	0.86
392.753	0.88
393.115	0.9
393.477	0.94
393.839	0.97
394.201	1.01
394.563	1.05
394.924	1.09
395.286	1.12
395.648	1.18
396.01	1.19
396.371	1.23
396.733	1.26
397.095	1.27
397.456	1.28
397.818	1.27
398.18	1.27
398.541	1.26
398.903	1.23
399.264	1.2
399.625	1.17
399.987	1.11
400.348	1.08
400.709	1.03
401.071	0.98
401.432	0.92
401.793	0.86
402.154	0.81
402.515	0.75
402.876	0.7
403.238	0.65
403.599	0.6
403.96	0.56
404.32	0.52
404.681	0.48
405.042	0.45
405.403	0.42
405.764	0.39
406.125	0.36
406.485	0.34
406.846	0.31
407.207	0.3
407.567	0.27
407.928	0.26
408.288	0.25
408.649	0.23
409.009	0.22
409.37	0.21
409.73	0.2
410.091	0.19
410.451	0.18
410.811	0.17
411.171	0.16
411.532	0.16
411.892	0.15
412.252	0.14
412.612	0.14
412.972	0.13
413.332	0.13
413.692	0.12
414.052	0.12
414.412	0.12
414.772	0.12
415.132	0.11
415.492	0.1
415.851	0.1
416.211	0.1
416.571	0.1
416.931	0.09
417.29	0.09
417.65	0.09
418.009	0.08
418.369	0.08
418.728	0.08
419.088	0.09
419.447	0.08
419.807	0.07
420.166	0.08
420.525	0.08
420.884	0.07
421.244	0.08
421.603	0.07
421.962	0.07
422.321	0.07
422.68	0.07
423.039	0.07
423.398	0.07
423.757	0.07
424.116	0.06
424.475	0.06
424.834	0.06
425.193	0.06
425.551	0.06
425.91	0.06
426.269	0.06
426.628	0.06
426.986	0.06
427.345	0.06
427.703	0.06
428.062	0.06
428.42	0.06
428.779	0.05
429.137	0.06
429.496	0.05
429.854	0.05
430.212	0.06
430.57	0.05
430.929	0.05
431.287	0.04
431.645	0.05
432.003	0.04
432.361	0.05
432.719	0.05
433.077	0.05
433.435	0.04
433.793	0.05
434.151	0.04
434.509	0.05
434.866	0.04
435.224	0.05
435.582	0.04
435.94	0.05
436.297	0.05
436.655	0.04
437.012	0.04
437.37	0.04
437.727	0.04
438.085	0.04
438.442	0.04
438.8	0.04
439.157	0.04
439.514	0.04
439.872	0.04
440.229	0.04
440.586	0.04
440.943	0.04
441.3	0.03
441.657	0.03
442.014	0.04
442.371	0.03
442.728	0.04
443.085	0.03
443.442	0.04
443.799	0.03
444.156	0.03
444.513	0.04
444.869	0.04
445.226	0.03
445.583	0.03
445.939	0.03
446.296	0.03
446.652	0.03
447.009	0.03
447.365	0.03
447.722	0.03
448.078	0.03
448.434	0.03
448.791	0.02
449.147	0.02
449.503	0.03
449.859	0.03
450.215	0.02
450.571	0.02
450.928	0.02
451.284	0.02
451.64	0.02
451.995	0.02
452.351	0.02
452.707	0.02
453.063	0.02
453.419	0.01
453.775	0.01
454.13	0.01
454.486	0.01
454.842	0.01
455.197	0.01
455.553	0.01
455.908	0.01
456.264	0.01
456.619	-0
456.975	0
457.33	0
457.685	-0
458.04	-0
458.396	-0
458.751	0
459.106	-0.01
459.461	-0.01
459.816	-0.01
460.171	-0.01
460.526	-0.01
460.881	-0.02
461.236	-0.02
461.591	-0.02
461.946	-0.02
462.301	-0.03
462.655	-0.03
463.01	-0.03
463.365	-0.03
463.719	-0.04
464.074	-0.04
464.428	-0.04
464.783	-0.05
465.137	-0.04
465.492	-0.05
465.846	-0.05
466.201	-0.04
466.555	-0.05
466.909	-0.05
467.263	-0.05
467.618	-0.04
467.972	-0.04
468.326	-0.04
468.68	-0.05
469.034	-0.05
469.388	-0.04
469.742	-0.05
470.096	-0.05
470.45	-0.05
470.804	-0.05
471.157	-0.05
471.511	-0.05
471.865	-0.04
472.218	-0.04
472.572	-0.04
472.926	-0.04
473.279	-0.04
473.633	-0.04
473.986	-0.03
474.34	-0.03
474.693	-0.03
475.046	-0.02
475.4	-0.02
475.753	-0.01
476.106	-0.01
476.459	-0.01
476.812	-0
477.165	-0
477.519	-0
477.872	0
478.224	0
478.577	0
478.93	0.01
479.283	0.01
479.636	0.01
479.989	0.02
480.341	0.01
480.694	0.02
481.047	0.01
481.399	0.02
481.752	0.02
482.104	0.02
482.457	0.03
482.809	0.03
483.162	0.03
483.514	0.03
483.866	0.03
484.219	0.03
484.571	0.04
484.923	0.04
485.275	0.04
485.627	0.04
485.979	0.04
486.331	0.05
486.683	0.04
487.035	0.05
487.387	0.04
487.739	0.05
488.091	0.05
488.443	0.05
488.794	0.05
489.146	0.05
489.498	0.05
489.849	0.05
490.201	0.05
490.552	0.05
490.904	0.06
491.255	0.05
491.607	0.05
491.958	0.06
492.309	0.06
492.661	0.06
493.012	0.06
493.363	0.06
493.714	0.06
494.065	0.06
494.416	0.06
494.767	0.06
495.118	0.07
495.469	0.07
495.82	0.07
496.171	0.07
496.522	0.07
496.872	0.07
497.223	0.08
497.574	0.08
497.924	0.08
498.275	0.08
498.626	0.08
498.976	0.08
499.327	0.08
499.677	0.08
500.027	0.08
500.378	0.08
500.728	0.08
501.078	0.09
501.428	0.08
501.779	0.08
502.129	0.09
502.479	0.09
502.829	0.09
503.179	0.09
503.529	0.1
503.879	0.1
504.229	0.1
504.578	0.09
504.928	0.09
505.278	0.1
505.628	0.1
505.977	0.1
506.327	0.1
506.676	0.11
507.026	0.11
507.375	0.11
507.725	0.11
508.074	0.11
508.424	0.11
508.773	0.11
509.122	0.11
509.471	0.11
509.82	0.11
510.17	0.12
510.519	0.12
510.868	0.12
511.217	0.12
511.566	0.12
511.915	0.12
512.263	0.12
512.612	0.12
512.961	0.12
513.31	0.12
513.659	0.13
514.007	0.13
514.356	0.13
514.704	0.13
515.053	0.13
515.401	0.14
515.75	0.13
516.098	0.14
516.447	0.14
516.795	0.14
517.143	0.14
517.491	0.14
517.839	0.14
518.188	0.14
518.536	0.14
518.884	0.14
519.232	0.14
519.58	0.15
519.928	0.15
520.275	0.15
520.623	0.15
520.971	0.15
521.319	0.16
521.666	0.15
522.014	0.16
522.362	0.16
522.709	0.16
523.057	0.16
523.404	0.16
523.752	0.16
524.099	0.16
524.446	0.16
524.794	0.16
525.141	0.16
525.488	0.17
525.835	0.17
526.182	0.18
526.529	0.17
526.876	0.18
527.223	0.17
527.57	0.17
527.917	0.18
528.264	0.18
528.611	0.18
528.958	0.18
529.304	0.18
529.651	0.18
529.998	0.18
530.344	0.19
530.691	0.19
531.037	0.19
531.384	0.19
531.73	0.19
532.076	0.2
532.423	0.19
532.769	0.19
533.115	0.2
533.461	0.2
533.807	0.2
534.154	0.2
534.5	0.2
534.846	0.2
535.192	0.21
535.537	0.21
535.883	0.21
536.229	0.21
536.575	0.21
536.921	0.21
537.266	0.21
537.612	0.21
537.957	0.22
538.303	0.21
538.649	0.22
538.994	0.22
539.339	0.22
539.685	0.23
540.03	0.23
540.375	0.23
540.721	0.23
541.066	0.23
541.411	0.24
541.756	0.24
542.101	0.24
542.446	0.24
542.791	0.24
543.136	0.24
543.481	0.24
543.825	0.25
544.17	0.25
544.515	0.25
544.86	0.25
545.204	0.25
545.549	0.25
545.893	0.25
546.238	0.26
546.582	0.26
546.927	0.26
547.271	0.26
547.615	0.27
547.96	0.27
548.304	0.27
548.648	0.27
548.992	0.27
549.336	0.27
549.68	0.27
550.024	0.27
550.368	0.28
550.712	0.27
551.056	0.28
551.4	0.28
551.743	0.28
552.087	0.28
552.431	0.29
552.774	0.29
553.118	0.29
553.462	0.29
553.805	0.29
554.148	0.29
554.492	0.29
554.835	0.29
555.178	0.29
555.522	0.3
555.865	0.3
556.208	0.3
556.551	0.3
556.894	0.3
557.237	0.3
557.58	0.3
557.923	0.3
558.266	0.3
558.609	0.3
558.952	0.3
559.294	0.31
559.637	0.3
559.98	0.31
560.322	0.31
560.665	0.31
561.007	0.31
561.35	0.31
561.692	0.31
562.034	0.31
562.377	0.31
562.719	0.31
563.061	0.31
563.403	0.32
563.745	0.31
564.088	0.31
564.43	0.32
564.772	0.32
565.113	0.32
565.455	0.32
565.797	0.32
566.139	0.32
566.481	0.32
566.822	0.32
567.164	0.32
567.506	0.32
567.847	0.33
568.189	0.32
568.53	0.33
568.872	0.32
569.213	0.33
569.554	0.33
569.895	0.32
570.237	0.33
570.578	0.32
570.919	0.32
571.26	0.32
571.601	0.32
571.942	0.32
572.283	0.32
572.624	0.32
572.965	0.32
573.306	0.32
573.646	0.32
573.987	0.32
574.328	0.32
574.668	0.33
575.009	0.32
575.349	0.32
575.69	0.32
576.03	0.32
576.37	0.32
576.711	0.31
577.051	0.31
577.391	0.32
577.731	0.32
578.072	0.32
578.412	0.32
578.752	0.32
579.092	0.32
579.431	0.31
579.771	0.29
580.111	0.27
580.451	0.27
580.791	0.3
581.13	0.32
581.47	0.32
581.81	0.32
582.149	0.32
582.489	0.32
582.828	0.32
583.167	0.29
583.507	0.25
583.846	0.23
584.185	0.25
584.525	0.27
584.864	0.3
585.203	0.32
585.542	0.33
585.881	0.33
586.22	0.34
586.559	0.33
586.898	0.32
587.236	0.31
587.575	0.3
587.914	0.31
588.252	0.33
588.591	0.34
588.93	0.34
589.268	0.34
589.607	0.34
589.945	0.34
590.283	0.34
590.622	0.34
590.96	0.35
591.298	0.36
591.636	0.36
591.974	0.36
592.313	0.36
592.651	0.37
592.989	0.37
593.326	0.37
593.664	0.37
594.002	0.37
594.34	0.37
594.678	0.37
595.015	0.36
595.353	0.35
595.691	0.36
596.028	0.37
596.366	0.37
596.703	0.38
597.04	0.38
597.378	0.38
597.715	0.39
598.052	0.39
598.389	0.39
598.726	0.39
599.064	0.39
599.401	0.39
599.738	0.39
600.074	0.39
600.411	0.4
600.748	0.39
601.085	0.39
601.422	0.38
601.758	0.38
602.095	0.38
602.432	0.39
602.768	0.39
603.105	0.39
603.441	0.4
603.777	0.4
604.114	0.4
604.45	0.4
604.786	0.4
605.122	0.4
605.459	0.39
605.795	0.4
606.131	0.39
606.467	0.4
606.803	0.4
607.139	0.4
607.474	0.4
607.81	0.39
608.146	0.39
608.482	0.39
608.817	0.39
609.153	0.39
609.488	0.39
609.824	0.38
610.159	0.39
610.495	0.39
610.83	0.39
611.165	0.39
611.5	0.39
611.836	0.39
612.171	0.39
612.506	0.39
612.841	0.39
613.176	0.39
613.511	0.39
613.845	0.39
614.18	0.38
614.515	0.39
614.85	0.38
615.184	0.38
615.519	0.38
615.854	0.38
616.188	0.38
616.523	0.37
616.857	0.37
617.191	0.37
617.526	0.37
617.86	0.37
618.194	0.37
618.528	0.37
618.862	0.37
619.196	0.37
619.53	0.37
619.864	0.37
620.198	0.37
620.532	0.36
620.866	0.37
621.2	0.37
621.533	0.36
621.867	0.37
622.201	0.36
622.534	0.36
622.868	0.36
623.201	0.37
623.534	0.36
623.868	0.36
624.201	0.35
624.534	0.35
624.868	0.35
625.201	0.35
625.534	0.35
625.867	0.35
626.2	0.35
626.533	0.34
626.865	0.34
627.198	0.34
627.531	0.34
627.864	0.34
628.196	0.34
628.529	0.34
628.862	0.33
629.194	0.33
629.527	0.32
629.859	0.33
630.191	0.32
630.524	0.33
630.856	0.32
631.188	0.32
631.52	0.32
631.852	0.31
632.184	0.31
632.516	0.31
632.848	0.31
633.18	0.31
633.512	0.31
633.844	0.3
634.175	0.3
634.507	0.3
634.839	0.3
635.17	0.29
635.502	0.29
635.833	0.29
636.165	0.28
636.496	0.28
636.827	0.28
637.159	0.28
637.49	0.27
637.821	0.27
638.152	0.27
638.483	0.27
638.814	0.26
639.145	0.26
639.476	0.26
639.807	0.26
640.137	0.25
640.468	0.25
640.799	0.25
641.129	0.25
641.46	0.25
641.791	0.25
642.121	0.25
642.451	0.25
642.782	0.25
643.112	0.24
643.442	0.24
643.773	0.24
644.103	0.24
644.433	0.24
644.763	0.23
645.093	0.23
645.423	0.23
645.753	0.23
646.082	0.23
646.412	0.23
646.742	0.23
647.072	0.22
647.401	0.22
647.731	0.22
648.06	0.22
648.39	0.22
648.719	0.22
649.048	0.22
649.378	0.21
649.707	0.22
650.036	0.21
650.365	0.21
650.694	0.21
651.023	0.21
651.352	0.21
651.681	0.21
652.01	0.21
652.339	0.21
652.668	0.21
652.996	0.21
653.325	0.21
653.654	0.21
653.982	0.21
654.311	0.21
654.639	0.22
654.967	0.21
655.296	0.21
655.624	0.21
655.952	0.21
656.28	0.21
656.609	0.21
656.937	0.21
657.265	0.21
657.593	0.16
657.92	0.03
658.248	0
658.576	0
658.904	0.03
659.231	0.1
659.559	0.18
659.887	0.2
660.214	0.21
660.542	0.21
660.869	0.21
661.196	0.21
661.524	0.21
661.851	0.21
662.178	0.21
662.505	0.21
662.832	0.21
663.159	0.21
663.486	0.21
663.813	0.21
664.14	0.21
664.467	0.21
664.794	0.21
665.12	0.21
665.447	0.2
665.774	0.2
666.1	0.2
666.427	0.2
666.753	0.2
667.079	0.2
667.406	0.19
667.732	0.19
668.058	0.19
668.384	0.19
668.71	0.2
669.036	0.2
669.362	0.2
669.688	0.2
670.014	0.19
670.34	0.19
670.666	0.19
670.991	0.19
671.317	0.19
671.643	0.19
671.968	0.19
672.294	0.19
672.619	0.19
672.945	0.19
673.27	0.19
673.595	0.19
673.92	0.19
674.246	0.18
674.571	0.18
674.896	0.18
675.221	0.18
675.546	0.18
675.87	0.18
676.195	0.18
676.52	0.18
676.845	0.18
677.169	0.17
677.494	0.17
677.819	0.17
678.143	0.17
678.468	0.17
678.792	0.16
679.116	0.17
679.44	0.16
679.765	0.16
680.089	0.16
680.413	0.16
680.737	0.15
681.061	0.15
681.385	0.15
681.709	0.15
682.033	0.15
682.356	0.15
682.68	0.15
683.004	0.15
683.327	0.15
683.651	0.14
683.974	0.14
684.298	0.14
684.621	0.14
684.944	0.13
685.268	0.13
685.591	0.13
685.914	0.13
686.237	0.12
686.56	0.12
686.883	0.12
687.206	0.12
687.529	0.12
687.852	0.11
688.175	0.11
688.497	0.12
688.82	0.11
689.142	0.11
689.465	0.11
689.787	0.11
690.11	0.11
690.432	0.11
690.755	0.11
691.077	0.11
691.399	0.11
691.721	0.1
692.043	0.1
692.365	0.1
692.687	0.1
693.009	0.1
693.331	0.1
693.653	0.09
693.974	0.09
694.296	0.09
694.618	0.09
694.939	0.09
695.261	0.08
695.582	0.09
695.904	0.09
696.225	0.09
696.546	0.09
696.868	0.09
697.189	0.09
697.51	0.09
697.831	0.08
698.152	0.08
698.473	0.08
698.794	0.07
699.114	0.07
699.435	0.06
699.756	0.06
700.077	0.06
700.397	0.07
700.718	0.07
701.038	0.07
701.359	0.07
701.679	0.07
701.999	0.07
702.32	0.07
702.64	0.07
702.96	0.07
703.28	0.07
703.6	0.07
703.92	0.07
704.24	0.06
704.56	0.06
704.879	0.06
705.199	0.06
705.519	0.06
705.838	0.06
706.158	0.06
706.478	0.06
706.797	0.06
707.116	0.06
707.436	0.06
707.755	0.06
708.074	0.06
708.393	0.06
708.712	0.05
709.031	0.04
709.35	0.03
709.669	0.04
709.988	0.04
710.307	0.04
710.626	0.04
710.944	0.05
711.263	0.05
711.582	0.06
711.9	0.06
712.219	0.05
712.537	0.05
712.855	0.05
713.174	0.05
713.492	0.05
713.81	0.05
714.128	0.05
714.446	0.05
714.764	0.05
715.082	0.05
715.4	0.05
715.718	0.05
716.035	0.05
716.353	0.05
716.671	0.05
716.988	0.05
717.306	0.04
717.623	0.05
717.941	0.05
718.258	0.06
718.575	0.06
718.893	0.06
719.21	0.06
719.527	0.06
719.844	0.06
720.161	0.06
720.478	0.06
720.795	0.06
721.112	0.06
721.428	0.06
721.745	0.06
722.062	0.06
722.378	0.07
722.695	0.07
723.011	0.07
723.328	0.06
723.644	0.07
723.96	0.07
724.276	0.07
724.593	0.07
724.909	0.07
725.225	0.06
725.541	0.07
725.857	0.07
726.173	0.07
726.488	0.07
726.804	0.07
727.12	0.07
727.435	0.07
727.751	0.07
728.067	0.07
728.382	0.07
728.697	0.07
729.013	0.07
729.328	0.07
729.643	0.07
729.958	0.06
730.273	0.06
730.588	0.06
730.903	0.07
731.218	0.06
731.533	0.07
731.848	0.06
732.163	0.06
732.477	0.06
732.792	0.06
733.107	0.06
733.421	0.06
733.736	0.06
734.05	0.06
734.364	0.06
734.678	0.06
734.993	0.06
735.307	0.06
735.621	0.06
735.935	0.06
736.249	0.06
736.563	0.06
736.877	0.07
737.19	0.07
737.504	0.07
737.818	0.07
738.131	0.07
738.445	0.07
738.758	0.07
739.072	0.06
739.385	0.07
739.698	0.06
740.012	0.07
740.325	0.06
740.638	0.06
740.951	0.06
741.264	0.06
741.577	0.06
741.89	0.06
742.203	0.06
742.515	0.06
742.828	0.06
743.141	0.06
743.453	0.06
743.766	0.06
744.078	0.06
744.391	0.06
744.703	0.06
745.015	0.06
745.327	0.06
745.639	0.06
745.952	0.06
746.264	0.06
746.575	0.06
746.887	0.06
747.199	0.06
747.511	0.06
747.823	0.06
748.134	0.05
748.446	0.05
748.757	0.05
749.069	0.05
749.38	0.05
749.692	0.06
750.003	0.05
750.314	0.05
750.625	0.06
750.936	0.05
751.248	0.05
751.559	0.05
751.869	0.05
752.18	0.05
752.491	0.04
752.802	0.04
753.112	0.05
753.423	0.04
753.734	0.05
754.044	0.04
754.355	0.04
754.665	0.04
754.975	0.04
755.285	0.04
755.596	0.04
755.906	0.03
756.216	0.03
756.526	0.04
756.836	0.04
757.146	0.04
757.455	0.04
757.765	0.04
758.075	0.03
758.385	0.04
758.694	0.03
759.004	0.04
759.313	0.03
759.622	0.03
759.932	0.03
760.241	0.03
760.55	0.03
760.859	0.03
761.168	0.03
761.477	0.02
761.786	0.02
762.095	0.02
762.404	0.02
762.713	0.02
763.021	0.02
763.33	0.02
763.639	0.02
763.947	0.02
764.256	0.02
764.564	0.02
764.872	0.02
765.181	0.02
765.489	0.02
765.797	0.02
766.105	0.02
766.413	0.02
766.721	0.02
767.029	0.02
767.337	0.02
767.644	0.02
767.952	0.02
768.26	0.02
768.567	0.02
768.875	0.02
769.182	0.02
769.49	0.02
769.797	0.02
770.104	0.02
770.411	0.02
770.718	0.02
771.026	0.03
771.333	0.02
771.639	0.02
771.946	0.02
772.253	0.02
772.56	0.02
772.867	0.02
773.173	0.02
773.48	0.02
773.786	0.02
774.093	0.01
774.399	0.01
774.705	0.01
775.012	0.01
775.318	0.01
775.624	0.01
775.93	0.01
776.236	0.01
776.542	0.01
776.848	0.01
777.154	0.01
777.459	0.01
777.765	0.02
778.071	0.01
778.376	0.02
778.682	0.02
778.987	0.01
779.292	0.01
779.598	0.02
779.903	0.02
780.208	0.02
780.513	0.02
780.818	0.01
781.123	0.01
781.428	0.01
781.733	0.02
782.038	0.01
782.343	0.02
782.647	0.02
782.952	0.02
783.256	0.02
783.561	0.02
783.865	0.02
784.17	0.02
784.474	0.02
784.778	0.02
785.082	0.02
785.386	0.02
785.69	0.02
785.994	0.02
786.298	0.02
786.602	0.02
786.906	0.02
787.209	0.02
787.513	0.02
787.817	0.02
788.12	0.02
788.424	0.02
788.727	0.02
789.03	0.02
789.333	0.02
789.637	0.02
789.94	0.02
790.243	0.02
790.546	0.02
790.849	0.02
791.152	0.02
791.454	0.02
791.757	0.02
792.06	0.02
792.362	0.02
792.665	0.02
792.967	0.02
793.27	0.02
793.572	0.02
793.874	0.02
794.177	0.02
794.479	0.02
794.781	0.01
795.083	0.01
795.385	0.01
795.687	0.01
795.989	0.01
796.29	0.01
796.592	0.02
796.894	0.02
797.195	0.02
797.497	0.02
797.798	0.02
798.1	0.02
798.401	0.02
798.702	0.03
799.003	0.02
799.304	0.02
799.605	0.02
799.906	0.03
800.207	0.02
800.508	0.02
800.809	0.02
801.11	0.02
801.41	0.01
801.711	0.01
802.011	0.01
802.312	0.01
802.612	0.01
802.913	0.01
803.213	0.01
803.513	0.01
803.813	0.01
804.113	0.01
804.413	0.02
804.713	0.02
805.013	0.02
805.313	0.02
805.613	0.02
805.912	0.02
806.212	0.02
806.511	0.02
806.811	0.02
807.11	0.02
807.41	0.02
807.709	0.02
808.008	0.01
808.307	0.02
808.606	0.02
808.905	0.02
809.204	0.02
809.503	0.02
809.802	0.02
810.101	0.02
810.399	0.02
810.698	0.02
810.997	0.02
811.295	0.02
811.593	0.02
811.892	0.02
812.19	0.02
812.488	0.02
812.786	0.02
813.084	0.02
813.383	0.02
813.68	0.03
813.978	0.02
814.276	0.03
814.574	0.02
814.872	0.03
815.169	0.02
815.467	0.03
815.764	0.02
816.062	0.03
816.359	0.03
816.656	0.03
816.954	0.03
817.251	0.03
817.548	0.03
817.845	0.03
818.142	0.03
818.439	0.03
818.735	0.03
819.032	0.03
819.329	0.03
819.626	0.03
819.922	0.03
820.219	0.03
820.515	0.03
820.811	0.02
821.108	0.02
821.404	0.02
821.7	0.02
821.996	0.03
822.292	0.02
822.588	0.02
822.884	0.03
823.18	0.03
823.475	0.03
823.771	0.03
824.067	0.03
824.362	0.02
824.658	0.03
824.953	0.04
825.249	0.03
825.544	0.03
825.839	0.03
826.134	0.03
826.429	0.04
826.724	0.03
827.019	0.03
827.314	0.03
827.609	0.03
827.904	0.02
828.198	0.03
828.493	0.02
828.787	0.03
829.082	0.02
829.376	0.03
829.671	0.02
829.965	0.03
830.259	0.03
830.553	0.03
830.847	0.03
831.141	0.04
831.435	0.03
831.729	0.03
832.023	0.04
832.317	0.04
832.61	0.03
832.904	0.04
833.197	0.03
833.491	0.04
833.784	0.04
834.077	0.03
834.371	0.03
834.664	0.03
834.957	0.04
835.25	0.03
835.543	0.04
835.836	0.04
836.129	0.04
836.421	0.03
836.714	0.04
837.007	0.03
837.299	0.04
837.592	0.04
837.884	0.04
838.177	0.04
838.469	0.03
838.761	0.03
839.053	0.03
839.345	0.04
839.637	0.04
839.929	0.04
840.221	0.05
840.513	0.04
840.805	0.04
841.096	0.04
841.388	0.05
841.68	0.04
841.971	0.04
842.262	0.04
842.554	0.04
842.845	0.04
843.136	0.04
843.427	0.04
843.718	0.04
844.009	0.04
844.3	0.04
844.591	0.04
844.882	0.03
845.173	0.04
845.463	0.04
845.754	0.04
846.044	0.03
846.335	0.04
846.625	0.04
846.915	0.03
847.206	0.03
847.496	0.06
847.786	0.04
848.076	0.04
848.366	0.04
848.656	0.04
848.945	0.04
849.235	0.05
849.525	0.04
849.814	0.03
850.104	0.02
850.393	0.03
850.683	0.04
850.972	0.04
851.261	0.03
851.551	0.04
851.84	0.03
852.129	0.04
852.418	0.04
852.707	0.05
852.995	0.03
853.284	0.04
853.573	0.03
853.862	0.04
854.15	0.04
854.439	0.04
854.727	0.04
855.015	0.04
855.304	0.04
855.592	0.03
855.88	0.02
856.168	0.02
856.456	0.03
856.744	0.04
857.032	0.04
857.32	0.04
857.607	0.05
857.895	0.03
858.183	0.05
858.47	0.03
858.757	0.04
859.045	0.04
859.332	0.03
859.619	0.03
859.907	0.03
860.194	0.04
860.481	0.05
860.768	0.04
861.054	0.05
861.341	0.04
861.628	0.03
861.915	0.05
862.201	0.03
862.488	0.04
862.774	0.05
863.061	0.04
863.347	0.04
863.633	0.02
863.919	0.01
864.205	0.04
864.491	0.02
864.777	0.03
865.063	0.01
865.349	0.04
865.635	0.04
865.92	0.03
866.206	0.03
866.492	0
866.777	0.04
867.062	0.04
867.348	0.05
867.633	0.01
867.918	-0
868.203	0.01
868.488	0.04
868.773	0
869.058	0.02
869.343	-0.01
869.628	0.01
869.912	0.01
870.197	0.01
870.482	0.01
870.766	-0.01
871.05	0.02
871.335	0.02
871.619	0.03
871.903	0.01
872.187	0.04
872.471	0.07
872.755	0.01
873.039	0.01
873.323	0.04
873.607	0.02
873.89	0.01
874.174	0.01
874.458	-0
874.741	0.01
875.024	0.01
875.308	0.02
875.591	-0.05
875.874	-0.03
876.157	-0
876.44	-0.03
876.723	0.01
877.006	-0.01
877.289	0.02
877.572	0
877.854	-0.01
878.137	0.05
878.42	0
878.702	0.02
878.984	-0.02
879.267	-0.07
879.549	0.02
879.831	-0.01
880.113	0.05
880.395	0.02
880.677	-0.02
880.959	-0.06
