Data from Rubpy_EV_1800_EDTA_Buffered_Absorbance_15-22-04-712.txt Node
Date: Tue Jun 30 15:22:04 BST 2026
User: fpm-admin
Spectrometer: OFX00224
Trigger mode: 0
Integration Time (sec): 7.000000E-2
Scans to average: 3
Nonlinearity correction enabled: false
Boxcar width: 0
Storing dark spectrum: false
XAxis mode: Wavelengths
Number of Pixels in Spectrum: 2136
>>>>>Begin Spectral Data<<<<<
154.91	0.04
155.289	-0
155.669	-0.49
156.048	-0
156.428	-0.27
156.807	-0
157.186	-0
157.566	-0.19
157.945	-0
158.325	-0
158.704	-0
159.083	-0.2
159.462	0.21
159.842	-0.26
160.221	0.17
160.6	-0.31
160.979	-0.37
161.359	-0.31
161.738	-0.46
162.117	-0
162.496	-0.03
162.875	-0.39
163.254	0.22
163.633	-0
164.012	-0.37
164.391	0.41
164.77	0.06
165.149	-0.12
165.528	-0.21
165.907	-0.6
166.286	0.36
166.665	-0.52
167.044	-0.88
167.423	-0
167.802	-0
168.181	-0.04
168.559	0.1
168.938	-0.8
169.317	-0.27
169.696	0.08
170.074	-0.45
170.453	-0
170.832	-0.07
171.21	-0
171.589	-0.54
171.968	-0
172.346	-0.12
172.725	-0.06
173.103	-0.09
173.482	0.03
173.861	0.24
174.239	-0.25
174.617	-0.3
174.996	-0.16
175.374	-0
175.753	-0
176.131	0.39
176.51	-0
176.888	-0
177.266	-0
177.645	-0.21
178.023	0.42
178.401	-0.14
178.779	0.05
179.158	0.04
179.536	-0.21
179.914	-0
180.292	-0.41
180.67	-0.67
181.048	-0
181.427	0.29
181.805	-0.03
182.183	-0.1
182.561	-0
182.939	-0.26
183.317	-0
183.695	-0
184.073	0.82
184.451	-0
184.829	-0.06
185.206	-0.66
185.584	0.3
185.962	-0
186.34	-0.35
186.718	-0
187.096	0.02
187.473	-0
187.851	0.9
188.229	0.01
188.607	0.05
188.984	-0.01
189.362	0.08
189.74	0.14
190.117	0.08
190.495	0.2
190.872	0.03
191.25	0.03
191.627	0.03
192.005	0.01
192.382	-0
192.76	0.03
193.137	0.11
193.515	0.02
193.892	0
194.269	0.04
194.647	0.1
195.024	0.14
195.401	0.07
195.779	-0.02
196.156	0.02
196.533	0.12
196.91	0.22
197.288	0.06
197.665	0.19
198.042	0.04
198.419	0.12
198.796	0.07
199.173	0.16
199.55	0.07
199.927	0.18
200.304	0.06
200.681	0.13
201.058	0.16
201.435	0.09
201.812	0.07
202.189	0.05
202.566	-0.01
202.943	0.1
203.32	0.06
203.697	0.13
204.073	0.08
204.45	0.11
204.827	0.16
205.204	-0
205.58	0.05
205.957	-0.03
206.334	0.04
206.71	-0.01
207.087	0.11
207.464	0.09
207.84	0.11
208.217	0.05
208.593	0.11
208.97	0.04
209.346	0.07
209.723	-0
210.099	0.05
210.476	0.07
210.852	0.06
211.228	0
211.605	0.17
211.981	0.11
212.357	0.1
212.733	0.01
213.11	0.1
213.486	0.06
213.862	0.12
214.238	0.08
214.614	0.06
214.991	0.06
215.367	0.06
215.743	0.1
216.119	0.13
216.495	0.08
216.871	0.04
217.247	0.14
217.623	0.1
217.999	0.14
218.375	0.08
218.751	0.04
219.127	0.17
219.502	0.02
219.878	0.01
220.254	0.15
220.63	0.09
221.006	0.06
221.381	0.1
221.757	0.09
222.133	0.13
222.508	0.12
222.884	0.05
223.26	0.11
223.635	0.1
224.011	0.08
224.386	0.1
224.762	0.08
225.137	0.09
225.513	0.08
225.888	0.07
226.264	0.05
226.639	0.1
227.014	0.08
227.39	0.15
227.765	0.15
228.14	0.01
228.516	0.14
228.891	0.15
229.266	0.02
229.641	0.08
230.017	0.06
230.392	0.13
230.767	0.15
231.142	0.04
231.517	0.07
231.892	0.1
232.267	0.18
232.642	0.08
233.017	0.07
233.392	0.14
233.767	0.14
234.142	0.03
234.517	0.11
234.892	0.11
235.267	0.14
235.641	0.06
236.016	0.09
236.391	0.03
236.766	0.08
237.14	0.06
237.515	0.01
237.89	0.09
238.264	0.05
238.639	0.13
239.014	0.06
239.388	0.14
239.763	0.07
240.137	0.1
240.512	0.12
240.886	0.1
241.261	0.1
241.635	0.11
242.009	0.06
242.384	0.12
242.758	0.17
243.132	0.03
243.507	0.13
243.881	0.04
244.255	0.04
244.629	0.08
245.004	0.07
245.378	0.01
245.752	0.1
246.126	0.1
246.5	0.11
246.874	0.08
247.248	0.01
247.622	0.05
247.996	0.09
248.37	0.09
248.744	0.08
249.118	0.15
249.492	0.05
249.866	0.1
250.24	0.08
250.613	0.1
250.987	0.12
251.361	0.13
251.735	0.09
252.108	0.1
252.482	0.1
252.856	0.03
253.229	0.04
253.603	0.08
253.977	0.14
254.35	0.04
254.724	0.06
255.097	0.11
255.471	0.11
255.844	0.08
256.218	0.05
256.591	0.16
256.964	0.14
257.338	0.09
257.711	0.07
258.084	0.01
258.458	0.12
258.831	0.13
259.204	0.11
259.577	0.06
259.95	0.12
260.323	0.07
260.697	0.05
261.07	0.05
261.443	0.12
261.816	0.06
262.189	0.1
262.562	0.07
262.935	0.11
263.308	0.07
263.68	0.15
264.053	0.17
264.426	0.13
264.799	0.11
265.172	0.09
265.545	0.15
265.917	0.14
266.29	0.09
266.663	0.13
267.035	0.11
267.408	0.15
267.781	0.11
268.153	0.1
268.526	0.11
268.898	0.1
269.271	0.08
269.643	0.09
270.016	0.07
270.388	0.08
270.76	0.11
271.133	0.11
271.505	0.15
271.877	0.11
272.25	0.03
272.622	0.04
272.994	0.11
273.366	0.09
273.739	0.06
274.111	0.1
274.483	0.06
274.855	0.05
275.227	0.05
275.599	0.13
275.971	0.09
276.343	0.09
276.715	0.15
277.087	0.08
277.459	0.15
277.831	0.05
278.203	0.12
278.574	0.14
278.946	0.11
279.318	0.08
279.69	0.08
280.061	0.14
280.433	0.09
280.805	0.1
281.176	0.04
281.548	0.11
281.92	0.08
282.291	0.1
282.663	0.09
283.034	0.08
283.406	0.12
283.777	0.09
284.148	0.14
284.52	0.15
284.891	0.09
285.262	0.1
285.634	0.07
286.005	0.11
286.376	0.05
286.747	0.11
287.119	0.08
287.49	0.08
287.861	0.1
288.232	0.05
288.603	0.06
288.974	0.1
289.345	0.05
289.716	0.12
290.087	0.08
290.458	0.06
290.829	0.14
291.2	0.07
291.571	0.06
291.941	0.08
292.312	0.08
292.683	0.12
293.054	0.1
293.424	0.11
293.795	0.11
294.166	0.14
294.536	0.11
294.907	0.14
295.277	0.1
295.648	0.06
296.018	0.11
296.389	0.09
296.759	0.07
297.13	0.07
297.5	0.11
297.871	0.12
298.241	0.09
298.611	0.08
298.981	0.06
299.352	0.17
299.722	0.08
300.092	0.07
300.462	0.12
300.832	0.11
301.202	0.09
301.573	0.05
301.943	0.06
302.313	0.04
302.683	0.09
303.053	0.08
303.422	0.09
303.792	0.09
304.162	0.09
304.532	0.09
304.902	0.08
305.272	0.08
305.641	0.09
306.011	0.08
306.381	0.09
306.75	0.08
307.12	0.09
307.49	0.1
307.859	0.1
308.229	0.09
308.598	0.08
308.968	0.09
309.337	0.09
309.707	0.09
310.076	0.1
310.445	0.09
310.815	0.1
311.184	0.1
311.553	0.11
311.923	0.11
312.292	0.11
312.661	0.1
313.03	0.1
313.399	0.1
313.768	0.11
314.137	0.1
314.506	0.1
314.875	0.1
315.244	0.1
315.613	0.1
315.982	0.11
316.351	0.1
316.72	0.09
317.089	0.1
317.458	0.1
317.826	0.09
318.195	0.1
318.564	0.09
318.933	0.09
319.301	0.1
319.67	0.09
320.038	0.09
320.407	0.09
320.775	0.09
321.144	0.09
321.512	0.08
321.881	0.08
322.249	0.09
322.618	0.09
322.986	0.09
323.354	0.08
323.723	0.09
324.091	0.07
324.459	0.08
324.827	0.08
325.195	0.08
325.564	0.07
325.932	0.08
326.3	0.08
326.668	0.08
327.036	0.08
327.404	0.08
327.772	0.08
328.14	0.07
328.508	0.07
328.875	0.09
329.243	0.08
329.611	0.07
329.979	0.07
330.346	0.08
330.714	0.08
331.082	0.08
331.449	0.08
331.817	0.08
332.185	0.08
332.552	0.08
332.92	0.08
333.287	0.09
333.655	0.09
334.022	0.09
334.389	0.08
334.757	0.09
335.124	0.09
335.491	0.09
335.859	0.09
336.226	0.09
336.593	0.09
336.96	0.09
337.327	0.09
337.695	0.09
338.062	0.09
338.429	0.1
338.796	0.1
339.163	0.1
339.53	0.1
339.897	0.11
340.263	0.1
340.63	0.11
340.997	0.11
341.364	0.11
341.731	0.11
342.097	0.11
342.464	0.11
342.831	0.12
343.197	0.12
343.564	0.12
343.931	0.13
344.297	0.13
344.664	0.13
345.03	0.13
345.396	0.13
345.763	0.13
346.129	0.13
346.496	0.13
346.862	0.14
347.228	0.14
347.594	0.14
347.961	0.15
348.327	0.15
348.693	0.15
349.059	0.15
349.425	0.16
349.791	0.16
350.157	0.16
350.523	0.16
350.889	0.17
351.255	0.17
351.621	0.18
351.987	0.17
352.353	0.18
352.719	0.18
353.084	0.19
353.45	0.19
353.816	0.19
354.181	0.2
354.547	0.2
354.913	0.21
355.278	0.21
355.644	0.22
356.009	0.22
356.375	0.22
356.74	0.22
357.106	0.23
357.471	0.24
357.836	0.25
358.202	0.24
358.567	0.25
358.932	0.26
359.297	0.27
359.663	0.27
360.028	0.27
360.393	0.28
360.758	0.28
361.123	0.28
361.488	0.29
361.853	0.28
362.218	0.29
362.583	0.29
362.948	0.3
363.312	0.3
363.677	0.31
364.042	0.31
364.407	0.32
364.772	0.32
365.136	0.33
365.501	0.33
365.865	0.35
366.23	0.36
366.595	0.36
366.959	0.37
367.324	0.37
367.688	0.38
368.052	0.39
368.417	0.4
368.781	0.4
369.145	0.41
369.51	0.41
369.874	0.42
370.238	0.41
370.602	0.41
370.967	0.41
371.331	0.4
371.695	0.41
372.059	0.4
372.423	0.4
372.787	0.4
373.151	0.4
373.515	0.4
373.878	0.4
374.242	0.4
374.606	0.4
374.97	0.4
375.334	0.4
375.697	0.4
376.061	0.4
376.425	0.41
376.788	0.41
377.152	0.41
377.515	0.42
377.879	0.42
378.242	0.43
378.606	0.43
378.969	0.44
379.333	0.44
379.696	0.45
380.059	0.46
380.422	0.46
380.786	0.47
381.149	0.48
381.512	0.49
381.875	0.5
382.238	0.51
382.601	0.53
382.964	0.54
383.327	0.56
383.69	0.57
384.053	0.58
384.416	0.6
384.779	0.61
385.142	0.63
385.504	0.64
385.867	0.64
386.23	0.65
386.593	0.65
386.955	0.66
387.318	0.67
387.68	0.66
388.043	0.66
388.405	0.65
388.768	0.64
389.13	0.64
389.493	0.64
389.855	0.64
390.217	0.63
390.58	0.63
390.942	0.63
391.304	0.63
391.666	0.64
392.028	0.65
392.391	0.67
392.753	0.68
393.115	0.7
393.477	0.73
393.839	0.77
394.201	0.79
394.563	0.82
394.924	0.86
395.286	0.89
395.648	0.91
396.01	0.95
396.371	0.97
396.733	1
397.095	1.01
397.456	1.03
397.818	1.02
398.18	1.02
398.541	0.99
398.903	0.98
399.264	0.96
399.625	0.92
399.987	0.89
400.348	0.85
400.709	0.81
401.071	0.77
401.432	0.72
401.793	0.67
402.154	0.64
402.515	0.58
402.876	0.54
403.238	0.51
403.599	0.47
403.96	0.43
404.32	0.4
404.681	0.38
405.042	0.35
405.403	0.32
405.764	0.3
406.125	0.27
406.485	0.26
406.846	0.24
407.207	0.22
407.567	0.21
407.928	0.2
408.288	0.19
408.649	0.18
409.009	0.17
409.37	0.16
409.73	0.15
410.091	0.14
410.451	0.14
410.811	0.14
411.171	0.13
411.532	0.12
411.892	0.12
412.252	0.11
412.612	0.11
412.972	0.1
413.332	0.1
413.692	0.1
414.052	0.09
414.412	0.09
414.772	0.08
415.132	0.08
415.492	0.08
415.851	0.08
416.211	0.07
416.571	0.08
416.931	0.07
417.29	0.07
417.65	0.07
418.009	0.07
418.369	0.06
418.728	0.07
419.088	0.06
419.447	0.06
419.807	0.05
420.166	0.06
420.525	0.06
420.884	0.06
421.244	0.06
421.603	0.05
421.962	0.06
422.321	0.05
422.68	0.05
423.039	0.05
423.398	0.06
423.757	0.05
424.116	0.05
424.475	0.05
424.834	0.04
425.193	0.05
425.551	0.05
425.91	0.05
426.269	0.04
426.628	0.04
426.986	0.05
427.345	0.04
427.703	0.04
428.062	0.04
428.42	0.04
428.779	0.04
429.137	0.04
429.496	0.05
429.854	0.04
430.212	0.04
430.57	0.04
430.929	0.03
431.287	0.03
431.645	0.04
432.003	0.03
432.361	0.04
432.719	0.03
433.077	0.04
433.435	0.04
433.793	0.03
434.151	0.04
434.509	0.03
434.866	0.03
435.224	0.04
435.582	0.03
435.94	0.03
436.297	0.03
436.655	0.03
437.012	0.03
437.37	0.04
437.727	0.03
438.085	0.03
438.442	0.03
438.8	0.04
439.157	0.03
439.514	0.03
439.872	0.03
440.229	0.03
440.586	0.03
440.943	0.03
441.3	0.02
441.657	0.03
442.014	0.03
442.371	0.03
442.728	0.04
443.085	0.02
443.442	0.03
443.799	0.02
444.156	0.02
444.513	0.02
444.869	0.02
445.226	0.03
445.583	0.03
445.939	0.03
446.296	0.02
446.652	0.02
447.009	0.02
447.365	0.02
447.722	0.02
448.078	0.02
448.434	0.02
448.791	0.02
449.147	0.01
449.503	0.03
449.859	0.02
450.215	0.01
450.571	0.02
450.928	0.01
451.284	0.02
451.64	0.02
451.995	0.01
452.351	0.01
452.707	0.01
453.063	0.01
453.419	0
453.775	0.01
454.13	0
454.486	0.01
454.842	0
455.197	0
455.553	-0
455.908	0
456.264	-0.01
456.619	-0.01
456.975	-0
457.33	-0
457.685	-0.01
458.04	-0.01
458.396	-0.01
458.751	-0.01
459.106	-0.02
459.461	-0.02
459.816	-0.02
460.171	-0.02
460.526	-0.02
460.881	-0.03
461.236	-0.02
461.591	-0.03
461.946	-0.03
462.301	-0.04
462.655	-0.03
463.01	-0.04
463.365	-0.04
463.719	-0.04
464.074	-0.04
464.428	-0.05
464.783	-0.05
465.137	-0.04
465.492	-0.05
465.846	-0.06
466.201	-0.05
466.555	-0.06
466.909	-0.05
467.263	-0.05
467.618	-0.05
467.972	-0.04
468.326	-0.05
468.68	-0.06
469.034	-0.06
469.388	-0.06
469.742	-0.06
470.096	-0.06
470.45	-0.06
470.804	-0.06
471.157	-0.06
471.511	-0.06
471.865	-0.05
472.218	-0.05
472.572	-0.05
472.926	-0.05
473.279	-0.05
473.633	-0.05
473.986	-0.04
474.34	-0.04
474.693	-0.04
475.046	-0.03
475.4	-0.03
475.753	-0.03
476.106	-0.02
476.459	-0.02
476.812	-0.02
477.165	-0.02
477.519	-0.01
477.872	-0.01
478.224	-0.01
478.577	-0.01
478.93	-0
479.283	-0.01
479.636	-0
479.989	-0
480.341	0
480.694	0.01
481.047	0
481.399	0
481.752	0.01
482.104	0.01
482.457	0.01
482.809	0.01
483.162	0.01
483.514	0.02
483.866	0.02
484.219	0.02
484.571	0.02
484.923	0.02
485.275	0.02
485.627	0.03
485.979	0.02
486.331	0.03
486.683	0.03
487.035	0.03
487.387	0.03
487.739	0.03
488.091	0.03
488.443	0.03
488.794	0.03
489.146	0.03
489.498	0.03
489.849	0.03
490.201	0.03
490.552	0.04
490.904	0.04
491.255	0.04
491.607	0.04
491.958	0.04
492.309	0.04
492.661	0.04
493.012	0.04
493.363	0.04
493.714	0.04
494.065	0.05
494.416	0.04
494.767	0.05
495.118	0.05
495.469	0.05
495.82	0.05
496.171	0.05
496.522	0.05
496.872	0.05
497.223	0.06
497.574	0.06
497.924	0.06
498.275	0.06
498.626	0.06
498.976	0.06
499.327	0.06
499.677	0.06
500.027	0.06
500.378	0.06
500.728	0.06
501.078	0.06
501.428	0.06
501.779	0.06
502.129	0.07
502.479	0.06
502.829	0.07
503.179	0.06
503.529	0.07
503.879	0.07
504.229	0.07
504.578	0.07
504.928	0.07
505.278	0.07
505.628	0.07
505.977	0.08
506.327	0.08
506.676	0.08
507.026	0.08
507.375	0.08
507.725	0.08
508.074	0.08
508.424	0.08
508.773	0.08
509.122	0.08
509.471	0.08
509.82	0.08
510.17	0.09
510.519	0.09
510.868	0.09
511.217	0.09
511.566	0.09
511.915	0.09
512.263	0.09
512.612	0.09
512.961	0.09
513.31	0.09
513.659	0.1
514.007	0.09
514.356	0.09
514.704	0.09
515.053	0.1
515.401	0.1
515.75	0.1
516.098	0.1
516.447	0.1
516.795	0.1
517.143	0.1
517.491	0.1
517.839	0.11
518.188	0.11
518.536	0.11
518.884	0.11
519.232	0.11
519.58	0.11
519.928	0.11
520.275	0.11
520.623	0.11
520.971	0.12
521.319	0.12
521.666	0.12
522.014	0.12
522.362	0.12
522.709	0.12
523.057	0.12
523.404	0.12
523.752	0.12
524.099	0.12
524.446	0.12
524.794	0.12
525.141	0.13
525.488	0.13
525.835	0.13
526.182	0.13
526.529	0.13
526.876	0.13
527.223	0.13
527.57	0.13
527.917	0.13
528.264	0.13
528.611	0.13
528.958	0.14
529.304	0.14
529.651	0.14
529.998	0.14
530.344	0.14
530.691	0.14
531.037	0.14
531.384	0.15
531.73	0.14
532.076	0.15
532.423	0.15
532.769	0.15
533.115	0.15
533.461	0.15
533.807	0.15
534.154	0.15
534.5	0.15
534.846	0.15
535.192	0.16
535.537	0.15
535.883	0.16
536.229	0.16
536.575	0.16
536.921	0.16
537.266	0.16
537.612	0.16
537.957	0.16
538.303	0.16
538.649	0.17
538.994	0.17
539.339	0.17
539.685	0.17
540.03	0.17
540.375	0.18
540.721	0.18
541.066	0.18
541.411	0.18
541.756	0.18
542.101	0.18
542.446	0.18
542.791	0.18
543.136	0.19
543.481	0.18
543.825	0.19
544.17	0.19
544.515	0.19
544.86	0.19
545.204	0.19
545.549	0.19
545.893	0.19
546.238	0.2
546.582	0.2
546.927	0.2
547.271	0.2
547.615	0.2
547.96	0.2
548.304	0.2
548.648	0.21
548.992	0.21
549.336	0.21
549.68	0.2
550.024	0.21
550.368	0.21
550.712	0.21
551.056	0.22
551.4	0.21
551.743	0.22
552.087	0.21
552.431	0.22
552.774	0.22
553.118	0.22
553.462	0.22
553.805	0.22
554.148	0.22
554.492	0.22
554.835	0.22
555.178	0.23
555.522	0.23
555.865	0.23
556.208	0.23
556.551	0.23
556.894	0.23
557.237	0.23
557.58	0.23
557.923	0.23
558.266	0.23
558.609	0.23
558.952	0.23
559.294	0.23
559.637	0.23
559.98	0.23
560.322	0.24
560.665	0.24
561.007	0.24
561.35	0.24
561.692	0.24
562.034	0.24
562.377	0.24
562.719	0.24
563.061	0.24
563.403	0.24
563.745	0.24
564.088	0.24
564.43	0.24
564.772	0.24
565.113	0.24
565.455	0.24
565.797	0.25
566.139	0.25
566.481	0.25
566.822	0.25
567.164	0.25
567.506	0.25
567.847	0.25
568.189	0.25
568.53	0.25
568.872	0.25
569.213	0.25
569.554	0.25
569.895	0.25
570.237	0.25
570.578	0.25
570.919	0.25
571.26	0.25
571.601	0.25
571.942	0.25
572.283	0.25
572.624	0.24
572.965	0.24
573.306	0.24
573.646	0.24
573.987	0.25
574.328	0.24
574.668	0.25
575.009	0.24
575.349	0.25
575.69	0.24
576.03	0.24
576.37	0.24
576.711	0.24
577.051	0.24
577.391	0.24
577.731	0.25
578.072	0.25
578.412	0.24
578.752	0.24
579.092	0.24
579.431	0.23
579.771	0.21
580.111	0.2
580.451	0.2
580.791	0.22
581.13	0.24
581.47	0.24
581.81	0.25
582.149	0.24
582.489	0.24
582.828	0.24
583.167	0.21
583.507	0.17
583.846	0.15
584.185	0.17
584.525	0.19
584.864	0.22
585.203	0.25
585.542	0.26
585.881	0.25
586.22	0.26
586.559	0.25
586.898	0.24
587.236	0.23
587.575	0.22
587.914	0.23
588.252	0.24
588.591	0.26
588.93	0.26
589.268	0.26
589.607	0.26
589.945	0.26
590.283	0.26
590.622	0.26
590.96	0.27
591.298	0.27
591.636	0.27
591.974	0.27
592.313	0.28
592.651	0.28
592.989	0.28
593.326	0.28
593.664	0.28
594.002	0.28
594.34	0.28
594.678	0.28
595.015	0.28
595.353	0.26
595.691	0.27
596.028	0.28
596.366	0.28
596.703	0.29
597.04	0.29
597.378	0.29
597.715	0.3
598.052	0.3
598.389	0.3
598.726	0.3
599.064	0.3
599.401	0.3
599.738	0.3
600.074	0.3
600.411	0.3
600.748	0.3
601.085	0.29
601.422	0.29
601.758	0.29
602.095	0.29
602.432	0.29
602.768	0.29
603.105	0.3
603.441	0.3
603.777	0.3
604.114	0.3
604.45	0.3
604.786	0.3
605.122	0.31
605.459	0.3
605.795	0.3
606.131	0.3
606.467	0.3
606.803	0.3
607.139	0.3
607.474	0.3
607.81	0.3
608.146	0.3
608.482	0.3
608.817	0.3
609.153	0.3
609.488	0.29
609.824	0.3
610.159	0.3
610.495	0.3
610.83	0.29
611.165	0.3
611.5	0.3
611.836	0.3
612.171	0.3
612.506	0.3
612.841	0.3
613.176	0.3
613.511	0.3
613.845	0.3
614.18	0.29
614.515	0.3
614.85	0.3
615.184	0.29
615.519	0.29
615.854	0.29
616.188	0.29
616.523	0.29
616.857	0.29
617.191	0.29
617.526	0.29
617.86	0.29
618.194	0.28
618.528	0.29
618.862	0.28
619.196	0.29
619.53	0.28
619.864	0.29
620.198	0.28
620.532	0.28
620.866	0.28
621.2	0.28
621.533	0.28
621.867	0.28
622.201	0.28
622.534	0.28
622.868	0.28
623.201	0.28
623.534	0.28
623.868	0.27
624.201	0.27
624.534	0.27
624.868	0.27
625.201	0.27
625.534	0.27
625.867	0.27
626.2	0.27
626.533	0.27
626.865	0.26
627.198	0.26
627.531	0.26
627.864	0.26
628.196	0.26
628.529	0.26
628.862	0.25
629.194	0.26
629.527	0.25
629.859	0.26
630.191	0.25
630.524	0.25
630.856	0.25
631.188	0.25
631.52	0.24
631.852	0.24
632.184	0.24
632.516	0.24
632.848	0.24
633.18	0.24
633.512	0.24
633.844	0.24
634.175	0.23
634.507	0.23
634.839	0.23
635.17	0.23
635.502	0.22
635.833	0.22
636.165	0.22
636.496	0.21
636.827	0.21
637.159	0.22
637.49	0.21
637.821	0.21
638.152	0.21
638.483	0.21
638.814	0.21
639.145	0.2
639.476	0.2
639.807	0.2
640.137	0.2
640.468	0.2
640.799	0.19
641.129	0.19
641.46	0.19
641.791	0.19
642.121	0.19
642.451	0.19
642.782	0.19
643.112	0.19
643.442	0.19
643.773	0.18
644.103	0.18
644.433	0.18
644.763	0.18
645.093	0.18
645.423	0.18
645.753	0.18
646.082	0.17
646.412	0.17
646.742	0.17
647.072	0.17
647.401	0.17
647.731	0.17
648.06	0.17
648.39	0.17
648.719	0.17
649.048	0.17
649.378	0.17
649.707	0.17
650.036	0.17
650.365	0.16
650.694	0.16
651.023	0.16
651.352	0.16
651.681	0.16
652.01	0.16
652.339	0.16
652.668	0.16
652.996	0.16
653.325	0.16
653.654	0.16
653.982	0.17
654.311	0.16
654.639	0.17
654.967	0.17
655.296	0.16
655.624	0.17
655.952	0.16
656.28	0.16
656.609	0.16
656.937	0.16
657.265	0.16
657.593	0.11
657.92	0
658.248	0
658.576	0
658.904	0
659.231	0.06
659.559	0.13
659.887	0.16
660.214	0.16
660.542	0.16
660.869	0.16
661.196	0.17
661.524	0.17
661.851	0.17
662.178	0.17
662.505	0.16
662.832	0.16
663.159	0.16
663.486	0.16
663.813	0.16
664.14	0.16
664.467	0.16
664.794	0.16
665.12	0.16
665.447	0.16
665.774	0.16
666.1	0.15
666.427	0.15
666.753	0.15
667.079	0.15
667.406	0.15
667.732	0.15
668.058	0.15
668.384	0.15
668.71	0.15
669.036	0.15
669.362	0.16
669.688	0.15
670.014	0.15
670.34	0.15
670.666	0.15
670.991	0.15
671.317	0.15
671.643	0.15
671.968	0.15
672.294	0.15
672.619	0.15
672.945	0.15
673.27	0.15
673.595	0.15
673.92	0.14
674.246	0.14
674.571	0.14
674.896	0.14
675.221	0.14
675.546	0.14
675.87	0.14
676.195	0.14
676.52	0.14
676.845	0.14
677.169	0.14
677.494	0.13
677.819	0.13
678.143	0.13
678.468	0.13
678.792	0.13
679.116	0.13
679.44	0.13
679.765	0.13
680.089	0.12
680.413	0.12
680.737	0.12
681.061	0.12
681.385	0.12
681.709	0.12
682.033	0.11
682.356	0.11
682.68	0.12
683.004	0.12
683.327	0.11
683.651	0.11
683.974	0.11
684.298	0.11
684.621	0.11
684.944	0.1
685.268	0.1
685.591	0.1
685.914	0.1
686.237	0.1
686.56	0.1
686.883	0.09
687.206	0.09
687.529	0.09
687.852	0.09
688.175	0.09
688.497	0.09
688.82	0.09
689.142	0.09
689.465	0.09
689.787	0.09
690.11	0.09
690.432	0.09
690.755	0.09
691.077	0.09
691.399	0.08
691.721	0.08
692.043	0.08
692.365	0.08
692.687	0.08
693.009	0.07
693.331	0.07
693.653	0.07
693.974	0.07
694.296	0.07
694.618	0.07
694.939	0.07
695.261	0.06
695.582	0.07
695.904	0.07
696.225	0.07
696.546	0.07
696.868	0.07
697.189	0.07
697.51	0.07
697.831	0.06
698.152	0.07
698.473	0.06
698.794	0.06
699.114	0.05
699.435	0.04
699.756	0.04
700.077	0.05
700.397	0.05
700.718	0.05
701.038	0.05
701.359	0.05
701.679	0.06
701.999	0.06
702.32	0.05
702.64	0.05
702.96	0.05
703.28	0.05
703.6	0.05
703.92	0.05
704.24	0.05
704.56	0.04
704.879	0.04
705.199	0.05
705.519	0.04
705.838	0.05
706.158	0.05
706.478	0.04
706.797	0.05
707.116	0.05
707.436	0.05
707.755	0.05
708.074	0.05
708.393	0.04
708.712	0.04
709.031	0.03
709.35	0.02
709.669	0.02
709.988	0.02
710.307	0.03
710.626	0.03
710.944	0.04
711.263	0.04
711.582	0.04
711.9	0.04
712.219	0.04
712.537	0.04
712.855	0.04
713.174	0.04
713.492	0.04
713.81	0.04
714.128	0.04
714.446	0.04
714.764	0.04
715.082	0.03
715.4	0.04
715.718	0.03
716.035	0.03
716.353	0.04
716.671	0.04
716.988	0.04
717.306	0.03
717.623	0.04
717.941	0.04
718.258	0.04
718.575	0.04
718.893	0.04
719.21	0.04
719.527	0.04
719.844	0.04
720.161	0.05
720.478	0.04
720.795	0.05
721.112	0.05
721.428	0.05
721.745	0.05
722.062	0.05
722.378	0.05
722.695	0.05
723.011	0.05
723.328	0.05
723.644	0.05
723.96	0.05
724.276	0.05
724.593	0.05
724.909	0.05
725.225	0.05
725.541	0.05
725.857	0.05
726.173	0.05
726.488	0.06
726.804	0.05
727.12	0.05
727.435	0.05
727.751	0.05
728.067	0.05
728.382	0.05
728.697	0.05
729.013	0.05
729.328	0.05
729.643	0.05
729.958	0.05
730.273	0.05
730.588	0.05
730.903	0.05
731.218	0.05
731.533	0.05
731.848	0.05
732.163	0.05
732.477	0.05
732.792	0.05
733.107	0.04
733.421	0.04
733.736	0.05
734.05	0.05
734.364	0.05
734.678	0.05
734.993	0.05
735.307	0.05
735.621	0.05
735.935	0.05
736.249	0.05
736.563	0.05
736.877	0.05
737.19	0.05
737.504	0.05
737.818	0.05
738.131	0.05
738.445	0.05
738.758	0.05
739.072	0.05
739.385	0.05
739.698	0.05
740.012	0.05
740.325	0.05
740.638	0.05
740.951	0.05
741.264	0.05
741.577	0.05
741.89	0.05
742.203	0.05
742.515	0.05
742.828	0.05
743.141	0.05
743.453	0.05
743.766	0.05
744.078	0.05
744.391	0.05
744.703	0.05
745.015	0.04
745.327	0.04
745.639	0.04
745.952	0.04
746.264	0.04
746.575	0.04
746.887	0.04
747.199	0.04
747.511	0.04
747.823	0.05
748.134	0.04
748.446	0.04
748.757	0.04
749.069	0.04
749.38	0.04
749.692	0.04
750.003	0.04
750.314	0.04
750.625	0.04
750.936	0.04
751.248	0.04
751.559	0.04
751.869	0.04
752.18	0.04
752.491	0.03
752.802	0.03
753.112	0.03
753.423	0.03
753.734	0.03
754.044	0.03
754.355	0.03
754.665	0.03
754.975	0.03
755.285	0.03
755.596	0.03
755.906	0.03
756.216	0.03
756.526	0.03
756.836	0.03
757.146	0.03
757.455	0.03
757.765	0.03
758.075	0.03
758.385	0.03
758.694	0.03
759.004	0.03
759.313	0.03
759.622	0.03
759.932	0.02
760.241	0.02
760.55	0.02
760.859	0.02
761.168	0.02
761.477	0.02
761.786	0.01
762.095	0.01
762.404	0.02
762.713	0.02
763.021	0.02
763.33	0.02
763.639	0.02
763.947	0.02
764.256	0.02
764.564	0.02
764.872	0.02
765.181	0.02
765.489	0.02
765.797	0.02
766.105	0.02
766.413	0.02
766.721	0.01
767.029	0.01
767.337	0.01
767.644	0.01
767.952	0.01
768.26	0.01
768.567	0.01
768.875	0.02
769.182	0.02
769.49	0.02
769.797	0.02
770.104	0.02
770.411	0.02
770.718	0.02
771.026	0.02
771.333	0.02
771.639	0.02
771.946	0.02
772.253	0.02
772.56	0.01
772.867	0.01
773.173	0.01
773.48	0.01
773.786	0.01
774.093	0.01
774.399	0.01
774.705	0.01
775.012	0.01
775.318	0.01
775.624	0.01
775.93	0.01
776.236	0
776.542	0.01
776.848	0.01
777.154	0.01
777.459	0.01
777.765	0.01
778.071	0.01
778.376	0.02
778.682	0.01
778.987	0.01
779.292	0.01
779.598	0.02
779.903	0.01
780.208	0.02
780.513	0.01
780.818	0.01
781.123	0.01
781.428	0.01
781.733	0.01
782.038	0.01
782.343	0.02
782.647	0.01
782.952	0.02
783.256	0.02
783.561	0.02
783.865	0.02
784.17	0.01
784.474	0.01
784.778	0.01
785.082	0.01
785.386	0.01
785.69	0.01
785.994	0.01
786.298	0.01
786.602	0.02
786.906	0.01
787.209	0.02
787.513	0.02
787.817	0.02
788.12	0.02
788.424	0.02
788.727	0.02
789.03	0.01
789.333	0.01
789.637	0.02
789.94	0.01
790.243	0.01
790.546	0.01
790.849	0.02
791.152	0.02
791.454	0.02
791.757	0.02
792.06	0.02
792.362	0.02
792.665	0.02
792.967	0.01
793.27	0.02
793.572	0.01
793.874	0.01
794.177	0.02
794.479	0.02
794.781	0.01
795.083	0.01
795.385	0.01
795.687	0.01
795.989	0.01
796.29	0.01
796.592	0.02
796.894	0.02
797.195	0.02
797.497	0.02
797.798	0.02
798.1	0.02
798.401	0.02
798.702	0.02
799.003	0.02
799.304	0.02
799.605	0.02
799.906	0.02
800.207	0.02
800.508	0.01
800.809	0.02
801.11	0.02
801.41	0.01
801.711	0.01
802.011	0.01
802.312	0.01
802.612	0
802.913	0.01
803.213	0.01
803.513	0.01
803.813	0.01
804.113	0.01
804.413	0.02
804.713	0.01
805.013	0.02
805.313	0.02
805.613	0.01
805.912	0.02
806.212	0.02
806.511	0.02
806.811	0.02
807.11	0.01
807.41	0.02
807.709	0.02
808.008	0.01
808.307	0.02
808.606	0.02
808.905	0.02
809.204	0.02
809.503	0.02
809.802	0.02
810.101	0.02
810.399	0.01
810.698	0.02
810.997	0.02
811.295	0.02
811.593	0.02
811.892	0.02
812.19	0.02
812.488	0.02
812.786	0.02
813.084	0.02
813.383	0.02
813.68	0.02
813.978	0.03
814.276	0.03
814.574	0.02
814.872	0.03
815.169	0.02
815.467	0.02
815.764	0.02
816.062	0.02
816.359	0.02
816.656	0.02
816.954	0.02
817.251	0.03
817.548	0.03
817.845	0.03
818.142	0.03
818.439	0.03
818.735	0.03
819.032	0.03
819.329	0.03
819.626	0.02
819.922	0.02
820.219	0.03
820.515	0.03
820.811	0.02
821.108	0.02
821.404	0.02
821.7	0.02
821.996	0.03
822.292	0.02
822.588	0.02
822.884	0.03
823.18	0.03
823.475	0.02
823.771	0.02
824.067	0.03
824.362	0.03
824.658	0.03
824.953	0.03
825.249	0.03
825.544	0.03
825.839	0.03
826.134	0.03
826.429	0.04
826.724	0.03
827.019	0.03
827.314	0.03
827.609	0.03
827.904	0.02
828.198	0.03
828.493	0.02
828.787	0.03
829.082	0.02
829.376	0.02
829.671	0.02
829.965	0.02
830.259	0.03
830.553	0.03
830.847	0.03
831.141	0.03
831.435	0.03
831.729	0.03
832.023	0.04
832.317	0.04
832.61	0.04
832.904	0.04
833.197	0.03
833.491	0.03
833.784	0.04
834.077	0.03
834.371	0.03
834.664	0.03
834.957	0.03
835.25	0.03
835.543	0.04
835.836	0.03
836.129	0.04
836.421	0.03
836.714	0.04
837.007	0.03
837.299	0.03
837.592	0.03
837.884	0.03
838.177	0.03
838.469	0.03
838.761	0.03
839.053	0.03
839.345	0.04
839.637	0.03
839.929	0.05
840.221	0.04
840.513	0.04
840.805	0.04
841.096	0.04
841.388	0.04
841.68	0.04
841.971	0.03
842.262	0.05
842.554	0.05
842.845	0.04
843.136	0.04
843.427	0.04
843.718	0.04
844.009	0.03
844.3	0.04
844.591	0.03
844.882	0.04
845.173	0.03
845.463	0.04
845.754	0.03
846.044	0.03
846.335	0.04
846.625	0.04
846.915	0.04
847.206	0.04
847.496	0.06
847.786	0.04
848.076	0.03
848.366	0.04
848.656	0.04
848.945	0.04
849.235	0.04
849.525	0.04
849.814	0.04
850.104	0.03
850.393	0.03
850.683	0.03
850.972	0.03
851.261	0.03
851.551	0.03
851.84	0.04
852.129	0.05
852.418	0.04
852.707	0.04
852.995	0.04
853.284	0.04
853.573	0.03
853.862	0.03
854.15	0.04
854.439	0.04
854.727	0.03
855.015	0.03
855.304	0.04
855.592	0.03
855.88	0.02
856.168	0.03
856.456	0.03
856.744	0.03
857.032	0.04
857.32	0.04
857.607	0.05
857.895	0.03
858.183	0.05
858.47	0.03
858.757	0.03
859.045	0.04
859.332	0.04
859.619	0.02
859.907	0.03
860.194	0.03
860.481	0.04
860.768	0.04
861.054	0.03
861.341	0.04
861.628	0.03
861.915	0.04
862.201	0.01
862.488	0.02
862.774	0.04
863.061	0.03
863.347	0.02
863.633	0.03
863.919	0.02
864.205	0.02
864.491	0.03
864.777	0.03
865.063	0.01
865.349	0.04
865.635	0.04
865.92	0.03
866.206	0.02
866.492	0.01
866.777	0.04
867.062	0.02
867.348	0.04
867.633	0.03
867.918	-0.01
868.203	0.01
868.488	0.03
868.773	0.03
869.058	0.04
869.343	-0.01
869.628	-0.01
869.912	-0.01
870.197	0.03
870.482	0.01
870.766	0
871.05	0.01
871.335	0.03
871.619	0.03
871.903	-0
872.187	-0.01
872.471	-0
872.755	0.01
873.039	0.02
873.323	0.03
873.607	-0.01
873.89	-0.01
874.174	-0.01
874.458	0.02
874.741	-0.03
875.024	-0.02
875.308	-0.02
875.591	-0.05
875.874	0.02
876.157	0.02
876.44	-0.05
876.723	-0.02
877.006	-0.03
877.289	-0.07
877.572	0.02
877.854	0.01
878.137	0.04
878.42	-0.02
878.702	-0.01
878.984	-0.05
879.267	-0.05
879.549	0.03
879.831	0.04
880.113	0
880.395	0.01
880.677	-0.01
880.959	-0.05
