Data from Rubpy_EV_1800_EDTA_Buffered_Absorbance_15-30-30-709.txt Node
Date: Tue Jun 30 15:30:30 BST 2026
User: fpm-admin
Spectrometer: OFX00224
Trigger mode: 0
Integration Time (sec): 7.000000E-2
Scans to average: 3
Nonlinearity correction enabled: false
Boxcar width: 0
Storing dark spectrum: false
XAxis mode: Wavelengths
Number of Pixels in Spectrum: 2136
>>>>>Begin Spectral Data<<<<<
154.91	-0
155.289	-0.36
155.669	-0
156.048	-0.64
156.428	-0.4
156.807	-0
157.186	-0
157.566	-0.23
157.945	0.19
158.325	-0
158.704	-0
159.083	-0.38
159.462	-0.01
159.842	-0.32
160.221	0.24
160.6	-0.52
160.979	-0.76
161.359	-0.2
161.738	-0.03
162.117	-0
162.496	-0.2
162.875	-0.27
163.254	-0
163.633	0.9
164.012	-0.14
164.391	0.56
164.77	0.2
165.149	-0.02
165.528	-0.14
165.907	-1.15
166.286	-0.2
166.665	-0.57
167.044	-1.09
167.423	-0
167.802	-0
168.181	0.04
168.559	-0
168.938	-0.88
169.317	-0.33
169.696	-0.19
170.074	-0
170.453	-0
170.832	0.26
171.21	-0
171.589	-0.66
171.968	-0
172.346	-0.73
172.725	-0.1
173.103	0.41
173.482	0.24
173.861	0.18
174.239	-0.12
174.617	0.86
174.996	-0.38
175.374	-0
175.753	-0
176.131	-0
176.51	-0
176.888	-0
177.266	-0
177.645	-0.17
178.023	0.91
178.401	-0.29
178.779	0.23
179.158	0.42
179.536	-0
179.914	-0
180.292	-0
180.67	-0.23
181.048	-0
181.427	0.44
181.805	-0.08
182.183	0.18
182.561	-0
182.939	-0
183.317	-0.74
183.695	-0
184.073	0.32
184.451	0.86
184.829	0.14
185.206	-0.93
185.584	-0.15
185.962	-0
186.34	-0
186.718	-0
187.096	0.24
187.473	-0
187.851	-0
188.229	0.63
188.607	0.15
188.984	0.15
189.362	0.13
189.74	0.15
190.117	0.21
190.495	0.2
190.872	0.04
191.25	0.09
191.627	0.11
192.005	0.17
192.382	0.1
192.76	0.17
193.137	0.14
193.515	0.11
193.892	0.19
194.269	0.13
194.647	0.11
195.024	0.15
195.401	0.22
195.779	0.04
196.156	0.13
196.533	0.08
196.91	0.21
197.288	0.12
197.665	0.21
198.042	0.21
198.419	0.16
198.796	0.17
199.173	0.12
199.55	0.14
199.927	0.17
200.304	0.06
200.681	0.14
201.058	0.14
201.435	0.2
201.812	0.15
202.189	0.15
202.566	-0.02
202.943	0.18
203.32	0.11
203.697	0.19
204.073	0.17
204.45	0.09
204.827	0.15
205.204	0.11
205.58	0.05
205.957	0.14
206.334	0.09
206.71	0.11
207.087	0.13
207.464	0.07
207.84	0.25
208.217	0.12
208.593	0.15
208.97	0.12
209.346	0.19
209.723	0.11
210.099	0.11
210.476	0.27
210.852	0.18
211.228	0.04
211.605	0.12
211.981	0.09
212.357	0.15
212.733	0.16
213.11	0.17
213.486	0.17
213.862	0.21
214.238	0.2
214.614	0.1
214.991	0.12
215.367	0.1
215.743	0.19
216.119	0.19
216.495	0.15
216.871	0.11
217.247	0.18
217.623	0.1
217.999	0.19
218.375	0.07
218.751	0.07
219.127	0.21
219.502	0.14
219.878	0.09
220.254	0.23
220.63	0.14
221.006	0.1
221.381	0.18
221.757	0.23
222.133	0.14
222.508	0.14
222.884	0.1
223.26	0.17
223.635	0.14
224.011	0.11
224.386	0.16
224.762	0.12
225.137	0.14
225.513	0.16
225.888	0.16
226.264	0.1
226.639	0.16
227.014	0.17
227.39	0.09
227.765	0.17
228.14	0.18
228.516	0.23
228.891	0.21
229.266	0.11
229.641	0.18
230.017	0.25
230.392	0.22
230.767	0.16
231.142	0.1
231.517	0.15
231.892	0.15
232.267	0.2
232.642	0.21
233.017	0.17
233.392	0.17
233.767	0.19
234.142	0.1
234.517	0.21
234.892	0.23
235.267	0.22
235.641	0.23
236.016	0.17
236.391	0.17
236.766	0.12
237.14	0.16
237.515	0.04
237.89	0.13
238.264	0.12
238.639	0.15
239.014	0.18
239.388	0.14
239.763	0.16
240.137	0.14
240.512	0.23
240.886	0.12
241.261	0.23
241.635	0.25
242.009	0.1
242.384	0.18
242.758	0.31
243.132	0.18
243.507	0.16
243.881	0.13
244.255	0.13
244.629	0.25
245.004	0.22
245.378	0.1
245.752	0.18
246.126	0.2
246.5	0.18
246.874	0.19
247.248	0.04
247.622	0.17
247.996	0.16
248.37	0.19
248.744	0.18
249.118	0.23
249.492	0.11
249.866	0.12
250.24	0.15
250.613	0.17
250.987	0.13
251.361	0.12
251.735	0.24
252.108	0.18
252.482	0.12
252.856	0.24
253.229	0.14
253.603	0.16
253.977	0.15
254.35	0.14
254.724	0.12
255.097	0.19
255.471	0.15
255.844	0.13
256.218	0.2
256.591	0.13
256.964	0.22
257.338	0.14
257.711	0.14
258.084	0.14
258.458	0.19
258.831	0.22
259.204	0.19
259.577	0.15
259.95	0.29
260.323	0.17
260.697	0.17
261.07	0.18
261.443	0.13
261.816	0.2
262.189	0.15
262.562	0.19
262.935	0.2
263.308	0.14
263.68	0.29
264.053	0.25
264.426	0.2
264.799	0.19
265.172	0.2
265.545	0.17
265.917	0.2
266.29	0.16
266.663	0.12
267.035	0.2
267.408	0.14
267.781	0.14
268.153	0.14
268.526	0.21
268.898	0.15
269.271	0.17
269.643	0.16
270.016	0.12
270.388	0.15
270.76	0.19
271.133	0.19
271.505	0.29
271.877	0.13
272.25	0.16
272.622	0.26
272.994	0.15
273.366	0.16
273.739	0.17
274.111	0.12
274.483	0.15
274.855	0.19
275.227	0.21
275.599	0.27
275.971	0.16
276.343	0.2
276.715	0.19
277.087	0.19
277.459	0.18
277.831	0.17
278.203	0.22
278.574	0.16
278.946	0.25
279.318	0.22
279.69	0.12
280.061	0.22
280.433	0.18
280.805	0.15
281.176	0.15
281.548	0.23
281.92	0.17
282.291	0.18
282.663	0.17
283.034	0.17
283.406	0.19
283.777	0.2
284.148	0.14
284.52	0.14
284.891	0.11
285.262	0.21
285.634	0.19
286.005	0.19
286.376	0.19
286.747	0.2
287.119	0.21
287.49	0.15
287.861	0.12
288.232	0.2
288.603	0.11
288.974	0.18
289.345	0.13
289.716	0.17
290.087	0.18
290.458	0.15
290.829	0.23
291.2	0.12
291.571	0.2
291.941	0.17
292.312	0.21
292.683	0.17
293.054	0.13
293.424	0.21
293.795	0.21
294.166	0.24
294.536	0.17
294.907	0.21
295.277	0.2
295.648	0.15
296.018	0.15
296.389	0.14
296.759	0.17
297.13	0.14
297.5	0.18
297.871	0.15
298.241	0.22
298.611	0.17
298.981	0.2
299.352	0.26
299.722	0.19
300.092	0.13
300.462	0.2
300.832	0.18
301.202	0.15
301.573	0.15
301.943	0.17
302.313	0.15
302.683	0.15
303.053	0.15
303.422	0.16
303.792	0.17
304.162	0.16
304.532	0.18
304.902	0.16
305.272	0.15
305.641	0.16
306.011	0.16
306.381	0.16
306.75	0.17
307.12	0.17
307.49	0.19
307.859	0.18
308.229	0.17
308.598	0.16
308.968	0.18
309.337	0.18
309.707	0.18
310.076	0.18
310.445	0.19
310.815	0.2
311.184	0.19
311.553	0.2
311.923	0.19
312.292	0.19
312.661	0.19
313.03	0.19
313.399	0.19
313.768	0.2
314.137	0.2
314.506	0.2
314.875	0.2
315.244	0.19
315.613	0.19
315.982	0.19
316.351	0.19
316.72	0.19
317.089	0.19
317.458	0.19
317.826	0.19
318.195	0.18
318.564	0.19
318.933	0.18
319.301	0.18
319.67	0.18
320.038	0.17
320.407	0.18
320.775	0.18
321.144	0.18
321.512	0.18
321.881	0.17
322.249	0.17
322.618	0.18
322.986	0.16
323.354	0.17
323.723	0.17
324.091	0.16
324.459	0.16
324.827	0.16
325.195	0.16
325.564	0.17
325.932	0.16
326.3	0.16
326.668	0.16
327.036	0.15
327.404	0.17
327.772	0.16
328.14	0.16
328.508	0.16
328.875	0.17
329.243	0.16
329.611	0.16
329.979	0.16
330.346	0.17
330.714	0.17
331.082	0.17
331.449	0.17
331.817	0.17
332.185	0.17
332.552	0.17
332.92	0.18
333.287	0.18
333.655	0.18
334.022	0.18
334.389	0.18
334.757	0.19
335.124	0.19
335.491	0.19
335.859	0.19
336.226	0.19
336.593	0.19
336.96	0.2
337.327	0.2
337.695	0.2
338.062	0.2
338.429	0.21
338.796	0.21
339.163	0.22
339.53	0.22
339.897	0.22
340.263	0.22
340.63	0.23
340.997	0.23
341.364	0.23
341.731	0.23
342.097	0.24
342.464	0.25
342.831	0.25
343.197	0.25
343.564	0.26
343.931	0.26
344.297	0.26
344.664	0.27
345.03	0.27
345.396	0.27
345.763	0.28
346.129	0.29
346.496	0.29
346.862	0.3
347.228	0.3
347.594	0.3
347.961	0.31
348.327	0.31
348.693	0.32
349.059	0.32
349.425	0.33
349.791	0.33
350.157	0.34
350.523	0.34
350.889	0.35
351.255	0.35
351.621	0.36
351.987	0.37
352.353	0.37
352.719	0.38
353.084	0.39
353.45	0.4
353.816	0.41
354.181	0.41
354.547	0.42
354.913	0.43
355.278	0.44
355.644	0.44
356.009	0.45
356.375	0.46
356.74	0.47
357.106	0.48
357.471	0.49
357.836	0.51
358.202	0.51
358.567	0.52
358.932	0.53
359.297	0.54
359.663	0.55
360.028	0.55
360.393	0.56
360.758	0.57
361.123	0.58
361.488	0.59
361.853	0.59
362.218	0.59
362.583	0.6
362.948	0.6
363.312	0.61
363.677	0.62
364.042	0.63
364.407	0.64
364.772	0.66
365.136	0.67
365.501	0.68
365.865	0.69
366.23	0.7
366.595	0.72
366.959	0.73
367.324	0.73
367.688	0.75
368.052	0.75
368.417	0.77
368.781	0.78
369.145	0.79
369.51	0.79
369.874	0.8
370.238	0.8
370.602	0.8
370.967	0.8
371.331	0.79
371.695	0.79
372.059	0.79
372.423	0.78
372.787	0.77
373.151	0.77
373.515	0.77
373.878	0.77
374.242	0.76
374.606	0.77
374.97	0.77
375.334	0.77
375.697	0.76
376.061	0.77
376.425	0.78
376.788	0.78
377.152	0.78
377.515	0.79
377.879	0.79
378.242	0.81
378.606	0.81
378.969	0.81
379.333	0.83
379.696	0.84
380.059	0.85
380.422	0.86
380.786	0.88
381.149	0.88
381.512	0.91
381.875	0.92
382.238	0.93
382.601	0.96
382.964	0.98
383.327	1
383.69	1.03
384.053	1.05
384.416	1.08
384.779	1.11
385.142	1.12
385.504	1.14
385.867	1.15
386.23	1.16
386.593	1.17
386.955	1.18
387.318	1.19
387.68	1.18
388.043	1.18
388.405	1.17
388.768	1.15
389.13	1.14
389.493	1.13
389.855	1.12
390.217	1.12
390.58	1.12
390.942	1.13
391.304	1.13
391.666	1.15
392.028	1.16
392.391	1.19
392.753	1.21
393.115	1.25
393.477	1.29
393.839	1.34
394.201	1.39
394.563	1.42
394.924	1.48
395.286	1.52
395.648	1.56
396.01	1.59
396.371	1.63
396.733	1.63
397.095	1.67
397.456	1.67
397.818	1.66
398.18	1.68
398.541	1.64
398.903	1.62
399.264	1.62
399.625	1.56
399.987	1.51
400.348	1.44
400.709	1.39
401.071	1.34
401.432	1.25
401.793	1.18
402.154	1.12
402.515	1.03
402.876	0.97
403.238	0.9
403.599	0.84
403.96	0.79
404.32	0.72
404.681	0.68
405.042	0.63
405.403	0.59
405.764	0.55
406.125	0.5
406.485	0.47
406.846	0.44
407.207	0.41
407.567	0.39
407.928	0.37
408.288	0.35
408.649	0.33
409.009	0.31
409.37	0.29
409.73	0.28
410.091	0.26
410.451	0.25
410.811	0.25
411.171	0.23
411.532	0.22
411.892	0.21
412.252	0.21
412.612	0.2
412.972	0.18
413.332	0.18
413.692	0.18
414.052	0.16
414.412	0.17
414.772	0.16
415.132	0.15
415.492	0.15
415.851	0.15
416.211	0.14
416.571	0.14
416.931	0.13
417.29	0.13
417.65	0.12
418.009	0.13
418.369	0.12
418.728	0.12
419.088	0.12
419.447	0.11
419.807	0.11
420.166	0.11
420.525	0.11
420.884	0.11
421.244	0.1
421.603	0.1
421.962	0.1
422.321	0.1
422.68	0.1
423.039	0.1
423.398	0.1
423.757	0.1
424.116	0.09
424.475	0.09
424.834	0.09
425.193	0.09
425.551	0.09
425.91	0.09
426.269	0.08
426.628	0.09
426.986	0.09
427.345	0.09
427.703	0.08
428.062	0.08
428.42	0.08
428.779	0.08
429.137	0.08
429.496	0.07
429.854	0.08
430.212	0.08
430.57	0.08
430.929	0.07
431.287	0.07
431.645	0.07
432.003	0.07
432.361	0.08
432.719	0.07
433.077	0.07
433.435	0.07
433.793	0.07
434.151	0.07
434.509	0.07
434.866	0.07
435.224	0.06
435.582	0.06
435.94	0.06
436.297	0.06
436.655	0.06
437.012	0.06
437.37	0.06
437.727	0.07
438.085	0.06
438.442	0.06
438.8	0.06
439.157	0.06
439.514	0.07
439.872	0.06
440.229	0.07
440.586	0.06
440.943	0.06
441.3	0.05
441.657	0.06
442.014	0.06
442.371	0.05
442.728	0.06
443.085	0.06
443.442	0.06
443.799	0.06
444.156	0.05
444.513	0.06
444.869	0.06
445.226	0.04
445.583	0.05
445.939	0.05
446.296	0.05
446.652	0.04
447.009	0.05
447.365	0.04
447.722	0.04
448.078	0.05
448.434	0.05
448.791	0.04
449.147	0.05
449.503	0.05
449.859	0.05
450.215	0.05
450.571	0.04
450.928	0.04
451.284	0.04
451.64	0.04
451.995	0.04
452.351	0.04
452.707	0.04
453.063	0.04
453.419	0.03
453.775	0.04
454.13	0.03
454.486	0.04
454.842	0.03
455.197	0.02
455.553	0.02
455.908	0.02
456.264	0.02
456.619	0.02
456.975	0.03
457.33	0.02
457.685	0.01
458.04	0.01
458.396	0.02
458.751	0.02
459.106	0.01
459.461	0.01
459.816	0
460.171	0.01
460.526	0
460.881	-0
461.236	-0
461.591	0
461.946	-0.01
462.301	-0.01
462.655	-0.01
463.01	-0.01
463.365	-0.01
463.719	-0.01
464.074	-0.02
464.428	-0.03
464.783	-0.03
465.137	-0.02
465.492	-0.03
465.846	-0.03
466.201	-0.03
466.555	-0.03
466.909	-0.03
467.263	-0.03
467.618	-0.02
467.972	-0.02
468.326	-0.02
468.68	-0.03
469.034	-0.03
469.388	-0.03
469.742	-0.03
470.096	-0.03
470.45	-0.02
470.804	-0.03
471.157	-0.03
471.511	-0.03
471.865	-0.02
472.218	-0.02
472.572	-0.02
472.926	-0.02
473.279	-0.02
473.633	-0.02
473.986	-0.01
474.34	-0
474.693	-0
475.046	-0
475.4	0.01
475.753	0.01
476.106	0.01
476.459	0.02
476.812	0.02
477.165	0.02
477.519	0.03
477.872	0.03
478.224	0.03
478.577	0.03
478.93	0.04
479.283	0.04
479.636	0.04
479.989	0.04
480.341	0.04
480.694	0.05
481.047	0.05
481.399	0.05
481.752	0.06
482.104	0.06
482.457	0.06
482.809	0.06
483.162	0.06
483.514	0.07
483.866	0.07
484.219	0.07
484.571	0.07
484.923	0.07
485.275	0.07
485.627	0.08
485.979	0.07
486.331	0.08
486.683	0.08
487.035	0.08
487.387	0.08
487.739	0.08
488.091	0.09
488.443	0.09
488.794	0.09
489.146	0.09
489.498	0.09
489.849	0.09
490.201	0.09
490.552	0.1
490.904	0.1
491.255	0.1
491.607	0.1
491.958	0.1
492.309	0.1
492.661	0.1
493.012	0.11
493.363	0.1
493.714	0.11
494.065	0.11
494.416	0.11
494.767	0.11
495.118	0.12
495.469	0.12
495.82	0.12
496.171	0.12
496.522	0.12
496.872	0.12
497.223	0.13
497.574	0.13
497.924	0.13
498.275	0.13
498.626	0.13
498.976	0.13
499.327	0.13
499.677	0.14
500.027	0.13
500.378	0.14
500.728	0.14
501.078	0.14
501.428	0.14
501.779	0.14
502.129	0.15
502.479	0.14
502.829	0.15
503.179	0.15
503.529	0.15
503.879	0.15
504.229	0.16
504.578	0.15
504.928	0.16
505.278	0.16
505.628	0.16
505.977	0.16
506.327	0.16
506.676	0.17
507.026	0.17
507.375	0.17
507.725	0.17
508.074	0.17
508.424	0.18
508.773	0.17
509.122	0.18
509.471	0.18
509.82	0.18
510.17	0.18
510.519	0.19
510.868	0.19
511.217	0.19
511.566	0.19
511.915	0.19
512.263	0.19
512.612	0.19
512.961	0.19
513.31	0.2
513.659	0.2
514.007	0.2
514.356	0.2
514.704	0.2
515.053	0.2
515.401	0.21
515.75	0.21
516.098	0.21
516.447	0.21
516.795	0.21
517.143	0.22
517.491	0.22
517.839	0.22
518.188	0.22
518.536	0.22
518.884	0.22
519.232	0.23
519.58	0.23
519.928	0.22
520.275	0.23
520.623	0.23
520.971	0.23
521.319	0.24
521.666	0.24
522.014	0.24
522.362	0.24
522.709	0.24
523.057	0.25
523.404	0.24
523.752	0.25
524.099	0.25
524.446	0.25
524.794	0.25
525.141	0.25
525.488	0.26
525.835	0.26
526.182	0.26
526.529	0.26
526.876	0.26
527.223	0.26
527.57	0.26
527.917	0.27
528.264	0.27
528.611	0.27
528.958	0.27
529.304	0.28
529.651	0.28
529.998	0.28
530.344	0.28
530.691	0.28
531.037	0.28
531.384	0.29
531.73	0.29
532.076	0.29
532.423	0.29
532.769	0.29
533.115	0.29
533.461	0.3
533.807	0.3
534.154	0.3
534.5	0.31
534.846	0.31
535.192	0.31
535.537	0.31
535.883	0.31
536.229	0.32
536.575	0.32
536.921	0.32
537.266	0.32
537.612	0.32
537.957	0.32
538.303	0.32
538.649	0.33
538.994	0.33
539.339	0.33
539.685	0.34
540.03	0.34
540.375	0.34
540.721	0.34
541.066	0.35
541.411	0.35
541.756	0.35
542.101	0.35
542.446	0.35
542.791	0.35
543.136	0.36
543.481	0.36
543.825	0.36
544.17	0.37
544.515	0.37
544.86	0.37
545.204	0.37
545.549	0.37
545.893	0.37
546.238	0.38
546.582	0.38
546.927	0.39
547.271	0.39
547.615	0.39
547.96	0.39
548.304	0.39
548.648	0.4
548.992	0.4
549.336	0.4
549.68	0.4
550.024	0.4
550.368	0.4
550.712	0.41
551.056	0.41
551.4	0.41
551.743	0.41
552.087	0.41
552.431	0.41
552.774	0.42
553.118	0.42
553.462	0.42
553.805	0.42
554.148	0.42
554.492	0.43
554.835	0.43
555.178	0.43
555.522	0.43
555.865	0.44
556.208	0.44
556.551	0.44
556.894	0.44
557.237	0.44
557.58	0.44
557.923	0.44
558.266	0.44
558.609	0.44
558.952	0.44
559.294	0.44
559.637	0.45
559.98	0.45
560.322	0.45
560.665	0.45
561.007	0.45
561.35	0.45
561.692	0.45
562.034	0.45
562.377	0.45
562.719	0.45
563.061	0.46
563.403	0.46
563.745	0.46
564.088	0.46
564.43	0.46
564.772	0.46
565.113	0.46
565.455	0.46
565.797	0.46
566.139	0.46
566.481	0.46
566.822	0.46
567.164	0.47
567.506	0.46
567.847	0.47
568.189	0.47
568.53	0.47
568.872	0.46
569.213	0.47
569.554	0.47
569.895	0.47
570.237	0.47
570.578	0.47
570.919	0.47
571.26	0.47
571.601	0.47
571.942	0.47
572.283	0.47
572.624	0.46
572.965	0.47
573.306	0.47
573.646	0.46
573.987	0.47
574.328	0.47
574.668	0.47
575.009	0.47
575.349	0.47
575.69	0.47
576.03	0.47
576.37	0.46
576.711	0.46
577.051	0.46
577.391	0.46
577.731	0.47
578.072	0.47
578.412	0.47
578.752	0.47
579.092	0.47
579.431	0.46
579.771	0.44
580.111	0.42
580.451	0.42
580.791	0.45
581.13	0.47
581.47	0.47
581.81	0.47
582.149	0.47
582.489	0.47
582.828	0.47
583.167	0.44
583.507	0.4
583.846	0.38
584.185	0.39
584.525	0.42
584.864	0.45
585.203	0.47
585.542	0.48
585.881	0.49
586.22	0.49
586.559	0.48
586.898	0.47
587.236	0.47
587.575	0.45
587.914	0.46
588.252	0.48
588.591	0.49
588.93	0.5
589.268	0.49
589.607	0.49
589.945	0.5
590.283	0.5
590.622	0.5
590.96	0.51
591.298	0.51
591.636	0.52
591.974	0.52
592.313	0.52
592.651	0.53
592.989	0.53
593.326	0.53
593.664	0.53
594.002	0.53
594.34	0.53
594.678	0.53
595.015	0.53
595.353	0.51
595.691	0.52
596.028	0.53
596.366	0.54
596.703	0.55
597.04	0.55
597.378	0.55
597.715	0.56
598.052	0.56
598.389	0.57
598.726	0.57
599.064	0.57
599.401	0.57
599.738	0.56
600.074	0.57
600.411	0.57
600.748	0.56
601.085	0.56
601.422	0.55
601.758	0.55
602.095	0.56
602.432	0.56
602.768	0.56
603.105	0.56
603.441	0.57
603.777	0.57
604.114	0.57
604.45	0.58
604.786	0.57
605.122	0.57
605.459	0.57
605.795	0.57
606.131	0.57
606.467	0.57
606.803	0.57
607.139	0.57
607.474	0.57
607.81	0.56
608.146	0.56
608.482	0.57
608.817	0.56
609.153	0.56
609.488	0.56
609.824	0.56
610.159	0.56
610.495	0.55
610.83	0.55
611.165	0.56
611.5	0.55
611.836	0.56
612.171	0.55
612.506	0.55
612.841	0.55
613.176	0.56
613.511	0.56
613.845	0.55
614.18	0.55
614.515	0.55
614.85	0.54
615.184	0.54
615.519	0.54
615.854	0.54
616.188	0.53
616.523	0.53
616.857	0.53
617.191	0.54
617.526	0.53
617.86	0.53
618.194	0.53
618.528	0.53
618.862	0.53
619.196	0.53
619.53	0.53
619.864	0.52
620.198	0.53
620.532	0.52
620.866	0.52
621.2	0.52
621.533	0.52
621.867	0.52
622.201	0.52
622.534	0.52
622.868	0.52
623.201	0.51
623.534	0.51
623.868	0.51
624.201	0.5
624.534	0.5
624.868	0.5
625.201	0.5
625.534	0.5
625.867	0.49
626.2	0.49
626.533	0.48
626.865	0.48
627.198	0.48
627.531	0.48
627.864	0.48
628.196	0.48
628.529	0.48
628.862	0.47
629.194	0.47
629.527	0.47
629.859	0.47
630.191	0.46
630.524	0.46
630.856	0.46
631.188	0.45
631.52	0.45
631.852	0.45
632.184	0.44
632.516	0.44
632.848	0.44
633.18	0.44
633.512	0.43
633.844	0.43
634.175	0.43
634.507	0.43
634.839	0.42
635.17	0.42
635.502	0.41
635.833	0.41
636.165	0.4
636.496	0.4
636.827	0.39
637.159	0.4
637.49	0.39
637.821	0.39
638.152	0.39
638.483	0.38
638.814	0.38
639.145	0.37
639.476	0.37
639.807	0.37
640.137	0.37
640.468	0.37
640.799	0.36
641.129	0.36
641.46	0.35
641.791	0.35
642.121	0.35
642.451	0.35
642.782	0.35
643.112	0.35
643.442	0.34
643.773	0.34
644.103	0.34
644.433	0.34
644.763	0.33
645.093	0.33
645.423	0.33
645.753	0.33
646.082	0.32
646.412	0.32
646.742	0.33
647.072	0.32
647.401	0.32
647.731	0.31
648.06	0.31
648.39	0.32
648.719	0.31
649.048	0.31
649.378	0.31
649.707	0.31
650.036	0.31
650.365	0.3
650.694	0.3
651.023	0.3
651.352	0.3
651.681	0.3
652.01	0.3
652.339	0.3
652.668	0.3
652.996	0.3
653.325	0.3
653.654	0.3
653.982	0.3
654.311	0.3
654.639	0.3
654.967	0.3
655.296	0.3
655.624	0.3
655.952	0.3
656.28	0.3
656.609	0.3
656.937	0.29
657.265	0.3
657.593	0.25
657.92	0.11
658.248	0.05
658.576	0.03
658.904	0.1
659.231	0.18
659.559	0.26
659.887	0.29
660.214	0.3
660.542	0.3
660.869	0.3
661.196	0.3
661.524	0.3
661.851	0.3
662.178	0.3
662.505	0.3
662.832	0.3
663.159	0.3
663.486	0.29
663.813	0.3
664.14	0.29
664.467	0.29
664.794	0.29
665.12	0.29
665.447	0.29
665.774	0.29
666.1	0.29
666.427	0.29
666.753	0.28
667.079	0.28
667.406	0.28
667.732	0.27
668.058	0.28
668.384	0.28
668.71	0.28
669.036	0.28
669.362	0.28
669.688	0.28
670.014	0.28
670.34	0.27
670.666	0.27
670.991	0.27
671.317	0.27
671.643	0.27
671.968	0.27
672.294	0.27
672.619	0.27
672.945	0.27
673.27	0.27
673.595	0.27
673.92	0.26
674.246	0.26
674.571	0.25
674.896	0.25
675.221	0.25
675.546	0.26
675.87	0.26
676.195	0.25
676.52	0.25
676.845	0.25
677.169	0.25
677.494	0.24
677.819	0.24
678.143	0.24
678.468	0.24
678.792	0.23
679.116	0.23
679.44	0.23
679.765	0.23
680.089	0.22
680.413	0.22
680.737	0.21
681.061	0.21
681.385	0.21
681.709	0.21
682.033	0.21
682.356	0.21
682.68	0.21
683.004	0.21
683.327	0.2
683.651	0.2
683.974	0.2
684.298	0.2
684.621	0.2
684.944	0.19
685.268	0.19
685.591	0.19
685.914	0.19
686.237	0.18
686.56	0.18
686.883	0.17
687.206	0.17
687.529	0.17
687.852	0.16
688.175	0.16
688.497	0.16
688.82	0.16
689.142	0.16
689.465	0.16
689.787	0.16
690.11	0.16
690.432	0.16
690.755	0.16
691.077	0.16
691.399	0.15
691.721	0.15
692.043	0.15
692.365	0.15
692.687	0.14
693.009	0.14
693.331	0.14
693.653	0.13
693.974	0.13
694.296	0.13
694.618	0.13
694.939	0.13
695.261	0.12
695.582	0.13
695.904	0.12
696.225	0.13
696.546	0.13
696.868	0.13
697.189	0.12
697.51	0.12
697.831	0.12
698.152	0.12
698.473	0.12
698.794	0.11
699.114	0.11
699.435	0.09
699.756	0.09
700.077	0.1
700.397	0.1
700.718	0.1
701.038	0.1
701.359	0.1
701.679	0.1
701.999	0.1
702.32	0.1
702.64	0.1
702.96	0.1
703.28	0.1
703.6	0.1
703.92	0.1
704.24	0.09
704.56	0.09
704.879	0.09
705.199	0.09
705.519	0.09
705.838	0.09
706.158	0.09
706.478	0.09
706.797	0.09
707.116	0.09
707.436	0.09
707.755	0.09
708.074	0.09
708.393	0.08
708.712	0.08
709.031	0.07
709.35	0.06
709.669	0.06
709.988	0.06
710.307	0.07
710.626	0.07
710.944	0.08
711.263	0.08
711.582	0.08
711.9	0.08
712.219	0.08
712.537	0.08
712.855	0.08
713.174	0.08
713.492	0.08
713.81	0.08
714.128	0.08
714.446	0.08
714.764	0.08
715.082	0.07
715.4	0.08
715.718	0.07
716.035	0.07
716.353	0.07
716.671	0.08
716.988	0.08
717.306	0.07
717.623	0.08
717.941	0.08
718.258	0.08
718.575	0.08
718.893	0.09
719.21	0.09
719.527	0.09
719.844	0.08
720.161	0.09
720.478	0.08
720.795	0.09
721.112	0.09
721.428	0.09
721.745	0.09
722.062	0.09
722.378	0.1
722.695	0.1
723.011	0.1
723.328	0.1
723.644	0.1
723.96	0.1
724.276	0.1
724.593	0.1
724.909	0.1
725.225	0.09
725.541	0.1
725.857	0.1
726.173	0.1
726.488	0.1
726.804	0.1
727.12	0.1
727.435	0.1
727.751	0.1
728.067	0.1
728.382	0.1
728.697	0.1
729.013	0.1
729.328	0.1
729.643	0.1
729.958	0.1
730.273	0.1
730.588	0.1
730.903	0.1
731.218	0.1
731.533	0.1
731.848	0.1
732.163	0.1
732.477	0.1
732.792	0.09
733.107	0.09
733.421	0.09
733.736	0.09
734.05	0.1
734.364	0.09
734.678	0.1
734.993	0.09
735.307	0.1
735.621	0.09
735.935	0.09
736.249	0.09
736.563	0.1
736.877	0.1
737.19	0.1
737.504	0.1
737.818	0.1
738.131	0.1
738.445	0.1
738.758	0.1
739.072	0.09
739.385	0.1
739.698	0.09
740.012	0.1
740.325	0.1
740.638	0.09
740.951	0.09
741.264	0.09
741.577	0.09
741.89	0.09
742.203	0.09
742.515	0.09
742.828	0.09
743.141	0.09
743.453	0.09
743.766	0.09
744.078	0.09
744.391	0.08
744.703	0.09
745.015	0.09
745.327	0.08
745.639	0.08
745.952	0.08
746.264	0.08
746.575	0.08
746.887	0.08
747.199	0.08
747.511	0.08
747.823	0.08
748.134	0.08
748.446	0.08
748.757	0.08
749.069	0.07
749.38	0.08
749.692	0.08
750.003	0.08
750.314	0.08
750.625	0.08
750.936	0.07
751.248	0.07
751.559	0.07
751.869	0.07
752.18	0.07
752.491	0.06
752.802	0.07
753.112	0.07
753.423	0.07
753.734	0.07
754.044	0.07
754.355	0.07
754.665	0.06
754.975	0.06
755.285	0.06
755.596	0.06
755.906	0.05
756.216	0.05
756.526	0.05
756.836	0.05
757.146	0.05
757.455	0.05
757.765	0.05
758.075	0.05
758.385	0.05
758.694	0.05
759.004	0.05
759.313	0.05
759.622	0.05
759.932	0.05
760.241	0.04
760.55	0.04
760.859	0.04
761.168	0.04
761.477	0.04
761.786	0.04
762.095	0.03
762.404	0.03
762.713	0.04
763.021	0.04
763.33	0.04
763.639	0.03
763.947	0.03
764.256	0.03
764.564	0.03
764.872	0.03
765.181	0.03
765.489	0.03
765.797	0.03
766.105	0.03
766.413	0.03
766.721	0.03
767.029	0.03
767.337	0.03
767.644	0.03
767.952	0.03
768.26	0.03
768.567	0.03
768.875	0.03
769.182	0.03
769.49	0.03
769.797	0.03
770.104	0.03
770.411	0.03
770.718	0.03
771.026	0.03
771.333	0.03
771.639	0.03
771.946	0.03
772.253	0.03
772.56	0.03
772.867	0.03
773.173	0.03
773.48	0.02
773.786	0.02
774.093	0.02
774.399	0.02
774.705	0.02
775.012	0.02
775.318	0.02
775.624	0.02
775.93	0.02
776.236	0.02
776.542	0.02
776.848	0.02
777.154	0.02
777.459	0.02
777.765	0.03
778.071	0.03
778.376	0.03
778.682	0.03
778.987	0.03
779.292	0.03
779.598	0.03
779.903	0.03
780.208	0.03
780.513	0.02
780.818	0.02
781.123	0.02
781.428	0.02
781.733	0.02
782.038	0.02
782.343	0.03
782.647	0.03
782.952	0.03
783.256	0.03
783.561	0.03
783.865	0.03
784.17	0.03
784.474	0.03
784.778	0.03
785.082	0.03
785.386	0.03
785.69	0.03
785.994	0.03
786.298	0.03
786.602	0.03
786.906	0.03
787.209	0.03
787.513	0.03
787.817	0.04
788.12	0.03
788.424	0.03
788.727	0.03
789.03	0.03
789.333	0.03
789.637	0.03
789.94	0.03
790.243	0.03
790.546	0.03
790.849	0.03
791.152	0.03
791.454	0.03
791.757	0.03
792.06	0.03
792.362	0.03
792.665	0.03
792.967	0.03
793.27	0.03
793.572	0.03
793.874	0.03
794.177	0.03
794.479	0.03
794.781	0.02
795.083	0.02
795.385	0.02
795.687	0.02
795.989	0.02
796.29	0.02
796.592	0.03
796.894	0.03
797.195	0.03
797.497	0.03
797.798	0.03
798.1	0.03
798.401	0.03
798.702	0.03
799.003	0.03
799.304	0.03
799.605	0.04
799.906	0.04
800.207	0.03
800.508	0.03
800.809	0.03
801.11	0.03
801.41	0.02
801.711	0.02
802.011	0.03
802.312	0.02
802.612	0.02
802.913	0.02
803.213	0.02
803.513	0.02
803.813	0.02
804.113	0.02
804.413	0.03
804.713	0.03
805.013	0.03
805.313	0.03
805.613	0.03
805.912	0.03
806.212	0.03
806.511	0.03
806.811	0.03
807.11	0.03
807.41	0.03
807.709	0.03
808.008	0.03
808.307	0.03
808.606	0.03
808.905	0.03
809.204	0.03
809.503	0.03
809.802	0.03
810.101	0.03
810.399	0.03
810.698	0.03
810.997	0.03
811.295	0.03
811.593	0.03
811.892	0.03
812.19	0.03
812.488	0.03
812.786	0.03
813.084	0.03
813.383	0.03
813.68	0.03
813.978	0.04
814.276	0.04
814.574	0.04
814.872	0.04
815.169	0.04
815.467	0.03
815.764	0.04
816.062	0.04
816.359	0.04
816.656	0.03
816.954	0.04
817.251	0.04
817.548	0.04
817.845	0.04
818.142	0.04
818.439	0.04
818.735	0.05
819.032	0.04
819.329	0.04
819.626	0.04
819.922	0.03
820.219	0.04
820.515	0.04
820.811	0.04
821.108	0.04
821.404	0.04
821.7	0.04
821.996	0.04
822.292	0.04
822.588	0.04
822.884	0.04
823.18	0.04
823.475	0.04
823.771	0.04
824.067	0.04
824.362	0.04
824.658	0.04
824.953	0.04
825.249	0.04
825.544	0.04
825.839	0.04
826.134	0.04
826.429	0.05
826.724	0.05
827.019	0.05
827.314	0.05
827.609	0.04
827.904	0.03
828.198	0.04
828.493	0.04
828.787	0.04
829.082	0.04
829.376	0.04
829.671	0.04
829.965	0.04
830.259	0.04
830.553	0.04
830.847	0.05
831.141	0.05
831.435	0.05
831.729	0.05
832.023	0.05
832.317	0.06
832.61	0.05
832.904	0.05
833.197	0.05
833.491	0.05
833.784	0.06
834.077	0.05
834.371	0.05
834.664	0.05
834.957	0.05
835.25	0.05
835.543	0.06
835.836	0.05
836.129	0.05
836.421	0.06
836.714	0.06
837.007	0.05
837.299	0.05
837.592	0.05
837.884	0.06
838.177	0.05
838.469	0.05
838.761	0.05
839.053	0.05
839.345	0.06
839.637	0.05
839.929	0.06
840.221	0.07
840.513	0.06
840.805	0.07
841.096	0.06
841.388	0.07
841.68	0.06
841.971	0.05
842.262	0.06
842.554	0.06
842.845	0.05
843.136	0.06
843.427	0.06
843.718	0.06
844.009	0.06
844.3	0.05
844.591	0.05
844.882	0.05
845.173	0.05
845.463	0.05
845.754	0.04
846.044	0.04
846.335	0.05
846.625	0.05
846.915	0.05
847.206	0.05
847.496	0.06
847.786	0.05
848.076	0.06
848.366	0.06
848.656	0.05
848.945	0.05
849.235	0.05
849.525	0.06
849.814	0.04
850.104	0.05
850.393	0.04
850.683	0.05
850.972	0.05
851.261	0.05
851.551	0.05
851.84	0.05
852.129	0.06
852.418	0.06
852.707	0.06
852.995	0.05
853.284	0.06
853.573	0.05
853.862	0.06
854.15	0.06
854.439	0.06
854.727	0.05
855.015	0.05
855.304	0.05
855.592	0.05
855.88	0.04
856.168	0.05
856.456	0.05
856.744	0.05
857.032	0.05
857.32	0.05
857.607	0.07
857.895	0.04
858.183	0.06
858.47	0.04
858.757	0.04
859.045	0.06
859.332	0.06
859.619	0.05
859.907	0.06
860.194	0.06
860.481	0.05
860.768	0.06
861.054	0.06
861.341	0.05
861.628	0.03
861.915	0.06
862.201	0.04
862.488	0.05
862.774	0.06
863.061	0.04
863.347	0.05
863.633	0.04
863.919	0.03
864.205	0.06
864.491	0.05
864.777	0.04
865.063	0.03
865.349	0.05
865.635	0.06
865.92	0.03
866.206	0.03
866.492	0.04
866.777	0.06
867.062	0.07
867.348	0.05
867.633	0.04
867.918	0.03
868.203	0.04
868.488	0.03
868.773	0.04
869.058	0.04
869.343	0.04
869.628	0.02
869.912	0.01
870.197	0.02
870.482	0.05
870.766	0.07
871.05	0
871.335	0.06
871.619	0.02
871.903	0.01
872.187	0.06
872.471	0.02
872.755	-0.02
873.039	0.02
873.323	0.05
873.607	0.03
873.89	0.01
874.174	0.01
874.458	0.01
874.741	-0.01
875.024	0.01
875.308	0.02
875.591	-0.03
875.874	0.01
876.157	0.05
876.44	-0.05
876.723	-0
877.006	-0.02
877.289	-0.03
877.572	0.05
877.854	-0
878.137	0.03
878.42	0.04
878.702	-0.03
878.984	-0.05
879.267	-0.06
879.549	0
879.831	0.05
880.113	0.07
880.395	0.04
880.677	-0.02
880.959	-0.05
