Data from Rubpy_EV_1800_EDTA_Buffered_Absorbance_15-21-38-623.txt Node
Date: Tue Jun 30 15:21:38 BST 2026
User: fpm-admin
Spectrometer: OFX00224
Trigger mode: 0
Integration Time (sec): 7.000000E-2
Scans to average: 3
Nonlinearity correction enabled: false
Boxcar width: 0
Storing dark spectrum: false
XAxis mode: Wavelengths
Number of Pixels in Spectrum: 2136
>>>>>Begin Spectral Data<<<<<
154.91	-0.55
155.289	-0
155.669	-0.45
156.048	-0
156.428	-0.12
156.807	-0.06
157.186	0.3
157.566	-0.09
157.945	0.35
158.325	-0.53
158.704	-0
159.083	0.7
159.462	0.29
159.842	-0.23
160.221	-0
160.6	-0.52
160.979	-0.54
161.359	0.36
161.738	0.3
162.117	0.07
162.496	0.42
162.875	-0.26
163.254	-0.26
163.633	0.9
164.012	-0.05
164.391	-0
164.77	0.27
165.149	-0.09
165.528	-0
165.907	-0
166.286	0.02
166.665	-0.3
167.044	-0.85
167.423	-0
167.802	0.72
168.181	0.74
168.559	-0.41
168.938	-0
169.317	-0.39
169.696	1.36
170.074	-0
170.453	-0
170.832	0.47
171.21	-0
171.589	-0
171.968	-0
172.346	-0
172.725	0.1
173.103	-0.09
173.482	0.67
173.861	0.34
174.239	-0.05
174.617	0.12
174.996	0.16
175.374	-0
175.753	-0
176.131	0.41
176.51	-0.1
176.888	1.08
177.266	1.43
177.645	-0.23
178.023	0.72
178.401	-0.11
178.779	-0.16
179.158	-0.25
179.536	0.14
179.914	-0
180.292	-0.37
180.67	-0.81
181.048	-0
181.427	-0.08
181.805	0.06
182.183	0.27
182.561	-0
182.939	-0.2
183.317	-0.35
183.695	-0
184.073	0.08
184.451	0.46
184.829	0.21
185.206	-0
185.584	0.22
185.962	-0
186.34	0.25
186.718	-1.38
187.096	-0
187.473	-0
187.851	-0.33
188.229	0.43
188.607	0.14
188.984	0.03
189.362	0.06
189.74	0.03
190.117	0.06
190.495	0.13
190.872	0.04
191.25	-0
191.627	-0.01
192.005	0.03
192.382	0.13
192.76	0.12
193.137	0.1
193.515	-0
193.892	0.13
194.269	0.17
194.647	0.13
195.024	0.1
195.401	0.09
195.779	0
196.156	0.02
196.533	0.13
196.91	0.07
197.288	0.12
197.665	0.18
198.042	0.17
198.419	0.1
198.796	0.15
199.173	0.11
199.55	0.1
199.927	0.12
200.304	0.13
200.681	0.05
201.058	0.14
201.435	0.11
201.812	0.15
202.189	-0.01
202.566	0.04
202.943	0.11
203.32	0.07
203.697	-0.02
204.073	0.22
204.45	0.14
204.827	0.11
205.204	0.04
205.58	0.09
205.957	0.07
206.334	0.19
206.71	0.06
207.087	0.05
207.464	0.04
207.84	0.1
208.217	0.12
208.593	0.05
208.97	0.07
209.346	0.11
209.723	0.02
210.099	0.12
210.476	0.13
210.852	0.17
211.228	0.03
211.605	0.06
211.981	0.11
212.357	0.1
212.733	0.1
213.11	0.09
213.486	0.13
213.862	0.13
214.238	0.1
214.614	0.08
214.991	0.13
215.367	-0.01
215.743	0.13
216.119	0.03
216.495	0.14
216.871	0.11
217.247	0.08
217.623	0.04
217.999	0.1
218.375	0.05
218.751	0.05
219.127	0.08
219.502	0.05
219.878	0.09
220.254	0.15
220.63	0.05
221.006	0.15
221.381	0.1
221.757	0.1
222.133	0.12
222.508	0.09
222.884	0.17
223.26	0.07
223.635	0.07
224.011	0.06
224.386	0.14
224.762	0.07
225.137	0.12
225.513	0.04
225.888	0.07
226.264	0.06
226.639	0.1
227.014	0.09
227.39	0.11
227.765	0.15
228.14	0.08
228.516	0.12
228.891	0.15
229.266	0.05
229.641	0.17
230.017	0.15
230.392	0.07
230.767	0.1
231.142	0.01
231.517	0.08
231.892	0.06
232.267	0.06
232.642	0.07
233.017	0.04
233.392	0.17
233.767	0.1
234.142	0.06
234.517	0.11
234.892	0.13
235.267	0.08
235.641	0.06
236.016	0.11
236.391	0.05
236.766	0.08
237.14	0.07
237.515	-0.01
237.89	0.07
238.264	0.06
238.639	0.08
239.014	0.07
239.388	0.1
239.763	0.08
240.137	0.08
240.512	0.09
240.886	0.11
241.261	0.1
241.635	0.08
242.009	0.04
242.384	0.15
242.758	0.22
243.132	0.11
243.507	0.09
243.881	0.04
244.255	0.04
244.629	0.11
245.004	0.08
245.378	0.07
245.752	0.11
246.126	0.11
246.5	0.11
246.874	0.03
247.248	0.03
247.622	0.05
247.996	0.11
248.37	0.06
248.744	0.1
249.118	0.1
249.492	0.02
249.866	0.02
250.24	0.12
250.613	0.07
250.987	0.13
251.361	0.11
251.735	0.11
252.108	0.1
252.482	0.08
252.856	0.1
253.229	0.02
253.603	0.08
253.977	0.11
254.35	0.11
254.724	0.1
255.097	0.18
255.471	0.1
255.844	0.09
256.218	0.15
256.591	0.07
256.964	0.11
257.338	0.07
257.711	0.13
258.084	0.15
258.458	0.12
258.831	0.07
259.204	0.1
259.577	0.01
259.95	0.12
260.323	0.08
260.697	0.04
261.07	0.06
261.443	0.17
261.816	0.06
262.189	0.11
262.562	0.09
262.935	0.09
263.308	0.08
263.68	0.15
264.053	0.1
264.426	0.11
264.799	0.02
265.172	0.13
265.545	0.09
265.917	0.11
266.29	0.16
266.663	0.09
267.035	0.12
267.408	0.06
267.781	0.11
268.153	0.15
268.526	0.14
268.898	0.07
269.271	0.14
269.643	0.07
270.016	0.13
270.388	0.06
270.76	0.13
271.133	0.12
271.505	0.13
271.877	0.16
272.25	0.09
272.622	0.03
272.994	0.08
273.366	0.12
273.739	0.12
274.111	0.09
274.483	0.01
274.855	0.12
275.227	0.12
275.599	0.09
275.971	0.09
276.343	0.17
276.715	0.18
277.087	0.11
277.459	0.13
277.831	0.06
278.203	0.08
278.574	0.14
278.946	0.14
279.318	0.11
279.69	0.1
280.061	0.14
280.433	0.14
280.805	0.07
281.176	0.06
281.548	0.07
281.92	0.11
282.291	0.08
282.663	0.09
283.034	0.09
283.406	0.1
283.777	0.09
284.148	0.17
284.52	0.08
284.891	0.05
285.262	0.1
285.634	0.14
286.005	0.12
286.376	0.05
286.747	0.1
287.119	0.09
287.49	0.06
287.861	0.09
288.232	0.03
288.603	0.04
288.974	0.1
289.345	0.03
289.716	0.09
290.087	0.05
290.458	0.07
290.829	0.13
291.2	0.11
291.571	0.08
291.941	0.06
292.312	0.06
292.683	0.07
293.054	0.07
293.424	0.11
293.795	0.14
294.166	0.13
294.536	0.11
294.907	0.12
295.277	0.12
295.648	0.09
296.018	0.1
296.389	0.09
296.759	0.13
297.13	0.09
297.5	0.11
297.871	0.1
298.241	0.1
298.611	0.15
298.981	0.11
299.352	0.1
299.722	0.09
300.092	0.04
300.462	0.13
300.832	0.08
301.202	0.11
301.573	0.06
301.943	0.09
302.313	0.07
302.683	0.1
303.053	0.07
303.422	0.08
303.792	0.07
304.162	0.08
304.532	0.08
304.902	0.07
305.272	0.07
305.641	0.08
306.011	0.07
306.381	0.09
306.75	0.08
307.12	0.07
307.49	0.09
307.859	0.08
308.229	0.08
308.598	0.08
308.968	0.08
309.337	0.08
309.707	0.08
310.076	0.08
310.445	0.08
310.815	0.09
311.184	0.09
311.553	0.08
311.923	0.08
312.292	0.09
312.661	0.09
313.03	0.09
313.399	0.09
313.768	0.09
314.137	0.09
314.506	0.09
314.875	0.09
315.244	0.09
315.613	0.09
315.982	0.09
316.351	0.09
316.72	0.08
317.089	0.09
317.458	0.08
317.826	0.08
318.195	0.08
318.564	0.08
318.933	0.08
319.301	0.08
319.67	0.09
320.038	0.08
320.407	0.08
320.775	0.08
321.144	0.08
321.512	0.07
321.881	0.07
322.249	0.08
322.618	0.08
322.986	0.08
323.354	0.08
323.723	0.08
324.091	0.07
324.459	0.07
324.827	0.07
325.195	0.07
325.564	0.06
325.932	0.07
326.3	0.07
326.668	0.07
327.036	0.06
327.404	0.07
327.772	0.07
328.14	0.07
328.508	0.06
328.875	0.07
329.243	0.07
329.611	0.07
329.979	0.06
330.346	0.07
330.714	0.07
331.082	0.07
331.449	0.07
331.817	0.07
332.185	0.07
332.552	0.07
332.92	0.07
333.287	0.07
333.655	0.07
334.022	0.07
334.389	0.07
334.757	0.08
335.124	0.08
335.491	0.08
335.859	0.08
336.226	0.08
336.593	0.08
336.96	0.08
337.327	0.08
337.695	0.08
338.062	0.08
338.429	0.08
338.796	0.09
339.163	0.09
339.53	0.09
339.897	0.09
340.263	0.09
340.63	0.09
340.997	0.09
341.364	0.1
341.731	0.09
342.097	0.1
342.464	0.1
342.831	0.1
343.197	0.1
343.564	0.11
343.931	0.11
344.297	0.11
344.664	0.11
345.03	0.11
345.396	0.11
345.763	0.11
346.129	0.12
346.496	0.12
346.862	0.12
347.228	0.12
347.594	0.12
347.961	0.13
348.327	0.13
348.693	0.13
349.059	0.13
349.425	0.14
349.791	0.13
350.157	0.14
350.523	0.14
350.889	0.14
351.255	0.14
351.621	0.15
351.987	0.15
352.353	0.15
352.719	0.16
353.084	0.16
353.45	0.17
353.816	0.17
354.181	0.17
354.547	0.17
354.913	0.18
355.278	0.19
355.644	0.19
356.009	0.19
356.375	0.19
356.74	0.19
357.106	0.2
357.471	0.21
357.836	0.21
358.202	0.21
358.567	0.22
358.932	0.22
359.297	0.23
359.663	0.23
360.028	0.24
360.393	0.24
360.758	0.25
361.123	0.25
361.488	0.25
361.853	0.25
362.218	0.25
362.583	0.26
362.948	0.26
363.312	0.26
363.677	0.27
364.042	0.27
364.407	0.28
364.772	0.28
365.136	0.28
365.501	0.29
365.865	0.3
366.23	0.31
366.595	0.32
366.959	0.32
367.324	0.32
367.688	0.33
368.052	0.33
368.417	0.34
368.781	0.35
369.145	0.36
369.51	0.36
369.874	0.37
370.238	0.36
370.602	0.36
370.967	0.36
371.331	0.36
371.695	0.35
372.059	0.36
372.423	0.35
372.787	0.35
373.151	0.35
373.515	0.35
373.878	0.35
374.242	0.35
374.606	0.35
374.97	0.35
375.334	0.35
375.697	0.36
376.061	0.35
376.425	0.36
376.788	0.36
377.152	0.36
377.515	0.37
377.879	0.37
378.242	0.38
378.606	0.38
378.969	0.38
379.333	0.39
379.696	0.39
380.059	0.4
380.422	0.41
380.786	0.41
381.149	0.43
381.512	0.43
381.875	0.44
382.238	0.45
382.601	0.47
382.964	0.48
383.327	0.49
383.69	0.51
384.053	0.52
384.416	0.53
384.779	0.54
385.142	0.55
385.504	0.56
385.867	0.57
386.23	0.57
386.593	0.59
386.955	0.58
387.318	0.59
387.68	0.58
388.043	0.59
388.405	0.58
388.768	0.57
389.13	0.57
389.493	0.56
389.855	0.55
390.217	0.55
390.58	0.56
390.942	0.56
391.304	0.56
391.666	0.57
392.028	0.58
392.391	0.59
392.753	0.61
393.115	0.63
393.477	0.65
393.839	0.68
394.201	0.7
394.563	0.72
394.924	0.76
395.286	0.79
395.648	0.81
396.01	0.83
396.371	0.87
396.733	0.88
397.095	0.9
397.456	0.9
397.818	0.91
398.18	0.9
398.541	0.89
398.903	0.86
399.264	0.85
399.625	0.81
399.987	0.79
400.348	0.75
400.709	0.71
401.071	0.69
401.432	0.64
401.793	0.59
402.154	0.55
402.515	0.52
402.876	0.48
403.238	0.45
403.599	0.41
403.96	0.39
404.32	0.36
404.681	0.33
405.042	0.31
405.403	0.29
405.764	0.27
406.125	0.24
406.485	0.23
406.846	0.22
407.207	0.2
407.567	0.19
407.928	0.18
408.288	0.17
408.649	0.16
409.009	0.15
409.37	0.14
409.73	0.14
410.091	0.13
410.451	0.12
410.811	0.12
411.171	0.11
411.532	0.11
411.892	0.1
412.252	0.1
412.612	0.09
412.972	0.09
413.332	0.09
413.692	0.09
414.052	0.08
414.412	0.08
414.772	0.08
415.132	0.07
415.492	0.07
415.851	0.07
416.211	0.07
416.571	0.07
416.931	0.06
417.29	0.07
417.65	0.06
418.009	0.06
418.369	0.05
418.728	0.06
419.088	0.05
419.447	0.05
419.807	0.05
420.166	0.05
420.525	0.06
420.884	0.05
421.244	0.05
421.603	0.04
421.962	0.06
422.321	0.05
422.68	0.05
423.039	0.05
423.398	0.05
423.757	0.05
424.116	0.04
424.475	0.04
424.834	0.04
425.193	0.04
425.551	0.04
425.91	0.04
426.269	0.04
426.628	0.04
426.986	0.04
427.345	0.04
427.703	0.04
428.062	0.04
428.42	0.04
428.779	0.04
429.137	0.04
429.496	0.03
429.854	0.03
430.212	0.04
430.57	0.04
430.929	0.03
431.287	0.03
431.645	0.03
432.003	0.04
432.361	0.04
432.719	0.03
433.077	0.03
433.435	0.03
433.793	0.04
434.151	0.03
434.509	0.03
434.866	0.03
435.224	0.03
435.582	0.03
435.94	0.03
436.297	0.04
436.655	0.04
437.012	0.03
437.37	0.03
437.727	0.03
438.085	0.03
438.442	0.03
438.8	0.03
439.157	0.03
439.514	0.03
439.872	0.03
440.229	0.03
440.586	0.02
440.943	0.03
441.3	0.03
441.657	0.02
442.014	0.02
442.371	0.02
442.728	0.03
443.085	0.02
443.442	0.03
443.799	0.02
444.156	0.02
444.513	0.03
444.869	0.02
445.226	0.02
445.583	0.02
445.939	0.02
446.296	0.02
446.652	0.02
447.009	0.02
447.365	0.02
447.722	0.02
448.078	0.02
448.434	0.01
448.791	0.01
449.147	0.01
449.503	0.02
449.859	0.02
450.215	0.01
450.571	0.02
450.928	0.01
451.284	0.01
451.64	0
451.995	0.02
452.351	0.01
452.707	0
453.063	0.01
453.419	0
453.775	0.01
454.13	0
454.486	0.01
454.842	0
455.197	0
455.553	-0.01
455.908	-0
456.264	-0.01
456.619	-0.01
456.975	-0.01
457.33	-0.01
457.685	-0.01
458.04	-0.02
458.396	-0.02
458.751	-0.01
459.106	-0.02
459.461	-0.02
459.816	-0.03
460.171	-0.02
460.526	-0.02
460.881	-0.03
461.236	-0.03
461.591	-0.03
461.946	-0.03
462.301	-0.04
462.655	-0.04
463.01	-0.04
463.365	-0.04
463.719	-0.04
464.074	-0.05
464.428	-0.06
464.783	-0.06
465.137	-0.05
465.492	-0.06
465.846	-0.06
466.201	-0.06
466.555	-0.06
466.909	-0.06
467.263	-0.06
467.618	-0.05
467.972	-0.05
468.326	-0.05
468.68	-0.06
469.034	-0.06
469.388	-0.06
469.742	-0.06
470.096	-0.06
470.45	-0.06
470.804	-0.06
471.157	-0.06
471.511	-0.06
471.865	-0.05
472.218	-0.06
472.572	-0.05
472.926	-0.06
473.279	-0.05
473.633	-0.05
473.986	-0.04
474.34	-0.04
474.693	-0.04
475.046	-0.04
475.4	-0.03
475.753	-0.03
476.106	-0.03
476.459	-0.02
476.812	-0.02
477.165	-0.02
477.519	-0.02
477.872	-0.01
478.224	-0.02
478.577	-0.01
478.93	-0.01
479.283	-0.01
479.636	-0.01
479.989	-0.01
480.341	-0
480.694	-0
481.047	-0
481.399	0
481.752	0.01
482.104	0.01
482.457	0.01
482.809	0.01
483.162	0.01
483.514	0.02
483.866	0.02
484.219	0.02
484.571	0.02
484.923	0.02
485.275	0.02
485.627	0.02
485.979	0.02
486.331	0.02
486.683	0.02
487.035	0.02
487.387	0.02
487.739	0.02
488.091	0.03
488.443	0.03
488.794	0.03
489.146	0.03
489.498	0.03
489.849	0.03
490.201	0.03
490.552	0.03
490.904	0.03
491.255	0.03
491.607	0.03
491.958	0.03
492.309	0.03
492.661	0.03
493.012	0.04
493.363	0.04
493.714	0.03
494.065	0.04
494.416	0.04
494.767	0.04
495.118	0.04
495.469	0.04
495.82	0.04
496.171	0.05
496.522	0.04
496.872	0.05
497.223	0.05
497.574	0.05
497.924	0.05
498.275	0.04
498.626	0.05
498.976	0.05
499.327	0.05
499.677	0.05
500.027	0.05
500.378	0.06
500.728	0.05
501.078	0.05
501.428	0.05
501.779	0.05
502.129	0.06
502.479	0.05
502.829	0.06
503.179	0.05
503.529	0.06
503.879	0.06
504.229	0.06
504.578	0.06
504.928	0.06
505.278	0.06
505.628	0.06
505.977	0.06
506.327	0.07
506.676	0.07
507.026	0.06
507.375	0.07
507.725	0.07
508.074	0.07
508.424	0.07
508.773	0.07
509.122	0.07
509.471	0.07
509.82	0.08
510.17	0.08
510.519	0.08
510.868	0.08
511.217	0.07
511.566	0.08
511.915	0.07
512.263	0.08
512.612	0.08
512.961	0.08
513.31	0.08
513.659	0.08
514.007	0.08
514.356	0.08
514.704	0.08
515.053	0.08
515.401	0.09
515.75	0.09
516.098	0.09
516.447	0.09
516.795	0.09
517.143	0.09
517.491	0.09
517.839	0.09
518.188	0.09
518.536	0.09
518.884	0.09
519.232	0.1
519.58	0.1
519.928	0.1
520.275	0.1
520.623	0.1
520.971	0.1
521.319	0.1
521.666	0.1
522.014	0.1
522.362	0.1
522.709	0.1
523.057	0.1
523.404	0.1
523.752	0.1
524.099	0.11
524.446	0.11
524.794	0.1
525.141	0.11
525.488	0.11
525.835	0.11
526.182	0.11
526.529	0.11
526.876	0.12
527.223	0.12
527.57	0.12
527.917	0.12
528.264	0.12
528.611	0.12
528.958	0.12
529.304	0.12
529.651	0.12
529.998	0.12
530.344	0.12
530.691	0.12
531.037	0.12
531.384	0.13
531.73	0.13
532.076	0.13
532.423	0.13
532.769	0.13
533.115	0.13
533.461	0.13
533.807	0.13
534.154	0.13
534.5	0.14
534.846	0.13
535.192	0.14
535.537	0.14
535.883	0.14
536.229	0.14
536.575	0.14
536.921	0.14
537.266	0.14
537.612	0.14
537.957	0.14
538.303	0.14
538.649	0.15
538.994	0.15
539.339	0.15
539.685	0.15
540.03	0.15
540.375	0.16
540.721	0.15
541.066	0.16
541.411	0.16
541.756	0.16
542.101	0.16
542.446	0.16
542.791	0.16
543.136	0.16
543.481	0.16
543.825	0.16
544.17	0.17
544.515	0.17
544.86	0.17
545.204	0.17
545.549	0.17
545.893	0.17
546.238	0.17
546.582	0.17
546.927	0.18
547.271	0.18
547.615	0.18
547.96	0.18
548.304	0.18
548.648	0.18
548.992	0.18
549.336	0.18
549.68	0.18
550.024	0.18
550.368	0.19
550.712	0.19
551.056	0.19
551.4	0.19
551.743	0.19
552.087	0.19
552.431	0.19
552.774	0.19
553.118	0.2
553.462	0.19
553.805	0.19
554.148	0.19
554.492	0.19
554.835	0.2
555.178	0.2
555.522	0.2
555.865	0.2
556.208	0.2
556.551	0.2
556.894	0.2
557.237	0.2
557.58	0.2
557.923	0.2
558.266	0.2
558.609	0.2
558.952	0.2
559.294	0.2
559.637	0.2
559.98	0.2
560.322	0.21
560.665	0.21
561.007	0.21
561.35	0.2
561.692	0.21
562.034	0.21
562.377	0.21
562.719	0.21
563.061	0.21
563.403	0.21
563.745	0.21
564.088	0.21
564.43	0.21
564.772	0.21
565.113	0.21
565.455	0.21
565.797	0.21
566.139	0.22
566.481	0.22
566.822	0.22
567.164	0.22
567.506	0.22
567.847	0.22
568.189	0.22
568.53	0.22
568.872	0.22
569.213	0.22
569.554	0.22
569.895	0.22
570.237	0.22
570.578	0.22
570.919	0.22
571.26	0.22
571.601	0.21
571.942	0.22
572.283	0.22
572.624	0.21
572.965	0.21
573.306	0.21
573.646	0.21
573.987	0.21
574.328	0.21
574.668	0.22
575.009	0.21
575.349	0.21
575.69	0.21
576.03	0.21
576.37	0.21
576.711	0.2
577.051	0.21
577.391	0.21
577.731	0.21
578.072	0.21
578.412	0.21
578.752	0.21
579.092	0.21
579.431	0.2
579.771	0.18
580.111	0.16
580.451	0.17
580.791	0.19
581.13	0.21
581.47	0.21
581.81	0.21
582.149	0.21
582.489	0.22
582.828	0.21
583.167	0.18
583.507	0.15
583.846	0.12
584.185	0.14
584.525	0.16
584.864	0.19
585.203	0.21
585.542	0.22
585.881	0.22
586.22	0.23
586.559	0.22
586.898	0.21
587.236	0.2
587.575	0.19
587.914	0.19
588.252	0.21
588.591	0.22
588.93	0.23
589.268	0.22
589.607	0.22
589.945	0.23
590.283	0.22
590.622	0.23
590.96	0.23
591.298	0.24
591.636	0.24
591.974	0.24
592.313	0.24
592.651	0.25
592.989	0.25
593.326	0.25
593.664	0.25
594.002	0.25
594.34	0.25
594.678	0.24
595.015	0.24
595.353	0.22
595.691	0.23
596.028	0.24
596.366	0.25
596.703	0.25
597.04	0.26
597.378	0.26
597.715	0.26
598.052	0.26
598.389	0.26
598.726	0.27
599.064	0.26
599.401	0.26
599.738	0.26
600.074	0.26
600.411	0.27
600.748	0.26
601.085	0.25
601.422	0.25
601.758	0.25
602.095	0.25
602.432	0.25
602.768	0.26
603.105	0.26
603.441	0.26
603.777	0.27
604.114	0.27
604.45	0.27
604.786	0.27
605.122	0.27
605.459	0.27
605.795	0.26
606.131	0.26
606.467	0.26
606.803	0.27
607.139	0.27
607.474	0.26
607.81	0.26
608.146	0.26
608.482	0.26
608.817	0.26
609.153	0.26
609.488	0.26
609.824	0.26
610.159	0.26
610.495	0.26
610.83	0.26
611.165	0.26
611.5	0.26
611.836	0.26
612.171	0.26
612.506	0.26
612.841	0.26
613.176	0.26
613.511	0.26
613.845	0.26
614.18	0.26
614.515	0.26
614.85	0.26
615.184	0.26
615.519	0.26
615.854	0.26
616.188	0.26
616.523	0.25
616.857	0.25
617.191	0.25
617.526	0.25
617.86	0.25
618.194	0.25
618.528	0.25
618.862	0.25
619.196	0.25
619.53	0.25
619.864	0.25
620.198	0.25
620.532	0.25
620.866	0.25
621.2	0.25
621.533	0.24
621.867	0.25
622.201	0.25
622.534	0.25
622.868	0.24
623.201	0.24
623.534	0.24
623.868	0.24
624.201	0.24
624.534	0.24
624.868	0.24
625.201	0.23
625.534	0.23
625.867	0.23
626.2	0.23
626.533	0.23
626.865	0.23
627.198	0.23
627.531	0.23
627.864	0.23
628.196	0.23
628.529	0.23
628.862	0.23
629.194	0.22
629.527	0.22
629.859	0.22
630.191	0.22
630.524	0.22
630.856	0.22
631.188	0.21
631.52	0.22
631.852	0.21
632.184	0.21
632.516	0.21
632.848	0.21
633.18	0.21
633.512	0.21
633.844	0.21
634.175	0.2
634.507	0.2
634.839	0.2
635.17	0.2
635.502	0.2
635.833	0.2
636.165	0.19
636.496	0.19
636.827	0.19
637.159	0.19
637.49	0.19
637.821	0.18
638.152	0.18
638.483	0.18
638.814	0.18
639.145	0.18
639.476	0.18
639.807	0.18
640.137	0.17
640.468	0.17
640.799	0.17
641.129	0.17
641.46	0.17
641.791	0.17
642.121	0.17
642.451	0.17
642.782	0.17
643.112	0.17
643.442	0.16
643.773	0.16
644.103	0.16
644.433	0.16
644.763	0.16
645.093	0.16
645.423	0.15
645.753	0.15
646.082	0.15
646.412	0.15
646.742	0.15
647.072	0.15
647.401	0.15
647.731	0.15
648.06	0.15
648.39	0.15
648.719	0.15
649.048	0.15
649.378	0.14
649.707	0.14
650.036	0.14
650.365	0.14
650.694	0.14
651.023	0.14
651.352	0.14
651.681	0.14
652.01	0.14
652.339	0.14
652.668	0.14
652.996	0.14
653.325	0.14
653.654	0.14
653.982	0.14
654.311	0.14
654.639	0.15
654.967	0.15
655.296	0.14
655.624	0.14
655.952	0.14
656.28	0.14
656.609	0.14
656.937	0.14
657.265	0.14
657.593	0.09
657.92	0
658.248	0
658.576	-0
658.904	0
659.231	0.04
659.559	0.11
659.887	0.14
660.214	0.14
660.542	0.14
660.869	0.15
661.196	0.15
661.524	0.15
661.851	0.15
662.178	0.15
662.505	0.14
662.832	0.15
663.159	0.14
663.486	0.14
663.813	0.14
664.14	0.14
664.467	0.14
664.794	0.14
665.12	0.14
665.447	0.14
665.774	0.14
666.1	0.14
666.427	0.13
666.753	0.13
667.079	0.13
667.406	0.13
667.732	0.13
668.058	0.13
668.384	0.13
668.71	0.13
669.036	0.13
669.362	0.13
669.688	0.13
670.014	0.13
670.34	0.13
670.666	0.13
670.991	0.13
671.317	0.13
671.643	0.13
671.968	0.13
672.294	0.13
672.619	0.13
672.945	0.13
673.27	0.13
673.595	0.13
673.92	0.13
674.246	0.13
674.571	0.12
674.896	0.12
675.221	0.13
675.546	0.12
675.87	0.12
676.195	0.12
676.52	0.12
676.845	0.12
677.169	0.12
677.494	0.12
677.819	0.12
678.143	0.11
678.468	0.11
678.792	0.11
679.116	0.12
679.44	0.12
679.765	0.11
680.089	0.11
680.413	0.11
680.737	0.1
681.061	0.1
681.385	0.1
681.709	0.1
682.033	0.1
682.356	0.1
682.68	0.1
683.004	0.1
683.327	0.1
683.651	0.1
683.974	0.1
684.298	0.1
684.621	0.09
684.944	0.09
685.268	0.09
685.591	0.09
685.914	0.09
686.237	0.09
686.56	0.09
686.883	0.08
687.206	0.08
687.529	0.08
687.852	0.08
688.175	0.08
688.497	0.08
688.82	0.08
689.142	0.08
689.465	0.08
689.787	0.08
690.11	0.08
690.432	0.07
690.755	0.08
691.077	0.08
691.399	0.07
691.721	0.07
692.043	0.07
692.365	0.07
692.687	0.07
693.009	0.07
693.331	0.06
693.653	0.06
693.974	0.06
694.296	0.06
694.618	0.06
694.939	0.06
695.261	0.06
695.582	0.06
695.904	0.06
696.225	0.06
696.546	0.06
696.868	0.06
697.189	0.06
697.51	0.06
697.831	0.06
698.152	0.06
698.473	0.05
698.794	0.05
699.114	0.05
699.435	0.03
699.756	0.04
700.077	0.04
700.397	0.04
700.718	0.04
701.038	0.05
701.359	0.05
701.679	0.05
701.999	0.05
702.32	0.05
702.64	0.05
702.96	0.05
703.28	0.04
703.6	0.05
703.92	0.04
704.24	0.04
704.56	0.04
704.879	0.03
705.199	0.04
705.519	0.04
705.838	0.04
706.158	0.04
706.478	0.04
706.797	0.04
707.116	0.04
707.436	0.04
707.755	0.04
708.074	0.04
708.393	0.04
708.712	0.03
709.031	0.02
709.35	0.02
709.669	0.02
709.988	0.02
710.307	0.02
710.626	0.02
710.944	0.03
711.263	0.03
711.582	0.04
711.9	0.04
712.219	0.03
712.537	0.03
712.855	0.03
713.174	0.03
713.492	0.03
713.81	0.03
714.128	0.03
714.446	0.03
714.764	0.03
715.082	0.02
715.4	0.03
715.718	0.03
716.035	0.03
716.353	0.03
716.671	0.03
716.988	0.03
717.306	0.03
717.623	0.03
717.941	0.03
718.258	0.04
718.575	0.04
718.893	0.04
719.21	0.04
719.527	0.04
719.844	0.04
720.161	0.04
720.478	0.04
720.795	0.04
721.112	0.04
721.428	0.04
721.745	0.04
722.062	0.04
722.378	0.05
722.695	0.04
723.011	0.04
723.328	0.04
723.644	0.04
723.96	0.04
724.276	0.04
724.593	0.04
724.909	0.05
725.225	0.04
725.541	0.04
725.857	0.04
726.173	0.05
726.488	0.05
726.804	0.04
727.12	0.05
727.435	0.05
727.751	0.05
728.067	0.04
728.382	0.05
728.697	0.04
729.013	0.05
729.328	0.04
729.643	0.04
729.958	0.04
730.273	0.04
730.588	0.04
730.903	0.04
731.218	0.04
731.533	0.04
731.848	0.04
732.163	0.04
732.477	0.04
732.792	0.04
733.107	0.03
733.421	0.04
733.736	0.04
734.05	0.04
734.364	0.04
734.678	0.04
734.993	0.04
735.307	0.04
735.621	0.04
735.935	0.04
736.249	0.04
736.563	0.04
736.877	0.04
737.19	0.05
737.504	0.05
737.818	0.05
738.131	0.04
738.445	0.05
738.758	0.04
739.072	0.04
739.385	0.04
739.698	0.04
740.012	0.04
740.325	0.04
740.638	0.04
740.951	0.04
741.264	0.04
741.577	0.04
741.89	0.04
742.203	0.04
742.515	0.04
742.828	0.04
743.141	0.04
743.453	0.04
743.766	0.04
744.078	0.04
744.391	0.04
744.703	0.04
745.015	0.04
745.327	0.04
745.639	0.04
745.952	0.04
746.264	0.04
746.575	0.04
746.887	0.04
747.199	0.04
747.511	0.04
747.823	0.04
748.134	0.04
748.446	0.04
748.757	0.04
749.069	0.03
749.38	0.04
749.692	0.04
750.003	0.04
750.314	0.04
750.625	0.04
750.936	0.04
751.248	0.03
751.559	0.03
751.869	0.03
752.18	0.03
752.491	0.03
752.802	0.03
753.112	0.03
753.423	0.03
753.734	0.03
754.044	0.03
754.355	0.03
754.665	0.03
754.975	0.03
755.285	0.03
755.596	0.03
755.906	0.02
756.216	0.02
756.526	0.02
756.836	0.02
757.146	0.02
757.455	0.03
757.765	0.02
758.075	0.02
758.385	0.02
758.694	0.02
759.004	0.02
759.313	0.02
759.622	0.02
759.932	0.02
760.241	0.02
760.55	0.02
760.859	0.02
761.168	0.02
761.477	0.02
761.786	0.01
762.095	0.01
762.404	0.01
762.713	0.02
763.021	0.01
763.33	0.02
763.639	0.01
763.947	0.01
764.256	0.01
764.564	0.01
764.872	0.02
765.181	0.01
765.489	0.01
765.797	0.01
766.105	0.01
766.413	0.01
766.721	0.01
767.029	0.01
767.337	0.01
767.644	0.01
767.952	0.01
768.26	0.01
768.567	0.01
768.875	0.01
769.182	0.01
769.49	0.02
769.797	0.02
770.104	0.02
770.411	0.02
770.718	0.02
771.026	0.02
771.333	0.02
771.639	0.02
771.946	0.02
772.253	0.01
772.56	0.01
772.867	0.01
773.173	0.01
773.48	0.01
773.786	0.01
774.093	0.01
774.399	0.01
774.705	0.01
775.012	0.01
775.318	0.01
775.624	0
775.93	0
776.236	0
776.542	0.01
776.848	0.01
777.154	0.01
777.459	0.01
777.765	0.01
778.071	0.01
778.376	0.01
778.682	0.01
778.987	0.01
779.292	0.01
779.598	0.02
779.903	0.01
780.208	0.01
780.513	0.01
780.818	0.01
781.123	0.01
781.428	0.01
781.733	0.01
782.038	0.01
782.343	0.01
782.647	0.01
782.952	0.02
783.256	0.01
783.561	0.01
783.865	0.02
784.17	0.01
784.474	0.01
784.778	0.01
785.082	0.01
785.386	0.01
785.69	0.01
785.994	0.01
786.298	0.02
786.602	0.01
786.906	0.01
787.209	0.01
787.513	0.02
787.817	0.02
788.12	0.02
788.424	0.01
788.727	0.01
789.03	0.01
789.333	0.01
789.637	0.01
789.94	0.01
790.243	0.01
790.546	0.01
790.849	0.01
791.152	0.01
791.454	0.01
791.757	0.01
792.06	0.02
792.362	0.01
792.665	0.01
792.967	0.01
793.27	0.02
793.572	0.01
793.874	0.01
794.177	0.01
794.479	0.01
794.781	0.01
795.083	0.01
795.385	0.01
795.687	0.01
795.989	0.01
796.29	0.01
796.592	0.02
796.894	0.02
797.195	0.02
797.497	0.02
797.798	0.02
798.1	0.02
798.401	0.02
798.702	0.02
799.003	0.02
799.304	0.02
799.605	0.02
799.906	0.02
800.207	0.02
800.508	0.02
800.809	0.02
801.11	0.01
801.41	0.01
801.711	0.01
802.011	0.01
802.312	0.01
802.612	0.01
802.913	0
803.213	0.01
803.513	0.01
803.813	0.01
804.113	0.01
804.413	0.01
804.713	0.01
805.013	0.01
805.313	0.02
805.613	0.01
805.912	0.02
806.212	0.02
806.511	0.02
806.811	0.01
807.11	0.01
807.41	0.01
807.709	0.01
808.008	0.01
808.307	0.02
808.606	0.02
808.905	0.01
809.204	0.02
809.503	0.02
809.802	0.01
810.101	0.01
810.399	0.01
810.698	0.02
810.997	0.02
811.295	0.02
811.593	0.02
811.892	0.01
812.19	0.01
812.488	0.02
812.786	0.02
813.084	0.02
813.383	0.02
813.68	0.02
813.978	0.02
814.276	0.03
814.574	0.02
814.872	0.02
815.169	0.02
815.467	0.02
815.764	0.02
816.062	0.02
816.359	0.02
816.656	0.02
816.954	0.02
817.251	0.03
817.548	0.03
817.845	0.03
818.142	0.03
818.439	0.03
818.735	0.02
819.032	0.03
819.329	0.03
819.626	0.02
819.922	0.02
820.219	0.02
820.515	0.03
820.811	0.02
821.108	0.02
821.404	0.02
821.7	0.02
821.996	0.03
822.292	0.02
822.588	0.02
822.884	0.02
823.18	0.02
823.475	0.02
823.771	0.02
824.067	0.02
824.362	0.03
824.658	0.03
824.953	0.03
825.249	0.03
825.544	0.02
825.839	0.03
826.134	0.03
826.429	0.03
826.724	0.03
827.019	0.03
827.314	0.03
827.609	0.03
827.904	0.02
828.198	0.02
828.493	0.02
828.787	0.02
829.082	0.02
829.376	0.02
829.671	0.02
829.965	0.02
830.259	0.03
830.553	0.02
830.847	0.03
831.141	0.03
831.435	0.03
831.729	0.03
832.023	0.04
832.317	0.03
832.61	0.04
832.904	0.04
833.197	0.04
833.491	0.03
833.784	0.03
834.077	0.03
834.371	0.03
834.664	0.03
834.957	0.03
835.25	0.03
835.543	0.03
835.836	0.04
836.129	0.03
836.421	0.03
836.714	0.03
837.007	0.03
837.299	0.03
837.592	0.03
837.884	0.03
838.177	0.03
838.469	0.02
838.761	0.03
839.053	0.03
839.345	0.04
839.637	0.03
839.929	0.04
840.221	0.04
840.513	0.04
840.805	0.04
841.096	0.04
841.388	0.04
841.68	0.04
841.971	0.03
842.262	0.04
842.554	0.04
842.845	0.04
843.136	0.04
843.427	0.04
843.718	0.03
844.009	0.04
844.3	0.03
844.591	0.03
844.882	0.02
845.173	0.03
845.463	0.03
845.754	0.03
846.044	0.03
846.335	0.03
846.625	0.03
846.915	0.04
847.206	0.03
847.496	0.05
847.786	0.04
848.076	0.04
848.366	0.04
848.656	0.04
848.945	0.03
849.235	0.04
849.525	0.04
849.814	0.03
850.104	0.03
850.393	0.02
850.683	0.03
850.972	0.03
851.261	0.04
851.551	0.04
851.84	0.04
852.129	0.04
852.418	0.05
852.707	0.04
852.995	0.03
853.284	0.04
853.573	0.03
853.862	0.04
854.15	0.04
854.439	0.05
854.727	0.03
855.015	0.04
855.304	0.04
855.592	0.03
855.88	0.02
856.168	0.02
856.456	0.03
856.744	0.04
857.032	0.04
857.32	0.04
857.607	0.04
857.895	0.03
858.183	0.05
858.47	0.03
858.757	0.04
859.045	0.03
859.332	0.04
859.619	0.03
859.907	0.04
860.194	0.02
860.481	0.04
860.768	0.05
861.054	0.03
861.341	0.04
861.628	0.03
861.915	0.04
862.201	0.03
862.488	0.02
862.774	0.04
863.061	0.03
863.347	0.04
863.633	0.03
863.919	0.04
864.205	0.03
864.491	0.02
864.777	0.03
865.063	0.02
865.349	0.03
865.635	0.05
865.92	0.03
866.206	0.02
866.492	0.01
866.777	0.04
867.062	0.05
867.348	0.04
867.633	0.01
867.918	0.01
868.203	0.03
868.488	0.03
868.773	0.01
869.058	0.03
869.343	0.01
869.628	-0.01
869.912	0.01
870.197	0.01
870.482	0.03
870.766	0.02
871.05	0
871.335	0.03
871.619	0.05
871.903	0.02
872.187	0.03
872.471	0.05
872.755	0.02
873.039	0.01
873.323	0.05
873.607	0.01
873.89	-0.01
874.174	-0.02
874.458	-0.01
874.741	0.01
875.024	-0
875.308	-0.02
875.591	-0.02
875.874	-0.02
876.157	0.05
876.44	-0.02
876.723	0.01
877.006	-0.02
877.289	-0.04
877.572	0.02
877.854	0.01
878.137	0.01
878.42	-0.02
878.702	0.02
878.984	-0.02
879.267	-0.04
879.549	0.03
879.831	0.02
880.113	0.04
880.395	0.04
880.677	0.01
880.959	-0.01
