Data from Rubpy_EV_1800_EDTA_Buffered_Absorbance_15-40-51-561.txt Node
Date: Tue Jun 30 15:40:51 BST 2026
User: fpm-admin
Spectrometer: OFX00224
Trigger mode: 0
Integration Time (sec): 7.000000E-2
Scans to average: 3
Nonlinearity correction enabled: false
Boxcar width: 0
Storing dark spectrum: false
XAxis mode: Wavelengths
Number of Pixels in Spectrum: 2136
>>>>>Begin Spectral Data<<<<<
154.91	-0.59
155.289	-0.23
155.669	-0.44
156.048	-0
156.428	0.03
156.807	-0
157.186	0.05
157.566	0.41
157.945	1.49
158.325	-0
158.704	-0
159.083	-0.45
159.462	0.42
159.842	-0.08
160.221	0.49
160.6	-0.13
160.979	-0.35
161.359	0.81
161.738	-0.32
162.117	-0.12
162.496	-0.09
162.875	-0.03
163.254	-0
163.633	-0
164.012	-0.21
164.391	0.21
164.77	0.34
165.149	-0.06
165.528	0.09
165.907	-0
166.286	0.14
166.665	-0.54
167.044	-0
167.423	-0.59
167.802	0.18
168.181	-0
168.559	-0
168.938	-0.42
169.317	-0.45
169.696	-0
170.074	-0
170.453	-0
170.832	0.09
171.21	-0
171.589	-0
171.968	-0
172.346	-0
172.725	0.04
173.103	0.31
173.482	0.34
173.861	0.45
174.239	-0.05
174.617	0.06
174.996	-0.27
175.374	-0.4
175.753	0.18
176.131	-0
176.51	1.19
176.888	-0
177.266	-0
177.645	-0.22
178.023	-0
178.401	-0.22
178.779	-0.13
179.158	0.1
179.536	0.12
179.914	-0
180.292	-0.39
180.67	-0.67
181.048	-0
181.427	0.4
181.805	1.56
182.183	1.18
182.561	-0
182.939	-0
183.317	-0
183.695	-0
184.073	0.02
184.451	-0.34
184.829	-0.14
185.206	-0.53
185.584	-0.07
185.962	-0
186.34	-0.14
186.718	-0
187.096	0.45
187.473	-0
187.851	-0.33
188.229	0.07
188.607	0.23
188.984	0.2
189.362	0.17
189.74	0.15
190.117	0.19
190.495	0.17
190.872	0.07
191.25	0.12
191.627	0.18
192.005	0.08
192.382	0.12
192.76	0.19
193.137	0.17
193.515	0.08
193.892	0.31
194.269	0.24
194.647	0.1
195.024	0.22
195.401	0.2
195.779	0.08
196.156	0.18
196.533	0.15
196.91	0.16
197.288	0.2
197.665	0.24
198.042	0.18
198.419	0.2
198.796	0.22
199.173	0.18
199.55	0.2
199.927	0.23
200.304	0.22
200.681	0.16
201.058	0.16
201.435	0.13
201.812	0.25
202.189	0.19
202.566	0.08
202.943	0.35
203.32	0.21
203.697	0.17
204.073	0.21
204.45	0.13
204.827	0.21
205.204	0.13
205.58	0.07
205.957	0.14
206.334	0.16
206.71	0.06
207.087	0.09
207.464	0.04
207.84	0.16
208.217	0.2
208.593	0.18
208.97	0.13
209.346	0.14
209.723	0.08
210.099	0.14
210.476	0.19
210.852	0.18
211.228	0.16
211.605	0.11
211.981	0.12
212.357	0.17
212.733	0.13
213.11	0.26
213.486	0.24
213.862	0.19
214.238	0.25
214.614	0.12
214.991	0.16
215.367	0.17
215.743	0.25
216.119	0.17
216.495	0.22
216.871	0.2
217.247	0.15
217.623	0.1
217.999	0.33
218.375	0.12
218.751	0.25
219.127	0.21
219.502	0.12
219.878	0.13
220.254	0.17
220.63	0.17
221.006	0.1
221.381	0.18
221.757	0.19
222.133	0.24
222.508	0.28
222.884	0.24
223.26	0.14
223.635	0.19
224.011	0.26
224.386	0.19
224.762	0.24
225.137	0.16
225.513	0.15
225.888	0.33
226.264	0.25
226.639	0.13
227.014	0.23
227.39	0.24
227.765	0.21
228.14	0.12
228.516	0.21
228.891	0.26
229.266	0.18
229.641	0.28
230.017	0.24
230.392	0.25
230.767	0.24
231.142	0.16
231.517	0.23
231.892	0.15
232.267	0.15
232.642	0.2
233.017	0.2
233.392	0.24
233.767	0.29
234.142	0.16
234.517	0.19
234.892	0.24
235.267	0.26
235.641	0.21
236.016	0.12
236.391	0.15
236.766	0.17
237.14	0.19
237.515	0.2
237.89	0.17
238.264	0.2
238.639	0.2
239.014	0.17
239.388	0.19
239.763	0.18
240.137	0.17
240.512	0.18
240.886	0.19
241.261	0.16
241.635	0.24
242.009	0.15
242.384	0.23
242.758	0.4
243.132	0.33
243.507	0.2
243.881	0.13
244.255	0.28
244.629	0.28
245.004	0.13
245.378	0.16
245.752	0.22
246.126	0.2
246.5	0.16
246.874	0.21
247.248	0.12
247.622	0.18
247.996	0.2
248.37	0.14
248.744	0.18
249.118	0.21
249.492	0.14
249.866	0.18
250.24	0.22
250.613	0.17
250.987	0.22
251.361	0.22
251.735	0.26
252.108	0.18
252.482	0.14
252.856	0.15
253.229	0.24
253.603	0.24
253.977	0.27
254.35	0.25
254.724	0.12
255.097	0.22
255.471	0.23
255.844	0.18
256.218	0.28
256.591	0.2
256.964	0.14
257.338	0.17
257.711	0.15
258.084	0.19
258.458	0.17
258.831	0.17
259.204	0.22
259.577	0.13
259.95	0.23
260.323	0.18
260.697	0.19
261.07	0.18
261.443	0.2
261.816	0.2
262.189	0.17
262.562	0.26
262.935	0.18
263.308	0.15
263.68	0.25
264.053	0.21
264.426	0.21
264.799	0.2
265.172	0.21
265.545	0.24
265.917	0.26
266.29	0.17
266.663	0.19
267.035	0.29
267.408	0.22
267.781	0.23
268.153	0.35
268.526	0.23
268.898	0.21
269.271	0.22
269.643	0.21
270.016	0.19
270.388	0.19
270.76	0.19
271.133	0.23
271.505	0.2
271.877	0.22
272.25	0.17
272.622	0.23
272.994	0.19
273.366	0.2
273.739	0.23
274.111	0.23
274.483	0.15
274.855	0.19
275.227	0.24
275.599	0.19
275.971	0.28
276.343	0.25
276.715	0.21
277.087	0.24
277.459	0.24
277.831	0.24
278.203	0.23
278.574	0.23
278.946	0.35
279.318	0.18
279.69	0.2
280.061	0.27
280.433	0.17
280.805	0.21
281.176	0.21
281.548	0.22
281.92	0.17
282.291	0.25
282.663	0.2
283.034	0.2
283.406	0.23
283.777	0.25
284.148	0.25
284.52	0.2
284.891	0.22
285.262	0.26
285.634	0.26
286.005	0.28
286.376	0.23
286.747	0.25
287.119	0.21
287.49	0.21
287.861	0.2
288.232	0.16
288.603	0.16
288.974	0.23
289.345	0.22
289.716	0.24
290.087	0.22
290.458	0.2
290.829	0.2
291.2	0.24
291.571	0.21
291.941	0.25
292.312	0.16
292.683	0.26
293.054	0.26
293.424	0.26
293.795	0.27
294.166	0.24
294.536	0.25
294.907	0.25
295.277	0.25
295.648	0.21
296.018	0.22
296.389	0.2
296.759	0.28
297.13	0.22
297.5	0.31
297.871	0.21
298.241	0.23
298.611	0.17
298.981	0.28
299.352	0.29
299.722	0.17
300.092	0.21
300.462	0.26
300.832	0.25
301.202	0.23
301.573	0.19
301.943	0.21
302.313	0.19
302.683	0.21
303.053	0.18
303.422	0.2
303.792	0.2
304.162	0.19
304.532	0.23
304.902	0.22
305.272	0.22
305.641	0.22
306.011	0.2
306.381	0.21
306.75	0.22
307.12	0.22
307.49	0.23
307.859	0.22
308.229	0.22
308.598	0.24
308.968	0.23
309.337	0.23
309.707	0.24
310.076	0.23
310.445	0.23
310.815	0.24
311.184	0.24
311.553	0.25
311.923	0.25
312.292	0.26
312.661	0.25
313.03	0.25
313.399	0.25
313.768	0.26
314.137	0.26
314.506	0.26
314.875	0.25
315.244	0.26
315.613	0.25
315.982	0.25
316.351	0.25
316.72	0.25
317.089	0.25
317.458	0.24
317.826	0.24
318.195	0.25
318.564	0.24
318.933	0.24
319.301	0.24
319.67	0.24
320.038	0.23
320.407	0.23
320.775	0.23
321.144	0.23
321.512	0.22
321.881	0.22
322.249	0.22
322.618	0.23
322.986	0.22
323.354	0.22
323.723	0.21
324.091	0.21
324.459	0.21
324.827	0.21
325.195	0.21
325.564	0.21
325.932	0.21
326.3	0.21
326.668	0.21
327.036	0.21
327.404	0.21
327.772	0.21
328.14	0.21
328.508	0.21
328.875	0.22
329.243	0.22
329.611	0.21
329.979	0.21
330.346	0.21
330.714	0.21
331.082	0.21
331.449	0.22
331.817	0.22
332.185	0.21
332.552	0.22
332.92	0.22
333.287	0.23
333.655	0.23
334.022	0.23
334.389	0.23
334.757	0.24
335.124	0.24
335.491	0.24
335.859	0.24
336.226	0.25
336.593	0.25
336.96	0.25
337.327	0.25
337.695	0.26
338.062	0.26
338.429	0.26
338.796	0.27
339.163	0.27
339.53	0.27
339.897	0.28
340.263	0.28
340.63	0.29
340.997	0.3
341.364	0.3
341.731	0.3
342.097	0.31
342.464	0.32
342.831	0.32
343.197	0.32
343.564	0.33
343.931	0.33
344.297	0.34
344.664	0.35
345.03	0.35
345.396	0.35
345.763	0.36
346.129	0.37
346.496	0.36
346.862	0.38
347.228	0.38
347.594	0.39
347.961	0.39
348.327	0.4
348.693	0.4
349.059	0.41
349.425	0.42
349.791	0.42
350.157	0.43
350.523	0.44
350.889	0.45
351.255	0.45
351.621	0.47
351.987	0.47
352.353	0.48
352.719	0.49
353.084	0.5
353.45	0.51
353.816	0.51
354.181	0.53
354.547	0.54
354.913	0.55
355.278	0.56
355.644	0.57
356.009	0.58
356.375	0.59
356.74	0.6
357.106	0.62
357.471	0.63
357.836	0.65
358.202	0.66
358.567	0.66
358.932	0.67
359.297	0.69
359.663	0.71
360.028	0.71
360.393	0.72
360.758	0.72
361.123	0.73
361.488	0.74
361.853	0.74
362.218	0.76
362.583	0.76
362.948	0.78
363.312	0.79
363.677	0.8
364.042	0.81
364.407	0.82
364.772	0.83
365.136	0.85
365.501	0.86
365.865	0.88
366.23	0.9
366.595	0.92
366.959	0.93
367.324	0.95
367.688	0.96
368.052	0.97
368.417	0.99
368.781	0.99
369.145	1.01
369.51	1.02
369.874	1.02
370.238	1.02
370.602	1.03
370.967	1.02
371.331	1.02
371.695	1.01
372.059	1.01
372.423	1
372.787	0.99
373.151	1
373.515	0.99
373.878	0.98
374.242	0.99
374.606	0.99
374.97	0.99
375.334	0.99
375.697	0.99
376.061	1
376.425	1
376.788	1
377.152	1.01
377.515	1.01
377.879	1.02
378.242	1.04
378.606	1.04
378.969	1.06
379.333	1.07
379.696	1.09
380.059	1.1
380.422	1.12
380.786	1.12
381.149	1.15
381.512	1.17
381.875	1.19
382.238	1.21
382.601	1.24
382.964	1.27
383.327	1.3
383.69	1.33
384.053	1.36
384.416	1.4
384.779	1.43
385.142	1.44
385.504	1.46
385.867	1.47
386.23	1.49
386.593	1.49
386.955	1.51
387.318	1.52
387.68	1.49
388.043	1.52
388.405	1.49
388.768	1.49
389.13	1.48
389.493	1.45
389.855	1.46
390.217	1.45
390.58	1.45
390.942	1.44
391.304	1.46
391.666	1.46
392.028	1.48
392.391	1.52
392.753	1.58
393.115	1.57
393.477	1.63
393.839	1.66
394.201	1.73
394.563	1.78
394.924	1.86
395.286	1.84
395.648	1.89
396.01	1.9
396.371	1.93
396.733	1.96
397.095	1.95
397.456	1.98
397.818	1.93
398.18	1.95
398.541	1.89
398.903	1.89
399.264	1.88
399.625	1.87
399.987	1.83
400.348	1.8
400.709	1.74
401.071	1.68
401.432	1.61
401.793	1.5
402.154	1.43
402.515	1.33
402.876	1.24
403.238	1.16
403.599	1.09
403.96	1.01
404.32	0.95
404.681	0.87
405.042	0.81
405.403	0.76
405.764	0.71
406.125	0.66
406.485	0.61
406.846	0.58
407.207	0.54
407.567	0.51
407.928	0.48
408.288	0.46
408.649	0.43
409.009	0.41
409.37	0.38
409.73	0.37
410.091	0.34
410.451	0.33
410.811	0.32
411.171	0.3
411.532	0.3
411.892	0.28
412.252	0.26
412.612	0.26
412.972	0.25
413.332	0.24
413.692	0.23
414.052	0.22
414.412	0.21
414.772	0.2
415.132	0.2
415.492	0.2
415.851	0.19
416.211	0.18
416.571	0.18
416.931	0.17
417.29	0.16
417.65	0.16
418.009	0.16
418.369	0.16
418.728	0.15
419.088	0.15
419.447	0.15
419.807	0.14
420.166	0.14
420.525	0.15
420.884	0.14
421.244	0.13
421.603	0.13
421.962	0.13
422.321	0.13
422.68	0.13
423.039	0.13
423.398	0.13
423.757	0.13
424.116	0.12
424.475	0.11
424.834	0.12
425.193	0.12
425.551	0.12
425.91	0.11
426.269	0.11
426.628	0.11
426.986	0.11
427.345	0.11
427.703	0.11
428.062	0.1
428.42	0.11
428.779	0.1
429.137	0.1
429.496	0.1
429.854	0.09
430.212	0.1
430.57	0.1
430.929	0.09
431.287	0.09
431.645	0.1
432.003	0.09
432.361	0.1
432.719	0.09
433.077	0.09
433.435	0.09
433.793	0.09
434.151	0.08
434.509	0.08
434.866	0.08
435.224	0.08
435.582	0.08
435.94	0.09
436.297	0.09
436.655	0.08
437.012	0.08
437.37	0.08
437.727	0.08
438.085	0.08
438.442	0.08
438.8	0.08
439.157	0.07
439.514	0.08
439.872	0.08
440.229	0.07
440.586	0.07
440.943	0.08
441.3	0.07
441.657	0.07
442.014	0.07
442.371	0.07
442.728	0.07
443.085	0.07
443.442	0.07
443.799	0.07
444.156	0.07
444.513	0.07
444.869	0.07
445.226	0.07
445.583	0.07
445.939	0.06
446.296	0.06
446.652	0.06
447.009	0.07
447.365	0.06
447.722	0.06
448.078	0.06
448.434	0.05
448.791	0.06
449.147	0.05
449.503	0.06
449.859	0.06
450.215	0.05
450.571	0.05
450.928	0.05
451.284	0.05
451.64	0.06
451.995	0.05
452.351	0.06
452.707	0.05
453.063	0.05
453.419	0.04
453.775	0.04
454.13	0.04
454.486	0.05
454.842	0.04
455.197	0.04
455.553	0.04
455.908	0.04
456.264	0.03
456.619	0.03
456.975	0.04
457.33	0.03
457.685	0.02
458.04	0.03
458.396	0.03
458.751	0.03
459.106	0.02
459.461	0.02
459.816	0.01
460.171	0.02
460.526	0.01
460.881	0.01
461.236	0.01
461.591	0.01
461.946	0.01
462.301	-0
462.655	0.01
463.01	0
463.365	-0
463.719	-0
464.074	-0.01
464.428	-0.01
464.783	-0.02
465.137	-0.01
465.492	-0.02
465.846	-0.02
466.201	-0.01
466.555	-0.02
466.909	-0.01
467.263	-0.02
467.618	-0
467.972	-0.01
468.326	-0.01
468.68	-0.02
469.034	-0.02
469.388	-0.02
469.742	-0.02
470.096	-0.02
470.45	-0.01
470.804	-0.02
471.157	-0.02
471.511	-0.02
471.865	-0.01
472.218	-0.01
472.572	-0.01
472.926	-0.01
473.279	-0
473.633	-0
473.986	0
474.34	0.01
474.693	0.01
475.046	0.02
475.4	0.02
475.753	0.02
476.106	0.03
476.459	0.03
476.812	0.04
477.165	0.04
477.519	0.04
477.872	0.04
478.224	0.05
478.577	0.05
478.93	0.05
479.283	0.05
479.636	0.06
479.989	0.06
480.341	0.06
480.694	0.07
481.047	0.06
481.399	0.07
481.752	0.08
482.104	0.08
482.457	0.08
482.809	0.08
483.162	0.08
483.514	0.09
483.866	0.09
484.219	0.09
484.571	0.09
484.923	0.09
485.275	0.09
485.627	0.1
485.979	0.1
486.331	0.11
486.683	0.1
487.035	0.1
487.387	0.11
487.739	0.11
488.091	0.11
488.443	0.12
488.794	0.11
489.146	0.11
489.498	0.12
489.849	0.12
490.201	0.12
490.552	0.12
490.904	0.13
491.255	0.13
491.607	0.13
491.958	0.13
492.309	0.13
492.661	0.13
493.012	0.14
493.363	0.13
493.714	0.13
494.065	0.14
494.416	0.14
494.767	0.14
495.118	0.15
495.469	0.14
495.82	0.15
496.171	0.15
496.522	0.15
496.872	0.15
497.223	0.15
497.574	0.16
497.924	0.16
498.275	0.16
498.626	0.17
498.976	0.17
499.327	0.17
499.677	0.17
500.027	0.17
500.378	0.18
500.728	0.17
501.078	0.18
501.428	0.18
501.779	0.18
502.129	0.18
502.479	0.18
502.829	0.18
503.179	0.19
503.529	0.19
503.879	0.19
504.229	0.2
504.578	0.2
504.928	0.2
505.278	0.2
505.628	0.21
505.977	0.2
506.327	0.2
506.676	0.21
507.026	0.21
507.375	0.22
507.725	0.22
508.074	0.22
508.424	0.22
508.773	0.23
509.122	0.23
509.471	0.23
509.82	0.23
510.17	0.24
510.519	0.23
510.868	0.24
511.217	0.24
511.566	0.24
511.915	0.24
512.263	0.24
512.612	0.24
512.961	0.25
513.31	0.25
513.659	0.25
514.007	0.25
514.356	0.26
514.704	0.26
515.053	0.25
515.401	0.27
515.75	0.26
516.098	0.27
516.447	0.26
516.795	0.27
517.143	0.28
517.491	0.27
517.839	0.28
518.188	0.28
518.536	0.28
518.884	0.28
519.232	0.29
519.58	0.29
519.928	0.29
520.275	0.29
520.623	0.29
520.971	0.3
521.319	0.3
521.666	0.3
522.014	0.3
522.362	0.31
522.709	0.31
523.057	0.31
523.404	0.31
523.752	0.31
524.099	0.31
524.446	0.32
524.794	0.32
525.141	0.32
525.488	0.32
525.835	0.33
526.182	0.33
526.529	0.33
526.876	0.34
527.223	0.34
527.57	0.34
527.917	0.34
528.264	0.34
528.611	0.34
528.958	0.34
529.304	0.35
529.651	0.35
529.998	0.35
530.344	0.36
530.691	0.36
531.037	0.37
531.384	0.37
531.73	0.36
532.076	0.37
532.423	0.37
532.769	0.38
533.115	0.38
533.461	0.38
533.807	0.38
534.154	0.38
534.5	0.39
534.846	0.39
535.192	0.4
535.537	0.4
535.883	0.4
536.229	0.4
536.575	0.4
536.921	0.41
537.266	0.41
537.612	0.41
537.957	0.42
538.303	0.42
538.649	0.42
538.994	0.42
539.339	0.43
539.685	0.44
540.03	0.43
540.375	0.44
540.721	0.44
541.066	0.44
541.411	0.45
541.756	0.45
542.101	0.45
542.446	0.45
542.791	0.46
543.136	0.46
543.481	0.46
543.825	0.46
544.17	0.47
544.515	0.47
544.86	0.47
545.204	0.48
545.549	0.48
545.893	0.49
546.238	0.49
546.582	0.49
546.927	0.5
547.271	0.5
547.615	0.5
547.96	0.51
548.304	0.51
548.648	0.51
548.992	0.51
549.336	0.51
549.68	0.52
550.024	0.52
550.368	0.52
550.712	0.52
551.056	0.53
551.4	0.53
551.743	0.53
552.087	0.53
552.431	0.54
552.774	0.54
553.118	0.54
553.462	0.54
553.805	0.55
554.148	0.55
554.492	0.55
554.835	0.55
555.178	0.56
555.522	0.56
555.865	0.56
556.208	0.56
556.551	0.56
556.894	0.56
557.237	0.57
557.58	0.57
557.923	0.57
558.266	0.57
558.609	0.57
558.952	0.57
559.294	0.57
559.637	0.58
559.98	0.58
560.322	0.58
560.665	0.58
561.007	0.58
561.35	0.58
561.692	0.58
562.034	0.59
562.377	0.58
562.719	0.59
563.061	0.59
563.403	0.59
563.745	0.59
564.088	0.59
564.43	0.59
564.772	0.59
565.113	0.59
565.455	0.6
565.797	0.6
566.139	0.6
566.481	0.6
566.822	0.6
567.164	0.6
567.506	0.61
567.847	0.61
568.189	0.61
568.53	0.61
568.872	0.61
569.213	0.61
569.554	0.61
569.895	0.61
570.237	0.61
570.578	0.61
570.919	0.61
571.26	0.61
571.601	0.61
571.942	0.61
572.283	0.61
572.624	0.61
572.965	0.61
573.306	0.61
573.646	0.61
573.987	0.61
574.328	0.61
574.668	0.61
575.009	0.61
575.349	0.61
575.69	0.61
576.03	0.61
576.37	0.6
576.711	0.6
577.051	0.6
577.391	0.61
577.731	0.62
578.072	0.61
578.412	0.61
578.752	0.61
579.092	0.61
579.431	0.6
579.771	0.58
580.111	0.56
580.451	0.57
580.791	0.59
581.13	0.61
581.47	0.61
581.81	0.62
582.149	0.61
582.489	0.62
582.828	0.62
583.167	0.59
583.507	0.55
583.846	0.53
584.185	0.54
584.525	0.57
584.864	0.6
585.203	0.63
585.542	0.64
585.881	0.64
586.22	0.64
586.559	0.64
586.898	0.62
587.236	0.62
587.575	0.61
587.914	0.62
588.252	0.63
588.591	0.65
588.93	0.65
589.268	0.65
589.607	0.65
589.945	0.66
590.283	0.65
590.622	0.66
590.96	0.67
591.298	0.67
591.636	0.67
591.974	0.68
592.313	0.68
592.651	0.69
592.989	0.7
593.326	0.7
593.664	0.7
594.002	0.7
594.34	0.7
594.678	0.7
595.015	0.7
595.353	0.68
595.691	0.69
596.028	0.7
596.366	0.71
596.703	0.72
597.04	0.72
597.378	0.72
597.715	0.73
598.052	0.73
598.389	0.73
598.726	0.74
599.064	0.74
599.401	0.74
599.738	0.74
600.074	0.74
600.411	0.74
600.748	0.74
601.085	0.74
601.422	0.73
601.758	0.73
602.095	0.74
602.432	0.74
602.768	0.73
603.105	0.75
603.441	0.74
603.777	0.75
604.114	0.75
604.45	0.75
604.786	0.75
605.122	0.75
605.459	0.75
605.795	0.74
606.131	0.74
606.467	0.75
606.803	0.75
607.139	0.75
607.474	0.75
607.81	0.74
608.146	0.74
608.482	0.74
608.817	0.73
609.153	0.74
609.488	0.73
609.824	0.73
610.159	0.73
610.495	0.73
610.83	0.73
611.165	0.73
611.5	0.73
611.836	0.72
612.171	0.72
612.506	0.72
612.841	0.72
613.176	0.73
613.511	0.72
613.845	0.72
614.18	0.72
614.515	0.72
614.85	0.71
615.184	0.71
615.519	0.71
615.854	0.71
616.188	0.71
616.523	0.7
616.857	0.7
617.191	0.7
617.526	0.7
617.86	0.69
618.194	0.69
618.528	0.69
618.862	0.69
619.196	0.69
619.53	0.68
619.864	0.68
620.198	0.68
620.532	0.68
620.866	0.68
621.2	0.68
621.533	0.68
621.867	0.68
622.201	0.67
622.534	0.67
622.868	0.67
623.201	0.66
623.534	0.66
623.868	0.66
624.201	0.65
624.534	0.66
624.868	0.65
625.201	0.65
625.534	0.64
625.867	0.64
626.2	0.64
626.533	0.64
626.865	0.63
627.198	0.63
627.531	0.63
627.864	0.63
628.196	0.63
628.529	0.62
628.862	0.62
629.194	0.61
629.527	0.61
629.859	0.61
630.191	0.6
630.524	0.6
630.856	0.59
631.188	0.59
631.52	0.59
631.852	0.59
632.184	0.58
632.516	0.58
632.848	0.58
633.18	0.57
633.512	0.57
633.844	0.56
634.175	0.56
634.507	0.56
634.839	0.55
635.17	0.55
635.502	0.54
635.833	0.54
636.165	0.53
636.496	0.52
636.827	0.52
637.159	0.52
637.49	0.51
637.821	0.51
638.152	0.5
638.483	0.5
638.814	0.5
639.145	0.5
639.476	0.49
639.807	0.49
640.137	0.48
640.468	0.48
640.799	0.48
641.129	0.47
641.46	0.46
641.791	0.46
642.121	0.46
642.451	0.46
642.782	0.46
643.112	0.45
643.442	0.45
643.773	0.45
644.103	0.45
644.433	0.45
644.763	0.44
645.093	0.44
645.423	0.43
645.753	0.43
646.082	0.43
646.412	0.43
646.742	0.43
647.072	0.42
647.401	0.42
647.731	0.42
648.06	0.42
648.39	0.42
648.719	0.42
649.048	0.41
649.378	0.41
649.707	0.41
650.036	0.41
650.365	0.41
650.694	0.41
651.023	0.4
651.352	0.4
651.681	0.4
652.01	0.4
652.339	0.4
652.668	0.4
652.996	0.4
653.325	0.4
653.654	0.39
653.982	0.4
654.311	0.4
654.639	0.4
654.967	0.4
655.296	0.39
655.624	0.4
655.952	0.39
656.28	0.39
656.609	0.39
656.937	0.39
657.265	0.39
657.593	0.33
657.92	0.19
658.248	0.13
658.576	0.11
658.904	0.19
659.231	0.28
659.559	0.35
659.887	0.38
660.214	0.39
660.542	0.39
660.869	0.39
661.196	0.39
661.524	0.39
661.851	0.39
662.178	0.39
662.505	0.39
662.832	0.39
663.159	0.39
663.486	0.38
663.813	0.39
664.14	0.38
664.467	0.38
664.794	0.38
665.12	0.38
665.447	0.38
665.774	0.37
666.1	0.37
666.427	0.37
666.753	0.37
667.079	0.37
667.406	0.37
667.732	0.36
668.058	0.37
668.384	0.37
668.71	0.36
669.036	0.36
669.362	0.37
669.688	0.36
670.014	0.36
670.34	0.36
670.666	0.36
670.991	0.36
671.317	0.36
671.643	0.36
671.968	0.36
672.294	0.35
672.619	0.35
672.945	0.35
673.27	0.35
673.595	0.35
673.92	0.34
674.246	0.34
674.571	0.33
674.896	0.33
675.221	0.33
675.546	0.33
675.87	0.33
676.195	0.33
676.52	0.33
676.845	0.32
677.169	0.32
677.494	0.32
677.819	0.31
678.143	0.31
678.468	0.31
678.792	0.3
679.116	0.31
679.44	0.3
679.765	0.3
680.089	0.3
680.413	0.29
680.737	0.29
681.061	0.29
681.385	0.28
681.709	0.28
682.033	0.28
682.356	0.28
682.68	0.27
683.004	0.28
683.327	0.27
683.651	0.26
683.974	0.26
684.298	0.26
684.621	0.26
684.944	0.26
685.268	0.25
685.591	0.25
685.914	0.25
686.237	0.24
686.56	0.24
686.883	0.23
687.206	0.23
687.529	0.22
687.852	0.22
688.175	0.22
688.497	0.22
688.82	0.22
689.142	0.22
689.465	0.21
689.787	0.21
690.11	0.21
690.432	0.21
690.755	0.21
691.077	0.21
691.399	0.2
691.721	0.2
692.043	0.19
692.365	0.19
692.687	0.19
693.009	0.19
693.331	0.18
693.653	0.18
693.974	0.18
694.296	0.18
694.618	0.18
694.939	0.17
695.261	0.17
695.582	0.17
695.904	0.17
696.225	0.17
696.546	0.17
696.868	0.17
697.189	0.17
697.51	0.16
697.831	0.16
698.152	0.16
698.473	0.15
698.794	0.14
699.114	0.14
699.435	0.13
699.756	0.13
700.077	0.13
700.397	0.14
700.718	0.14
701.038	0.14
701.359	0.14
701.679	0.14
701.999	0.14
702.32	0.14
702.64	0.14
702.96	0.14
703.28	0.14
703.6	0.14
703.92	0.13
704.24	0.13
704.56	0.12
704.879	0.12
705.199	0.12
705.519	0.12
705.838	0.12
706.158	0.12
706.478	0.12
706.797	0.12
707.116	0.12
707.436	0.12
707.755	0.12
708.074	0.12
708.393	0.12
708.712	0.11
709.031	0.1
709.35	0.09
709.669	0.09
709.988	0.09
710.307	0.1
710.626	0.1
710.944	0.11
711.263	0.11
711.582	0.11
711.9	0.11
712.219	0.11
712.537	0.11
712.855	0.11
713.174	0.11
713.492	0.11
713.81	0.11
714.128	0.11
714.446	0.11
714.764	0.1
715.082	0.1
715.4	0.1
715.718	0.1
716.035	0.1
716.353	0.1
716.671	0.1
716.988	0.1
717.306	0.1
717.623	0.11
717.941	0.11
718.258	0.11
718.575	0.12
718.893	0.12
719.21	0.11
719.527	0.12
719.844	0.11
720.161	0.12
720.478	0.12
720.795	0.12
721.112	0.12
721.428	0.12
721.745	0.12
722.062	0.12
722.378	0.13
722.695	0.13
723.011	0.13
723.328	0.13
723.644	0.13
723.96	0.13
724.276	0.13
724.593	0.13
724.909	0.13
725.225	0.13
725.541	0.13
725.857	0.13
726.173	0.13
726.488	0.14
726.804	0.13
727.12	0.13
727.435	0.13
727.751	0.13
728.067	0.13
728.382	0.13
728.697	0.13
729.013	0.13
729.328	0.13
729.643	0.13
729.958	0.13
730.273	0.13
730.588	0.13
730.903	0.13
731.218	0.13
731.533	0.13
731.848	0.13
732.163	0.13
732.477	0.13
732.792	0.13
733.107	0.12
733.421	0.12
733.736	0.12
734.05	0.13
734.364	0.12
734.678	0.13
734.993	0.12
735.307	0.13
735.621	0.13
735.935	0.13
736.249	0.12
736.563	0.13
736.877	0.13
737.19	0.13
737.504	0.13
737.818	0.13
738.131	0.13
738.445	0.13
738.758	0.13
739.072	0.13
739.385	0.13
739.698	0.12
740.012	0.12
740.325	0.12
740.638	0.12
740.951	0.12
741.264	0.12
741.577	0.12
741.89	0.12
742.203	0.13
742.515	0.12
742.828	0.12
743.141	0.12
743.453	0.12
743.766	0.12
744.078	0.12
744.391	0.12
744.703	0.12
745.015	0.11
745.327	0.11
745.639	0.11
745.952	0.11
746.264	0.11
746.575	0.11
746.887	0.11
747.199	0.11
747.511	0.11
747.823	0.11
748.134	0.11
748.446	0.1
748.757	0.1
749.069	0.1
749.38	0.1
749.692	0.1
750.003	0.1
750.314	0.1
750.625	0.1
750.936	0.09
751.248	0.09
751.559	0.09
751.869	0.08
752.18	0.08
752.491	0.08
752.802	0.08
753.112	0.08
753.423	0.08
753.734	0.09
754.044	0.09
754.355	0.08
754.665	0.08
754.975	0.08
755.285	0.08
755.596	0.08
755.906	0.07
756.216	0.07
756.526	0.07
756.836	0.07
757.146	0.07
757.455	0.07
757.765	0.07
758.075	0.06
758.385	0.06
758.694	0.06
759.004	0.06
759.313	0.06
759.622	0.06
759.932	0.06
760.241	0.06
760.55	0.06
760.859	0.05
761.168	0.05
761.477	0.05
761.786	0.05
762.095	0.05
762.404	0.05
762.713	0.05
763.021	0.05
763.33	0.05
763.639	0.05
763.947	0.04
764.256	0.05
764.564	0.04
764.872	0.05
765.181	0.04
765.489	0.04
765.797	0.04
766.105	0.04
766.413	0.04
766.721	0.04
767.029	0.04
767.337	0.03
767.644	0.03
767.952	0.03
768.26	0.04
768.567	0.04
768.875	0.04
769.182	0.04
769.49	0.04
769.797	0.04
770.104	0.04
770.411	0.04
770.718	0.04
771.026	0.04
771.333	0.04
771.639	0.04
771.946	0.04
772.253	0.04
772.56	0.04
772.867	0.04
773.173	0.04
773.48	0.04
773.786	0.04
774.093	0.03
774.399	0.03
774.705	0.03
775.012	0.03
775.318	0.03
775.624	0.03
775.93	0.03
776.236	0.03
776.542	0.03
776.848	0.03
777.154	0.03
777.459	0.03
777.765	0.03
778.071	0.03
778.376	0.03
778.682	0.03
778.987	0.03
779.292	0.03
779.598	0.03
779.903	0.04
780.208	0.04
780.513	0.03
780.818	0.04
781.123	0.04
781.428	0.04
781.733	0.04
782.038	0.04
782.343	0.04
782.647	0.04
782.952	0.04
783.256	0.04
783.561	0.04
783.865	0.04
784.17	0.03
784.474	0.03
784.778	0.03
785.082	0.03
785.386	0.03
785.69	0.03
785.994	0.03
786.298	0.03
786.602	0.04
786.906	0.03
787.209	0.04
787.513	0.04
787.817	0.04
788.12	0.04
788.424	0.03
788.727	0.04
789.03	0.03
789.333	0.03
789.637	0.03
789.94	0.03
790.243	0.03
790.546	0.03
790.849	0.03
791.152	0.03
791.454	0.03
791.757	0.03
792.06	0.03
792.362	0.03
792.665	0.03
792.967	0.03
793.27	0.03
793.572	0.03
793.874	0.03
794.177	0.03
794.479	0.03
794.781	0.03
795.083	0.03
795.385	0.03
795.687	0.03
795.989	0.03
796.29	0.03
796.592	0.04
796.894	0.04
797.195	0.04
797.497	0.04
797.798	0.04
798.1	0.04
798.401	0.04
798.702	0.04
799.003	0.04
799.304	0.04
799.605	0.04
799.906	0.04
800.207	0.04
800.508	0.03
800.809	0.03
801.11	0.03
801.41	0.03
801.711	0.03
802.011	0.03
802.312	0.03
802.612	0.02
802.913	0.03
803.213	0.03
803.513	0.02
803.813	0.03
804.113	0.03
804.413	0.04
804.713	0.04
805.013	0.04
805.313	0.04
805.613	0.04
805.912	0.04
806.212	0.04
806.511	0.03
806.811	0.04
807.11	0.03
807.41	0.04
807.709	0.04
808.008	0.03
808.307	0.04
808.606	0.04
808.905	0.04
809.204	0.04
809.503	0.04
809.802	0.04
810.101	0.03
810.399	0.03
810.698	0.04
810.997	0.04
811.295	0.04
811.593	0.04
811.892	0.04
812.19	0.04
812.488	0.03
812.786	0.04
813.084	0.04
813.383	0.04
813.68	0.05
813.978	0.05
814.276	0.05
814.574	0.05
814.872	0.05
815.169	0.04
815.467	0.04
815.764	0.04
816.062	0.04
816.359	0.04
816.656	0.04
816.954	0.04
817.251	0.05
817.548	0.05
817.845	0.05
818.142	0.05
818.439	0.05
818.735	0.05
819.032	0.05
819.329	0.05
819.626	0.05
819.922	0.05
820.219	0.05
820.515	0.05
820.811	0.04
821.108	0.05
821.404	0.04
821.7	0.04
821.996	0.04
822.292	0.04
822.588	0.04
822.884	0.05
823.18	0.04
823.475	0.05
823.771	0.05
824.067	0.04
824.362	0.05
824.658	0.05
824.953	0.05
825.249	0.05
825.544	0.04
825.839	0.05
826.134	0.05
826.429	0.05
826.724	0.06
827.019	0.05
827.314	0.05
827.609	0.05
827.904	0.04
828.198	0.04
828.493	0.04
828.787	0.04
829.082	0.04
829.376	0.04
829.671	0.04
829.965	0.05
830.259	0.05
830.553	0.05
830.847	0.05
831.141	0.06
831.435	0.05
831.729	0.05
832.023	0.06
832.317	0.06
832.61	0.06
832.904	0.06
833.197	0.05
833.491	0.05
833.784	0.06
834.077	0.05
834.371	0.06
834.664	0.05
834.957	0.06
835.25	0.06
835.543	0.06
835.836	0.05
836.129	0.05
836.421	0.06
836.714	0.05
837.007	0.06
837.299	0.05
837.592	0.05
837.884	0.06
838.177	0.05
838.469	0.05
838.761	0.05
839.053	0.05
839.345	0.05
839.637	0.05
839.929	0.06
840.221	0.07
840.513	0.06
840.805	0.06
841.096	0.06
841.388	0.07
841.68	0.07
841.971	0.05
842.262	0.07
842.554	0.06
842.845	0.06
843.136	0.06
843.427	0.06
843.718	0.05
844.009	0.06
844.3	0.06
844.591	0.05
844.882	0.06
845.173	0.06
845.463	0.06
845.754	0.06
846.044	0.05
846.335	0.06
846.625	0.06
846.915	0.06
847.206	0.06
847.496	0.06
847.786	0.07
848.076	0.05
848.366	0.07
848.656	0.06
848.945	0.06
849.235	0.06
849.525	0.07
849.814	0.06
850.104	0.05
850.393	0.05
850.683	0.05
850.972	0.06
851.261	0.05
851.551	0.06
851.84	0.06
852.129	0.07
852.418	0.07
852.707	0.07
852.995	0.06
853.284	0.07
853.573	0.05
853.862	0.06
854.15	0.06
854.439	0.07
854.727	0.06
855.015	0.06
855.304	0.06
855.592	0.05
855.88	0.04
856.168	0.06
856.456	0.07
856.744	0.07
857.032	0.06
857.32	0.06
857.607	0.07
857.895	0.04
858.183	0.07
858.47	0.05
858.757	0.05
859.045	0.05
859.332	0.05
859.619	0.06
859.907	0.07
860.194	0.06
860.481	0.07
860.768	0.08
861.054	0.05
861.341	0.06
861.628	0.06
861.915	0.07
862.201	0.05
862.488	0.05
862.774	0.07
863.061	0.05
863.347	0.07
863.633	0.06
863.919	0.06
864.205	0.06
864.491	0.04
864.777	0.05
865.063	0.04
865.349	0.06
865.635	0.06
865.92	0.05
866.206	0.04
866.492	0.06
866.777	0.05
867.062	0.05
867.348	0.07
867.633	0.05
867.918	0.02
868.203	0.07
868.488	0.05
868.773	0.03
869.058	0.05
869.343	0.02
869.628	0.04
869.912	0.01
870.197	0.04
870.482	0.06
870.766	0.04
871.05	0.03
871.335	0.06
871.619	0.04
871.903	0.05
872.187	0.07
872.471	0.03
872.755	0.03
873.039	0.02
873.323	0.05
873.607	0.02
873.89	0.01
874.174	-0.02
874.458	0
874.741	0
875.024	0.05
875.308	0.06
875.591	-0
875.874	0.03
876.157	0
876.44	0.01
876.723	-0.01
877.006	-0.03
877.289	-0
877.572	0.06
877.854	-0.02
878.137	0.02
878.42	0.06
878.702	0.02
878.984	0.02
879.267	-0.01
879.549	0.05
879.831	0.05
880.113	0.02
880.395	0.01
880.677	-0
880.959	0.07
