Data from Rubpy_EV_EDTA_Test_Absorbance_16-41-43-024.txt Node
Date: Thu Jun 25 16:41:43 BST 2026
User: fpm-admin
Spectrometer: OFX00224
Trigger mode: 0
Integration Time (sec): 6.000000E-2
Scans to average: 1
Nonlinearity correction enabled: false
Boxcar width: 0
Storing dark spectrum: false
XAxis mode: Wavelengths
Number of Pixels in Spectrum: 2136
>>>>>Begin Spectral Data<<<<<
154.91	0.28
155.289	-0
155.669	0.44
156.048	0.16
156.428	-0
156.807	0.88
157.186	-0.95
157.566	-0
157.945	-0
158.325	0.18
158.704	0.18
159.083	-0.2
159.462	-0.36
159.842	-0
160.221	-0.48
160.6	-0
160.979	-0
161.359	-0
161.738	-0
162.117	0.38
162.496	1.18
162.875	-0.06
163.254	-0
163.633	-0.67
164.012	-0.12
164.391	-0
164.77	0.66
165.149	-0
165.528	-0
165.907	0.15
166.286	0.54
166.665	0.19
167.044	0.6
167.423	-0
167.802	-0
168.181	-0
168.559	-0
168.938	-0.24
169.317	-0.95
169.696	0.33
170.074	-0.09
170.453	0.15
170.832	0.78
171.21	-0
171.589	-0
171.968	-0
172.346	-0
172.725	-0.85
173.103	0.3
173.482	-0.82
173.861	-0
174.239	-0.7
174.617	-0
174.996	0.5
175.374	-0
175.753	-0.64
176.131	0.47
176.51	0.3
176.888	-1.11
177.266	-0
177.645	0.07
178.023	0.4
178.401	-0.06
178.779	0.3
179.158	-0.12
179.536	0.37
179.914	-0
180.292	0.08
180.67	-0
181.048	-0
181.427	-0
181.805	-0
182.183	0.11
182.561	-0
182.939	0.07
183.317	-0.26
183.695	-0
184.073	-0.2
184.451	-0.36
184.829	0.6
185.206	-0
185.584	-0.43
185.962	0.78
186.34	-0
186.718	-0
187.096	-0
187.473	-0
187.851	1.3
188.229	-0
188.607	0.3
188.984	0.31
189.362	0.52
189.74	0.5
190.117	0.22
190.495	0.08
190.872	-0
191.25	0.24
191.627	0.16
192.005	0.41
192.382	0.59
192.76	0.38
193.137	0.27
193.515	0.61
193.892	0.26
194.269	0.41
194.647	0.34
195.024	0.29
195.401	0.67
195.779	0.33
196.156	0.39
196.533	0.32
196.91	0.61
197.288	0.31
197.665	0.38
198.042	0.37
198.419	0.35
198.796	0.35
199.173	0.35
199.55	0.3
199.927	0.32
200.304	0.61
200.681	0.26
201.058	0.31
201.435	0.33
201.812	0.26
202.189	0.6
202.566	0.37
202.943	0.32
203.32	0.55
203.697	0.45
204.073	0.32
204.45	0.5
204.827	0.48
205.204	0.2
205.58	0.35
205.957	0.31
206.334	0.29
206.71	0.27
207.087	0.42
207.464	0.32
207.84	0.32
208.217	0.36
208.593	0.59
208.97	0.54
209.346	0.29
209.723	0.39
210.099	0.48
210.476	0.3
210.852	0.43
211.228	0.26
211.605	0.32
211.981	0.41
212.357	0.33
212.733	0.66
213.11	0.51
213.486	0.59
213.862	0.31
214.238	0.41
214.614	0.48
214.991	0.24
215.367	0.51
215.743	0.38
216.119	1.02
216.495	1.43
216.871	0.22
217.247	0.57
217.623	0.53
217.999	0.21
218.375	0.37
218.751	0.36
219.127	0.2
219.502	0.51
219.878	0.43
220.254	0.41
220.63	0.32
221.006	0.37
221.381	0.49
221.757	0.37
222.133	0.52
222.508	0.44
222.884	0.29
223.26	0.55
223.635	0.43
224.011	0.42
224.386	0.53
224.762	0.53
225.137	0.51
225.513	0.39
225.888	0.63
226.264	0.8
226.639	0.36
227.014	0.49
227.39	0.49
227.765	0.44
228.14	0.45
228.516	0.41
228.891	0.37
229.266	0.43
229.641	1.43
230.017	0.54
230.392	0.33
230.767	0.45
231.142	0.39
231.517	0.56
231.892	0.73
232.267	0.64
232.642	0.6
233.017	0.44
233.392	0.46
233.767	0.67
234.142	0.65
234.517	0.64
234.892	0.5
235.267	0.56
235.641	0.44
236.016	0.51
236.391	0.51
236.766	0.59
237.14	0.46
237.515	1.04
237.89	0.45
238.264	0.51
238.639	0.58
239.014	0.43
239.388	0.62
239.763	0.62
240.137	0.56
240.512	0.87
240.886	0.58
241.261	0.55
241.635	0.6
242.009	0.79
242.384	0.53
242.758	0.59
243.132	0.65
243.507	0.69
243.881	0.66
244.255	0.66
244.629	0.78
245.004	0.61
245.378	0.67
245.752	0.72
246.126	0.75
246.5	0.69
246.874	0.56
247.248	0.64
247.622	0.62
247.996	0.7
248.37	0.8
248.744	0.86
249.118	0.72
249.492	0.54
249.866	0.63
250.24	0.68
250.613	0.74
250.987	0.61
251.361	0.89
251.735	0.76
252.108	0.76
252.482	0.84
252.856	1.1
253.229	1.03
253.603	1.09
253.977	0.95
254.35	1.11
254.724	1.11
255.097	1.3
255.471	1.22
255.844	1.45
256.218	1.43
256.591	1.34
256.964	1.51
257.338	1.43
257.711	1.44
258.084	1.73
258.458	1.66
258.831	1.99
259.204	1.79
259.577	1.68
259.95	1.78
260.323	1.8
260.697	1.69
261.07	1.79
261.443	1.68
261.816	1.74
262.189	1.86
262.562	1.84
262.935	1.8
263.308	1.74
263.68	1.95
264.053	1.74
264.426	1.71
264.799	1.83
265.172	1.82
265.545	1.8
265.917	2.12
266.29	1.96
266.663	1.93
267.035	2.21
267.408	1.72
267.781	1.96
268.153	1.94
268.526	1.93
268.898	2.07
269.271	2.14
269.643	1.93
270.016	2.05
270.388	2.04
270.76	2.02
271.133	2.07
271.505	2.14
271.877	1.95
272.25	2.09
272.622	2.1
272.994	2.23
273.366	2.11
273.739	2.16
274.111	2.15
274.483	2.13
274.855	2.22
275.227	2.12
275.599	2.11
275.971	2.26
276.343	2.13
276.715	2.1
277.087	2.21
277.459	2.2
277.831	2.38
278.203	2.13
278.574	2.15
278.946	2.32
279.318	2.17
279.69	2.2
280.061	2.23
280.433	2.32
280.805	2.22
281.176	2.14
281.548	2.17
281.92	2.23
282.291	2.28
282.663	2.28
283.034	2.31
283.406	2.26
283.777	2.13
284.148	2.29
284.52	2.11
284.891	2.22
285.262	2.32
285.634	2.39
286.005	2.23
286.376	2.34
286.747	2.43
287.119	2.25
287.49	2.37
287.861	2.22
288.232	2.17
288.603	2.16
288.974	2.27
289.345	2.13
289.716	2.21
290.087	2.33
290.458	2.3
290.829	2.17
291.2	2.27
291.571	2.2
291.941	2.14
292.312	2.2
292.683	2.19
293.054	2.2
293.424	2.21
293.795	2.11
294.166	2.29
294.536	2.1
294.907	2.3
295.277	2.18
295.648	2.35
296.018	2.26
296.389	2.17
296.759	2.18
297.13	2.16
297.5	2.11
297.871	2.05
298.241	2.08
298.611	2.07
298.981	1.92
299.352	1.93
299.722	1.86
300.092	1.82
300.462	1.78
300.832	1.71
301.202	1.65
301.573	1.59
301.943	1.55
302.313	1.51
302.683	1.47
303.053	1.42
303.422	1.39
303.792	1.33
304.162	1.3
304.532	1.26
304.902	1.24
305.272	1.18
305.641	1.16
306.011	1.13
306.381	1.1
306.75	1.08
307.12	1.06
307.49	1.03
307.859	1.02
308.229	1
308.598	0.98
308.968	0.96
309.337	0.94
309.707	0.93
310.076	0.9
310.445	0.9
310.815	0.88
311.184	0.87
311.553	0.86
311.923	0.84
312.292	0.84
312.661	0.83
313.03	0.81
313.399	0.81
313.768	0.79
314.137	0.79
314.506	0.79
314.875	0.79
315.244	0.78
315.613	0.78
315.982	0.77
316.351	0.77
316.72	0.75
317.089	0.76
317.458	0.74
317.826	0.74
318.195	0.75
318.564	0.74
318.933	0.73
319.301	0.73
319.67	0.73
320.038	0.72
320.407	0.72
320.775	0.72
321.144	0.71
321.512	0.71
321.881	0.7
322.249	0.7
322.618	0.69
322.986	0.69
323.354	0.69
323.723	0.69
324.091	0.69
324.459	0.68
324.827	0.67
325.195	0.66
325.564	0.66
325.932	0.66
326.3	0.65
326.668	0.64
327.036	0.64
327.404	0.64
327.772	0.63
328.14	0.63
328.508	0.62
328.875	0.62
329.243	0.61
329.611	0.6
329.979	0.59
330.346	0.58
330.714	0.57
331.082	0.57
331.449	0.57
331.817	0.56
332.185	0.56
332.552	0.56
332.92	0.56
333.287	0.56
333.655	0.55
334.022	0.54
334.389	0.53
334.757	0.51
335.124	0.52
335.491	0.51
335.859	0.5
336.226	0.5
336.593	0.5
336.96	0.5
337.327	0.49
337.695	0.5
338.062	0.49
338.429	0.49
338.796	0.48
339.163	0.49
339.53	0.48
339.897	0.47
340.263	0.47
340.63	0.47
340.997	0.47
341.364	0.46
341.731	0.46
342.097	0.45
342.464	0.45
342.831	0.45
343.197	0.45
343.564	0.44
343.931	0.44
344.297	0.44
344.664	0.44
345.03	0.43
345.396	0.44
345.763	0.43
346.129	0.44
346.496	0.44
346.862	0.43
347.228	0.43
347.594	0.43
347.961	0.44
348.327	0.44
348.693	0.43
349.059	0.43
349.425	0.44
349.791	0.43
350.157	0.43
350.523	0.42
350.889	0.43
351.255	0.43
351.621	0.42
351.987	0.43
352.353	0.42
352.719	0.42
353.084	0.42
353.45	0.42
353.816	0.42
354.181	0.42
354.547	0.42
354.913	0.41
355.278	0.41
355.644	0.41
356.009	0.41
356.375	0.41
356.74	0.41
357.106	0.41
357.471	0.4
357.836	0.4
358.202	0.4
358.567	0.39
358.932	0.38
359.297	0.39
359.663	0.38
360.028	0.38
360.393	0.38
360.758	0.36
361.123	0.37
361.488	0.36
361.853	0.36
362.218	0.36
362.583	0.35
362.948	0.35
363.312	0.35
363.677	0.35
364.042	0.34
364.407	0.34
364.772	0.34
365.136	0.33
365.501	0.33
365.865	0.33
366.23	0.33
366.595	0.33
366.959	0.32
367.324	0.32
367.688	0.33
368.052	0.33
368.417	0.32
368.781	0.32
369.145	0.32
369.51	0.31
369.874	0.32
370.238	0.32
370.602	0.32
370.967	0.31
371.331	0.31
371.695	0.31
372.059	0.31
372.423	0.31
372.787	0.32
373.151	0.31
373.515	0.31
373.878	0.31
374.242	0.32
374.606	0.32
374.97	0.31
375.334	0.32
375.697	0.32
376.061	0.32
376.425	0.32
376.788	0.31
377.152	0.31
377.515	0.31
377.879	0.31
378.242	0.31
378.606	0.32
378.969	0.31
379.333	0.32
379.696	0.31
380.059	0.32
380.422	0.32
380.786	0.33
381.149	0.32
381.512	0.33
381.875	0.33
382.238	0.33
382.601	0.33
382.964	0.34
383.327	0.34
383.69	0.34
384.053	0.35
384.416	0.35
384.779	0.35
385.142	0.35
385.504	0.35
385.867	0.35
386.23	0.36
386.593	0.36
386.955	0.36
387.318	0.37
387.68	0.37
388.043	0.37
388.405	0.37
388.768	0.38
389.13	0.38
389.493	0.38
389.855	0.38
390.217	0.38
390.58	0.38
390.942	0.39
391.304	0.39
391.666	0.39
392.028	0.39
392.391	0.39
392.753	0.39
393.115	0.39
393.477	0.4
393.839	0.4
394.201	0.4
394.563	0.4
394.924	0.4
395.286	0.41
395.648	0.41
396.01	0.41
396.371	0.41
396.733	0.42
397.095	0.42
397.456	0.42
397.818	0.42
398.18	0.43
398.541	0.43
398.903	0.42
399.264	0.43
399.625	0.43
399.987	0.44
400.348	0.44
400.709	0.45
401.071	0.45
401.432	0.45
401.793	0.46
402.154	0.46
402.515	0.47
402.876	0.47
403.238	0.47
403.599	0.48
403.96	0.48
404.32	0.49
404.681	0.5
405.042	0.5
405.403	0.5
405.764	0.5
406.125	0.51
406.485	0.51
406.846	0.52
407.207	0.52
407.567	0.53
407.928	0.54
408.288	0.54
408.649	0.55
409.009	0.55
409.37	0.57
409.73	0.56
410.091	0.57
410.451	0.58
410.811	0.58
411.171	0.6
411.532	0.6
411.892	0.61
412.252	0.62
412.612	0.62
412.972	0.63
413.332	0.64
413.692	0.64
414.052	0.65
414.412	0.66
414.772	0.68
415.132	0.68
415.492	0.69
415.851	0.69
416.211	0.69
416.571	0.7
416.931	0.71
417.29	0.72
417.65	0.72
418.009	0.73
418.369	0.73
418.728	0.74
419.088	0.74
419.447	0.74
419.807	0.75
420.166	0.76
420.525	0.77
420.884	0.76
421.244	0.78
421.603	0.77
421.962	0.78
422.321	0.77
422.68	0.78
423.039	0.78
423.398	0.79
423.757	0.79
424.116	0.8
424.475	0.8
424.834	0.8
425.193	0.81
425.551	0.81
425.91	0.82
426.269	0.82
426.628	0.82
426.986	0.82
427.345	0.81
427.703	0.82
428.062	0.83
428.42	0.83
428.779	0.83
429.137	0.82
429.496	0.83
429.854	0.82
430.212	0.83
430.57	0.84
430.929	0.84
431.287	0.85
431.645	0.84
432.003	0.85
432.361	0.84
432.719	0.84
433.077	0.84
433.435	0.86
433.793	0.85
434.151	0.86
434.509	0.86
434.866	0.85
435.224	0.86
435.582	0.86
435.94	0.85
436.297	0.85
436.655	0.85
437.012	0.86
437.37	0.88
437.727	0.87
438.085	0.87
438.442	0.87
438.8	0.88
439.157	0.87
439.514	0.88
439.872	0.87
440.229	0.87
440.586	0.9
440.943	0.87
441.3	0.89
441.657	0.89
442.014	0.9
442.371	0.9
442.728	0.9
443.085	0.9
443.442	0.92
443.799	0.91
444.156	0.92
444.513	0.91
444.869	0.91
445.226	0.92
445.583	0.92
445.939	0.91
446.296	0.92
446.652	0.93
447.009	0.92
447.365	0.93
447.722	0.94
448.078	0.94
448.434	0.94
448.791	0.93
449.147	0.94
449.503	0.95
449.859	0.94
450.215	0.94
450.571	0.95
450.928	0.95
451.284	0.96
451.64	0.95
451.995	0.95
452.351	0.95
452.707	0.95
453.063	0.95
453.419	0.95
453.775	0.94
454.13	0.94
454.486	0.94
454.842	0.95
455.197	0.93
455.553	0.94
455.908	0.93
456.264	0.93
456.619	0.92
456.975	0.92
457.33	0.91
457.685	0.91
458.04	0.91
458.396	0.91
458.751	0.89
459.106	0.89
459.461	0.88
459.816	0.88
460.171	0.87
460.526	0.87
460.881	0.86
461.236	0.86
461.591	0.85
461.946	0.84
462.301	0.82
462.655	0.82
463.01	0.81
463.365	0.79
463.719	0.78
464.074	0.78
464.428	0.78
464.783	0.76
465.137	0.77
465.492	0.75
465.846	0.75
466.201	0.73
466.555	0.73
466.909	0.71
467.263	0.7
467.618	0.69
467.972	0.67
468.326	0.67
468.68	0.66
469.034	0.66
469.388	0.65
469.742	0.64
470.096	0.62
470.45	0.62
470.804	0.61
471.157	0.6
471.511	0.58
471.865	0.58
472.218	0.58
472.572	0.57
472.926	0.57
473.279	0.55
473.633	0.55
473.986	0.54
474.34	0.53
474.693	0.52
475.046	0.52
475.4	0.51
475.753	0.5
476.106	0.51
476.459	0.48
476.812	0.49
477.165	0.48
477.519	0.47
477.872	0.46
478.224	0.45
478.577	0.45
478.93	0.43
479.283	0.43
479.636	0.42
479.989	0.43
480.341	0.41
480.694	0.4
481.047	0.4
481.399	0.4
481.752	0.39
482.104	0.39
482.457	0.39
482.809	0.38
483.162	0.36
483.514	0.36
483.866	0.36
484.219	0.35
484.571	0.35
484.923	0.34
485.275	0.33
485.627	0.34
485.979	0.33
486.331	0.32
486.683	0.32
487.035	0.31
487.387	0.31
487.739	0.31
488.091	0.3
488.443	0.29
488.794	0.29
489.146	0.28
489.498	0.29
489.849	0.28
490.201	0.28
490.552	0.27
490.904	0.27
491.255	0.26
491.607	0.26
491.958	0.26
492.309	0.26
492.661	0.25
493.012	0.25
493.363	0.25
493.714	0.24
494.065	0.24
494.416	0.24
494.767	0.24
495.118	0.23
495.469	0.23
495.82	0.23
496.171	0.23
496.522	0.23
496.872	0.22
497.223	0.22
497.574	0.21
497.924	0.22
498.275	0.21
498.626	0.21
498.976	0.22
499.327	0.22
499.677	0.2
500.027	0.21
500.378	0.2
500.728	0.2
501.078	0.2
501.428	0.2
501.779	0.2
502.129	0.19
502.479	0.2
502.829	0.19
503.179	0.19
503.529	0.19
503.879	0.19
504.229	0.19
504.578	0.19
504.928	0.19
505.278	0.19
505.628	0.19
505.977	0.19
506.327	0.18
506.676	0.18
507.026	0.19
507.375	0.18
507.725	0.18
508.074	0.18
508.424	0.18
508.773	0.17
509.122	0.17
509.471	0.18
509.82	0.18
510.17	0.17
510.519	0.17
510.868	0.17
511.217	0.17
511.566	0.17
511.915	0.17
512.263	0.17
512.612	0.17
512.961	0.17
513.31	0.16
513.659	0.16
514.007	0.16
514.356	0.17
514.704	0.16
515.053	0.16
515.401	0.17
515.75	0.17
516.098	0.16
516.447	0.16
516.795	0.17
517.143	0.16
517.491	0.15
517.839	0.15
518.188	0.16
518.536	0.17
518.884	0.16
519.232	0.16
519.58	0.16
519.928	0.15
520.275	0.16
520.623	0.16
520.971	0.15
521.319	0.16
521.666	0.15
522.014	0.15
522.362	0.15
522.709	0.15
523.057	0.15
523.404	0.15
523.752	0.15
524.099	0.15
524.446	0.15
524.794	0.15
525.141	0.15
525.488	0.15
525.835	0.15
526.182	0.14
526.529	0.14
526.876	0.15
527.223	0.14
527.57	0.14
527.917	0.14
528.264	0.14
528.611	0.15
528.958	0.15
529.304	0.14
529.651	0.14
529.998	0.14
530.344	0.15
530.691	0.14
531.037	0.14
531.384	0.14
531.73	0.14
532.076	0.13
532.423	0.13
532.769	0.13
533.115	0.13
533.461	0.14
533.807	0.14
534.154	0.13
534.5	0.14
534.846	0.13
535.192	0.13
535.537	0.13
535.883	0.13
536.229	0.13
536.575	0.13
536.921	0.14
537.266	0.13
537.612	0.13
537.957	0.13
538.303	0.13
538.649	0.12
538.994	0.13
539.339	0.13
539.685	0.13
540.03	0.13
540.375	0.13
540.721	0.13
541.066	0.12
541.411	0.13
541.756	0.13
542.101	0.12
542.446	0.12
542.791	0.12
543.136	0.12
543.481	0.12
543.825	0.12
544.17	0.12
544.515	0.12
544.86	0.13
545.204	0.13
545.549	0.12
545.893	0.12
546.238	0.12
546.582	0.12
546.927	0.12
547.271	0.12
547.615	0.12
547.96	0.11
548.304	0.12
548.648	0.12
548.992	0.12
549.336	0.11
549.68	0.11
550.024	0.11
550.368	0.12
550.712	0.11
551.056	0.11
551.4	0.11
551.743	0.11
552.087	0.11
552.431	0.12
552.774	0.12
553.118	0.11
553.462	0.11
553.805	0.11
554.148	0.11
554.492	0.11
554.835	0.12
555.178	0.11
555.522	0.11
555.865	0.11
556.208	0.11
556.551	0.11
556.894	0.11
557.237	0.11
557.58	0.11
557.923	0.1
558.266	0.1
558.609	0.11
558.952	0.1
559.294	0.1
559.637	0.11
559.98	0.11
560.322	0.11
560.665	0.1
561.007	0.11
561.35	0.1
561.692	0.1
562.034	0.1
562.377	0.1
562.719	0.1
563.061	0.1
563.403	0.1
563.745	0.1
564.088	0.1
564.43	0.1
564.772	0.1
565.113	0.1
565.455	0.1
565.797	0.1
566.139	0.1
566.481	0.1
566.822	0.1
567.164	0.1
567.506	0.1
567.847	0.1
568.189	0.1
568.53	0.1
568.872	0.1
569.213	0.1
569.554	0.09
569.895	0.1
570.237	0.1
570.578	0.09
570.919	0.09
571.26	0.09
571.601	0.1
571.942	0.09
572.283	0.1
572.624	0.09
572.965	0.09
573.306	0.09
573.646	0.09
573.987	0.1
574.328	0.09
574.668	0.09
575.009	0.09
575.349	0.09
575.69	0.09
576.03	0.09
576.37	0.08
576.711	0.09
577.051	0.09
577.391	0.08
577.731	0.09
578.072	0.09
578.412	0.09
578.752	0.09
579.092	0.07
579.431	0.08
579.771	0.08
580.111	0.08
580.451	0.08
580.791	0.08
581.13	0.08
581.47	0.1
581.81	0.09
582.149	0.08
582.489	0.08
582.828	0.08
583.167	0.08
583.507	0.07
583.846	0.08
584.185	0.08
584.525	0.08
584.864	0.09
585.203	0.09
585.542	0.08
585.881	0.08
586.22	0.08
586.559	0.08
586.898	0.08
587.236	0.08
587.575	0.09
587.914	0.08
588.252	0.08
588.591	0.08
588.93	0.08
589.268	0.08
589.607	0.08
589.945	0.09
590.283	0.08
590.622	0.09
590.96	0.09
591.298	0.09
591.636	0.08
591.974	0.09
592.313	0.09
592.651	0.09
592.989	0.09
593.326	0.09
593.664	0.09
594.002	0.08
594.34	0.08
594.678	0.07
595.015	0.08
595.353	0.08
595.691	0.08
596.028	0.08
596.366	0.08
596.703	0.08
597.04	0.09
597.378	0.09
597.715	0.09
598.052	0.09
598.389	0.09
598.726	0.09
599.064	0.09
599.401	0.09
599.738	0.08
600.074	0.09
600.411	0.08
600.748	0.08
601.085	0.08
601.422	0.08
601.758	0.08
602.095	0.08
602.432	0.08
602.768	0.09
603.105	0.09
603.441	0.09
603.777	0.09
604.114	0.09
604.45	0.09
604.786	0.08
605.122	0.08
605.459	0.08
605.795	0.09
606.131	0.09
606.467	0.09
606.803	0.09
607.139	0.09
607.474	0.08
607.81	0.09
608.146	0.09
608.482	0.09
608.817	0.08
609.153	0.08
609.488	0.08
609.824	0.09
610.159	0.09
610.495	0.09
610.83	0.09
611.165	0.09
611.5	0.09
611.836	0.1
612.171	0.09
612.506	0.09
612.841	0.09
613.176	0.09
613.511	0.1
613.845	0.09
614.18	0.1
614.515	0.09
614.85	0.09
615.184	0.09
615.519	0.1
615.854	0.09
616.188	0.08
616.523	0.08
616.857	0.09
617.191	0.09
617.526	0.09
617.86	0.09
618.194	0.1
618.528	0.1
618.862	0.1
619.196	0.09
619.53	0.09
619.864	0.1
620.198	0.09
620.532	0.1
620.866	0.1
621.2	0.09
621.533	0.1
621.867	0.1
622.201	0.1
622.534	0.1
622.868	0.1
623.201	0.11
623.534	0.1
623.868	0.09
624.201	0.1
624.534	0.1
624.868	0.1
625.201	0.1
625.534	0.1
625.867	0.1
626.2	0.1
626.533	0.1
626.865	0.1
627.198	0.1
627.531	0.1
627.864	0.1
628.196	0.1
628.529	0.1
628.862	0.1
629.194	0.1
629.527	0.1
629.859	0.1
630.191	0.1
630.524	0.09
630.856	0.1
631.188	0.1
631.52	0.1
631.852	0.11
632.184	0.1
632.516	0.1
632.848	0.11
633.18	0.1
633.512	0.1
633.844	0.1
634.175	0.11
634.507	0.1
634.839	0.1
635.17	0.1
635.502	0.1
635.833	0.1
636.165	0.11
636.496	0.1
636.827	0.11
637.159	0.1
637.49	0.1
637.821	0.1
638.152	0.1
638.483	0.11
638.814	0.11
639.145	0.11
639.476	0.1
639.807	0.1
640.137	0.1
640.468	0.09
640.799	0.1
641.129	0.11
641.46	0.1
641.791	0.1
642.121	0.1
642.451	0.1
642.782	0.1
643.112	0.1
643.442	0.11
643.773	0.12
644.103	0.11
644.433	0.11
644.763	0.1
645.093	0.11
645.423	0.11
645.753	0.11
646.082	0.11
646.412	0.1
646.742	0.1
647.072	0.11
647.401	0.1
647.731	0.11
648.06	0.11
648.39	0.1
648.719	0.1
649.048	0.11
649.378	0.1
649.707	0.1
650.036	0.1
650.365	0.1
650.694	0.1
651.023	0.11
651.352	0.11
651.681	0.1
652.01	0.1
652.339	0.1
652.668	0.11
652.996	0.11
653.325	0.11
653.654	0.11
653.982	0.11
654.311	0.1
654.639	0.1
654.967	0.1
655.296	0.1
655.624	0.09
655.952	0.1
656.28	0.05
656.609	0.01
656.937	0.03
657.265	0.06
657.593	0.06
657.92	0.06
658.248	0.08
658.576	0.09
658.904	0.1
659.231	0.1
659.559	0.1
659.887	0.11
660.214	0.11
660.542	0.11
660.869	0.11
661.196	0.11
661.524	0.11
661.851	0.1
662.178	0.12
662.505	0.12
662.832	0.11
663.159	0.11
663.486	0.11
663.813	0.11
664.14	0.11
664.467	0.11
664.794	0.11
665.12	0.1
665.447	0.1
665.774	0.11
666.1	0.11
666.427	0.11
666.753	0.11
667.079	0.1
667.406	0.11
667.732	0.11
668.058	0.11
668.384	0.11
668.71	0.12
669.036	0.11
669.362	0.12
669.688	0.11
670.014	0.11
670.34	0.11
670.666	0.11
670.991	0.11
671.317	0.11
671.643	0.11
671.968	0.11
672.294	0.11
672.619	0.11
672.945	0.1
673.27	0.1
673.595	0.11
673.92	0.11
674.246	0.11
674.571	0.12
674.896	0.11
675.221	0.11
675.546	0.11
675.87	0.11
676.195	0.11
676.52	0.11
676.845	0.12
677.169	0.11
677.494	0.12
677.819	0.11
678.143	0.11
678.468	0.11
678.792	0.12
679.116	0.12
679.44	0.11
679.765	0.11
680.089	0.12
680.413	0.11
680.737	0.11
681.061	0.11
681.385	0.12
681.709	0.12
682.033	0.11
682.356	0.11
682.68	0.11
683.004	0.12
683.327	0.11
683.651	0.11
683.974	0.12
684.298	0.12
684.621	0.11
684.944	0.11
685.268	0.12
685.591	0.11
685.914	0.11
686.237	0.12
686.56	0.11
686.883	0.11
687.206	0.12
687.529	0.11
687.852	0.11
688.175	0.11
688.497	0.12
688.82	0.11
689.142	0.11
689.465	0.11
689.787	0.12
690.11	0.12
690.432	0.12
690.755	0.12
691.077	0.12
691.399	0.12
691.721	0.12
692.043	0.12
692.365	0.12
692.687	0.12
693.009	0.12
693.331	0.12
693.653	0.12
693.974	0.12
694.296	0.12
694.618	0.12
694.939	0.12
695.261	0.12
695.582	0.12
695.904	0.12
696.225	0.12
696.546	0.13
696.868	0.12
697.189	0.12
697.51	0.12
697.831	0.12
698.152	0.12
698.473	0.11
698.794	0.12
699.114	0.12
699.435	0.12
699.756	0.13
700.077	0.13
700.397	0.13
700.718	0.13
701.038	0.13
701.359	0.13
701.679	0.12
701.999	0.13
702.32	0.13
702.64	0.12
702.96	0.13
703.28	0.13
703.6	0.12
703.92	0.12
704.24	0.13
704.56	0.13
704.879	0.12
705.199	0.12
705.519	0.13
705.838	0.14
706.158	0.13
706.478	0.13
706.797	0.13
707.116	0.13
707.436	0.13
707.755	0.13
708.074	0.12
708.393	0.12
708.712	0.12
709.031	0.12
709.35	0.13
709.669	0.12
709.988	0.12
710.307	0.12
710.626	0.12
710.944	0.13
711.263	0.13
711.582	0.13
711.9	0.13
712.219	0.14
712.537	0.14
712.855	0.14
713.174	0.14
713.492	0.13
713.81	0.13
714.128	0.13
714.446	0.13
714.764	0.13
715.082	0.13
715.4	0.13
715.718	0.13
716.035	0.13
716.353	0.13
716.671	0.13
716.988	0.13
717.306	0.12
717.623	0.13
717.941	0.13
718.258	0.14
718.575	0.13
718.893	0.14
719.21	0.13
719.527	0.13
719.844	0.13
720.161	0.13
720.478	0.14
720.795	0.14
721.112	0.14
721.428	0.14
721.745	0.14
722.062	0.14
722.378	0.13
722.695	0.13
723.011	0.13
723.328	0.13
723.644	0.13
723.96	0.14
724.276	0.13
724.593	0.13
724.909	0.13
725.225	0.14
725.541	0.14
725.857	0.14
726.173	0.15
726.488	0.14
726.804	0.14
727.12	0.14
727.435	0.15
727.751	0.14
728.067	0.14
728.382	0.14
728.697	0.14
729.013	0.13
729.328	0.13
729.643	0.12
729.958	0.13
730.273	0.13
730.588	0.13
730.903	0.13
731.218	0.13
731.533	0.13
731.848	0.13
732.163	0.13
732.477	0.14
732.792	0.14
733.107	0.13
733.421	0.14
733.736	0.14
734.05	0.13
734.364	0.14
734.678	0.13
734.993	0.14
735.307	0.14
735.621	0.14
735.935	0.14
736.249	0.14
736.563	0.14
736.877	0.14
737.19	0.14
737.504	0.14
737.818	0.13
738.131	0.14
738.445	0.14
738.758	0.13
739.072	0.14
739.385	0.14
739.698	0.14
740.012	0.14
740.325	0.14
740.638	0.15
740.951	0.14
741.264	0.14
741.577	0.14
741.89	0.15
742.203	0.14
742.515	0.14
742.828	0.14
743.141	0.14
743.453	0.14
743.766	0.14
744.078	0.14
744.391	0.15
744.703	0.15
745.015	0.15
745.327	0.14
745.639	0.15
745.952	0.15
746.264	0.15
746.575	0.14
746.887	0.14
747.199	0.14
747.511	0.14
747.823	0.14
748.134	0.15
748.446	0.15
748.757	0.14
749.069	0.15
749.38	0.14
749.692	0.14
750.003	0.14
750.314	0.14
750.625	0.14
750.936	0.14
751.248	0.14
751.559	0.14
751.869	0.14
752.18	0.13
752.491	0.13
752.802	0.13
753.112	0.13
753.423	0.14
753.734	0.14
754.044	0.14
754.355	0.13
754.665	0.14
754.975	0.14
755.285	0.14
755.596	0.14
755.906	0.14
756.216	0.14
756.526	0.13
756.836	0.14
757.146	0.14
757.455	0.14
757.765	0.13
758.075	0.13
758.385	0.13
758.694	0.13
759.004	0.14
759.313	0.13
759.622	0.13
759.932	0.14
760.241	0.14
760.55	0.13
760.859	0.13
761.168	0.13
761.477	0.13
761.786	0.14
762.095	0.13
762.404	0.14
762.713	0.14
763.021	0.14
763.33	0.13
763.639	0.13
763.947	0.13
764.256	0.13
764.564	0.14
764.872	0.13
765.181	0.13
765.489	0.13
765.797	0.13
766.105	0.13
766.413	0.12
766.721	0.13
767.029	0.13
767.337	0.13
767.644	0.13
767.952	0.13
768.26	0.13
768.567	0.13
768.875	0.13
769.182	0.13
769.49	0.13
769.797	0.13
770.104	0.13
770.411	0.13
770.718	0.13
771.026	0.13
771.333	0.13
771.639	0.13
771.946	0.13
772.253	0.13
772.56	0.13
772.867	0.13
773.173	0.13
773.48	0.13
773.786	0.12
774.093	0.13
774.399	0.14
774.705	0.13
775.012	0.13
775.318	0.13
775.624	0.13
775.93	0.13
776.236	0.13
776.542	0.14
776.848	0.14
777.154	0.13
777.459	0.13
777.765	0.13
778.071	0.13
778.376	0.13
778.682	0.14
778.987	0.13
779.292	0.13
779.598	0.13
779.903	0.13
780.208	0.13
780.513	0.13
780.818	0.13
781.123	0.14
781.428	0.14
781.733	0.13
782.038	0.13
782.343	0.13
782.647	0.13
782.952	0.13
783.256	0.14
783.561	0.13
783.865	0.13
784.17	0.13
784.474	0.13
784.778	0.12
785.082	0.12
785.386	0.12
785.69	0.12
785.994	0.13
786.298	0.13
786.602	0.13
786.906	0.13
787.209	0.13
787.513	0.13
787.817	0.13
788.12	0.13
788.424	0.13
788.727	0.13
789.03	0.13
789.333	0.13
789.637	0.13
789.94	0.13
790.243	0.12
790.546	0.12
790.849	0.11
791.152	0.11
791.454	0.12
791.757	0.12
792.06	0.12
792.362	0.11
792.665	0.12
792.967	0.12
793.27	0.12
793.572	0.12
793.874	0.12
794.177	0.12
794.479	0.11
794.781	0.12
795.083	0.11
795.385	0.11
795.687	0.11
795.989	0.11
796.29	0.11
796.592	0.1
796.894	0.11
797.195	0.11
797.497	0.12
797.798	0.12
798.1	0.12
798.401	0.12
798.702	0.11
799.003	0.12
799.304	0.11
799.605	0.11
799.906	0.11
800.207	0.12
800.508	0.11
800.809	0.11
801.11	0.11
801.41	0.11
801.711	0.1
802.011	0.1
802.312	0.1
802.612	0.1
802.913	0.1
803.213	0.11
803.513	0.1
803.813	0.09
804.113	0.09
804.413	0.09
804.713	0.1
805.013	0.1
805.313	0.1
805.613	0.1
805.912	0.1
806.212	0.1
806.511	0.1
806.811	0.11
807.11	0.1
807.41	0.1
807.709	0.1
808.008	0.1
808.307	0.09
808.606	0.1
808.905	0.1
809.204	0.1
809.503	0.09
809.802	0.1
810.101	0.09
810.399	0.09
810.698	0.09
810.997	0.1
811.295	0.1
811.593	0.09
811.892	0.09
812.19	0.09
812.488	0.09
812.786	0.08
813.084	0.09
813.383	0.09
813.68	0.09
813.978	0.08
814.276	0.1
814.574	0.07
814.872	0.08
815.169	0.08
815.467	0.08
815.764	0.07
816.062	0.07
816.359	0.07
816.656	0.07
816.954	0.07
817.251	0.07
817.548	0.07
817.845	0.07
818.142	0.07
818.439	0.07
818.735	0.06
819.032	0.08
819.329	0.07
819.626	0.07
819.922	0.07
820.219	0.08
820.515	0.09
820.811	0.06
821.108	0.07
821.404	0.07
821.7	0.07
821.996	0.06
822.292	0.06
822.588	0.05
822.884	0.06
823.18	0.07
823.475	0.06
823.771	0.05
824.067	0.07
824.362	0.06
824.658	0.06
824.953	0.06
825.249	0.07
825.544	0.07
825.839	0.07
826.134	0.06
826.429	0.07
826.724	0.06
827.019	0.05
827.314	0.05
827.609	0.05
827.904	0.03
828.198	0.04
828.493	0.04
828.787	0.06
829.082	0.04
829.376	0.04
829.671	0.05
829.965	0.04
830.259	0.05
830.553	0.06
830.847	0.04
831.141	0.04
831.435	0.03
831.729	0.05
832.023	0.03
832.317	0.03
832.61	0.03
832.904	0.05
833.197	0.05
833.491	0.04
833.784	0.04
834.077	0.04
834.371	0.05
834.664	0.03
834.957	0.04
835.25	0.03
835.543	0.03
835.836	0.05
836.129	0.04
836.421	0.05
836.714	0.03
837.007	0.03
837.299	0.03
837.592	0.02
837.884	0.03
838.177	0.03
838.469	0.02
838.761	0.02
839.053	0.02
839.345	0.02
839.637	0.01
839.929	0.01
840.221	-0.01
840.513	0.01
840.805	0
841.096	0.02
841.388	-0
841.68	0.03
841.971	0.01
842.262	0
842.554	0
842.845	0.01
843.136	0.02
843.427	0.02
843.718	0.04
844.009	0.04
844.3	0.02
844.591	0.02
844.882	0.01
845.173	0
845.463	0
845.754	0.02
846.044	0
846.335	-0.01
846.625	0.02
846.915	-0.02
847.206	-0.02
847.496	-0.01
847.786	-0
848.076	-0.02
848.366	-0.01
848.656	-0
848.945	-0
849.235	-0.01
849.525	-0.01
849.814	-0.01
850.104	-0.03
850.393	0
850.683	-0.03
850.972	0
851.261	-0.04
851.551	-0.01
851.84	-0.01
852.129	-0.02
852.418	-0.02
852.707	0.01
852.995	-0.03
853.284	-0.03
853.573	-0.03
853.862	-0.01
854.15	-0.03
854.439	-0.01
854.727	0.01
855.015	-0.01
855.304	-0.03
855.592	-0.06
855.88	-0.05
856.168	-0.01
856.456	-0.01
856.744	-0
857.032	-0.01
857.32	0.01
857.607	-0.03
857.895	-0
858.183	-0.03
858.47	-0.04
858.757	-0.09
859.045	0.02
859.332	-0.03
859.619	-0.04
859.907	-0.05
860.194	-0.08
860.481	-0.05
860.768	-0.02
861.054	-0.09
861.341	-0.1
861.628	-0.03
861.915	-0.04
862.201	-0.06
862.488	-0.09
862.774	-0.05
863.061	-0.02
863.347	-0.06
863.633	-0.05
863.919	-0.02
864.205	-0.07
864.491	-0.02
864.777	-0.09
865.063	-0.08
865.349	-0.07
865.635	-0.12
865.92	-0.04
866.206	-0.07
866.492	-0.06
866.777	-0.04
867.062	-0.07
867.348	-0.14
867.633	-0.09
867.918	-0.09
868.203	-0.1
868.488	-0.1
868.773	-0.11
869.058	-0.15
869.343	-0.1
869.628	-0.16
869.912	-0.1
870.197	-0.09
870.482	-0.11
870.766	-0.08
871.05	-0.05
871.335	-0.16
871.619	0.04
871.903	-0.14
872.187	-0.04
872.471	-0.07
872.755	-0.06
873.039	-0.08
873.323	-0.04
873.607	-0.09
873.89	-0.14
874.174	-0.18
874.458	-0.13
874.741	-0.1
875.024	-0.12
875.308	-0.05
875.591	-0.07
875.874	-0.14
876.157	-0.09
876.44	-0.18
876.723	-0.03
877.006	-0.15
877.289	-0.02
877.572	-0.04
877.854	-0.43
878.137	-0.11
878.42	-0.34
878.702	-0.09
878.984	-0.31
879.267	-0.2
879.549	-0.24
879.831	-0.35
880.113	-0.23
880.395	-0.12
880.677	0.14
880.959	-0.21
