Data from Rubpy_EV_EDTA_Test_Absorbance_16-50-50-066.txt Node
Date: Thu Jun 25 16:50:50 BST 2026
User: fpm-admin
Spectrometer: OFX00224
Trigger mode: 0
Integration Time (sec): 6.000000E-2
Scans to average: 1
Nonlinearity correction enabled: false
Boxcar width: 0
Storing dark spectrum: false
XAxis mode: Wavelengths
Number of Pixels in Spectrum: 2136
>>>>>Begin Spectral Data<<<<<
154.91	-0
155.289	-0
155.669	0.26
156.048	-0
156.428	-0
156.807	0.7
157.186	-0.81
157.566	-0
157.945	-0.54
158.325	-0
158.704	0.65
159.083	-0
159.462	-0.04
159.842	0.49
160.221	-0.67
160.6	-0
160.979	0.2
161.359	-0
161.738	-0.38
162.117	0.04
162.496	-0
162.875	-0.11
163.254	0.43
163.633	0.18
164.012	0.09
164.391	-0
164.77	-0
165.149	-0
165.528	-0
165.907	0.12
166.286	-0
166.665	-0.15
167.044	0.35
167.423	-0.06
167.802	-0
168.181	-0.52
168.559	-0
168.938	-0.51
169.317	-0.81
169.696	-0
170.074	0.22
170.453	-0.09
170.832	-0
171.21	-0
171.589	-0
171.968	-0.6
172.346	-0
172.725	-0.3
173.103	1.08
173.482	-0.6
173.861	-0
174.239	-0
174.617	-0
174.996	0.32
175.374	-0
175.753	-0
176.131	0.47
176.51	0.04
176.888	-0.85
177.266	-0
177.645	-0.01
178.023	-0
178.401	-0.16
178.779	-0
179.158	-0.12
179.536	0.27
179.914	0.37
180.292	-0.1
180.67	-0
181.048	-0
181.427	-0
181.805	-0
182.183	0.18
182.561	-0
182.939	0.16
183.317	-0.08
183.695	-0.78
184.073	-0.23
184.451	1
184.829	-0.21
185.206	-0
185.584	-0
185.962	-0.05
186.34	-0.52
186.718	0.14
187.096	-0
187.473	0.12
187.851	-0
188.229	0.07
188.607	0.69
188.984	0.44
189.362	0.35
189.74	0.51
190.117	0.31
190.495	0.82
190.872	1.23
191.25	0.42
191.627	0.32
192.005	0.59
192.382	0.33
192.76	0.43
193.137	0.39
193.515	0.5
193.892	0.5
194.269	0.41
194.647	0.39
195.024	0.65
195.401	0.46
195.779	0.43
196.156	0.37
196.533	0.33
196.91	0.5
197.288	0.3
197.665	0.25
198.042	0.15
198.419	0.39
198.796	0.34
199.173	0.5
199.55	0.42
199.927	0.32
200.304	0.44
200.681	0.58
201.058	0.45
201.435	0.33
201.812	0.3
202.189	0.69
202.566	0.27
202.943	0.31
203.32	0.53
203.697	0.3
204.073	0.46
204.45	0.32
204.827	0.57
205.204	0.32
205.58	0.39
205.957	0.31
206.334	0.52
206.71	0.28
207.087	0.55
207.464	0.53
207.84	0.41
208.217	0.42
208.593	0.59
208.97	0.48
209.346	0.15
209.723	0.37
210.099	0.32
210.476	0.44
210.852	0.64
211.228	0.31
211.605	0.29
211.981	0.43
212.357	0.24
212.733	0.45
213.11	0.52
213.486	0.31
213.862	0.36
214.238	0.63
214.614	0.27
214.991	0.53
215.367	0.82
215.743	0.6
216.119	0.62
216.495	0.93
216.871	0.63
217.247	0.34
217.623	0.47
217.999	0.38
218.375	0.56
218.751	0.62
219.127	0.46
219.502	0.47
219.878	0.61
220.254	0.37
220.63	0.56
221.006	0.25
221.381	0.48
221.757	0.45
222.133	0.45
222.508	0.54
222.884	0.29
223.26	0.59
223.635	0.38
224.011	0.44
224.386	0.42
224.762	0.56
225.137	0.5
225.513	0.43
225.888	0.53
226.264	0.77
226.639	0.43
227.014	0.46
227.39	0.55
227.765	0.45
228.14	0.56
228.516	0.57
228.891	0.44
229.266	0.45
229.641	0.54
230.017	0.52
230.392	0.52
230.767	0.47
231.142	0.41
231.517	0.49
231.892	0.41
232.267	0.62
232.642	0.97
233.017	0.48
233.392	0.36
233.767	0.6
234.142	0.56
234.517	0.51
234.892	0.57
235.267	0.43
235.641	0.66
236.016	0.63
236.391	0.7
236.766	0.73
237.14	0.46
237.515	0.64
237.89	0.52
238.264	0.51
238.639	0.8
239.014	0.47
239.388	0.53
239.763	0.71
240.137	0.49
240.512	0.66
240.886	0.72
241.261	0.79
241.635	0.6
242.009	0.77
242.384	0.57
242.758	0.52
243.132	0.43
243.507	0.64
243.881	0.63
244.255	0.54
244.629	0.83
245.004	0.64
245.378	0.61
245.752	0.66
246.126	0.64
246.5	0.75
246.874	0.8
247.248	0.59
247.622	0.64
247.996	0.96
248.37	0.69
248.744	0.78
249.118	0.94
249.492	0.68
249.866	0.85
250.24	0.78
250.613	0.79
250.987	0.97
251.361	0.79
251.735	0.75
252.108	0.69
252.482	0.89
252.856	0.75
253.229	0.93
253.603	1.22
253.977	1.07
254.35	1.22
254.724	1.22
255.097	1.26
255.471	1.26
255.844	1.73
256.218	1.37
256.591	1.45
256.964	1.5
257.338	1.45
257.711	1.57
258.084	1.66
258.458	1.77
258.831	1.88
259.204	1.74
259.577	1.91
259.95	1.77
260.323	1.91
260.697	1.82
261.07	2.08
261.443	1.74
261.816	1.76
262.189	1.81
262.562	1.89
262.935	2.1
263.308	1.73
263.68	1.94
264.053	1.75
264.426	1.84
264.799	1.87
265.172	1.76
265.545	1.91
265.917	1.96
266.29	1.94
266.663	2
267.035	2.25
267.408	1.85
267.781	2.05
268.153	1.92
268.526	2.1
268.898	2.01
269.271	2.15
269.643	2
270.016	2.23
270.388	2.23
270.76	2.11
271.133	2.25
271.505	2.19
271.877	1.9
272.25	2.29
272.622	2.24
272.994	2.38
273.366	2.43
273.739	2.24
274.111	2.22
274.483	2.1
274.855	2.1
275.227	2.15
275.599	2.16
275.971	2.32
276.343	2.24
276.715	2.25
277.087	2.3
277.459	2.37
277.831	2.31
278.203	2.13
278.574	2.3
278.946	2.35
279.318	2.08
279.69	2.23
280.061	2.31
280.433	2.31
280.805	2.41
281.176	2.16
281.548	2.45
281.92	2.33
282.291	2.37
282.663	2.3
283.034	2.35
283.406	2.33
283.777	2.26
284.148	2.22
284.52	2.18
284.891	2.28
285.262	2.51
285.634	2.28
286.005	2.29
286.376	2.31
286.747	2.35
287.119	2.27
287.49	2.42
287.861	2.29
288.232	2.18
288.603	2.29
288.974	2.4
289.345	2.24
289.716	2.27
290.087	2.24
290.458	2.2
290.829	2.3
291.2	2.35
291.571	2.23
291.941	2.17
292.312	2.23
292.683	2.26
293.054	2.3
293.424	2.16
293.795	2.25
294.166	2.21
294.536	2.17
294.907	2.26
295.277	2.2
295.648	2.27
296.018	2.18
296.389	2.26
296.759	2.26
297.13	2.18
297.5	2.13
297.871	2.02
298.241	2.07
298.611	2.03
298.981	1.94
299.352	1.93
299.722	1.91
300.092	1.81
300.462	1.78
300.832	1.7
301.202	1.69
301.573	1.61
301.943	1.56
302.313	1.54
302.683	1.47
303.053	1.45
303.422	1.39
303.792	1.35
304.162	1.32
304.532	1.27
304.902	1.24
305.272	1.21
305.641	1.19
306.011	1.17
306.381	1.13
306.75	1.11
307.12	1.08
307.49	1.05
307.859	1.04
308.229	1.01
308.598	1
308.968	0.97
309.337	0.96
309.707	0.94
310.076	0.93
310.445	0.92
310.815	0.9
311.184	0.88
311.553	0.88
311.923	0.87
312.292	0.87
312.661	0.85
313.03	0.85
313.399	0.84
313.768	0.83
314.137	0.82
314.506	0.81
314.875	0.82
315.244	0.81
315.613	0.8
315.982	0.78
316.351	0.79
316.72	0.77
317.089	0.78
317.458	0.77
317.826	0.77
318.195	0.76
318.564	0.76
318.933	0.76
319.301	0.74
319.67	0.75
320.038	0.74
320.407	0.74
320.775	0.73
321.144	0.73
321.512	0.72
321.881	0.72
322.249	0.72
322.618	0.71
322.986	0.71
323.354	0.71
323.723	0.71
324.091	0.69
324.459	0.69
324.827	0.69
325.195	0.68
325.564	0.67
325.932	0.67
326.3	0.66
326.668	0.66
327.036	0.66
327.404	0.66
327.772	0.65
328.14	0.65
328.508	0.63
328.875	0.63
329.243	0.63
329.611	0.62
329.979	0.61
330.346	0.6
330.714	0.59
331.082	0.59
331.449	0.58
331.817	0.58
332.185	0.58
332.552	0.58
332.92	0.58
333.287	0.58
333.655	0.58
334.022	0.57
334.389	0.55
334.757	0.54
335.124	0.53
335.491	0.52
335.859	0.52
336.226	0.53
336.593	0.52
336.96	0.52
337.327	0.52
337.695	0.51
338.062	0.5
338.429	0.5
338.796	0.5
339.163	0.5
339.53	0.49
339.897	0.49
340.263	0.5
340.63	0.49
340.997	0.49
341.364	0.49
341.731	0.47
342.097	0.48
342.464	0.47
342.831	0.48
343.197	0.47
343.564	0.47
343.931	0.47
344.297	0.47
344.664	0.47
345.03	0.47
345.396	0.46
345.763	0.46
346.129	0.47
346.496	0.47
346.862	0.47
347.228	0.46
347.594	0.47
347.961	0.47
348.327	0.47
348.693	0.48
349.059	0.47
349.425	0.47
349.791	0.47
350.157	0.47
350.523	0.46
350.889	0.47
351.255	0.47
351.621	0.47
351.987	0.46
352.353	0.47
352.719	0.47
353.084	0.46
353.45	0.46
353.816	0.46
354.181	0.47
354.547	0.47
354.913	0.47
355.278	0.46
355.644	0.46
356.009	0.46
356.375	0.47
356.74	0.46
357.106	0.46
357.471	0.46
357.836	0.45
358.202	0.46
358.567	0.45
358.932	0.45
359.297	0.45
359.663	0.45
360.028	0.44
360.393	0.44
360.758	0.44
361.123	0.44
361.488	0.43
361.853	0.43
362.218	0.43
362.583	0.42
362.948	0.43
363.312	0.42
363.677	0.42
364.042	0.42
364.407	0.42
364.772	0.42
365.136	0.41
365.501	0.42
365.865	0.41
366.23	0.41
366.595	0.42
366.959	0.41
367.324	0.42
367.688	0.42
368.052	0.41
368.417	0.42
368.781	0.41
369.145	0.41
369.51	0.41
369.874	0.41
370.238	0.41
370.602	0.41
370.967	0.41
371.331	0.41
371.695	0.41
372.059	0.41
372.423	0.41
372.787	0.41
373.151	0.41
373.515	0.41
373.878	0.41
374.242	0.41
374.606	0.41
374.97	0.41
375.334	0.41
375.697	0.42
376.061	0.42
376.425	0.41
376.788	0.42
377.152	0.41
377.515	0.41
377.879	0.42
378.242	0.43
378.606	0.43
378.969	0.43
379.333	0.44
379.696	0.43
380.059	0.44
380.422	0.44
380.786	0.45
381.149	0.46
381.512	0.46
381.875	0.47
382.238	0.48
382.601	0.47
382.964	0.49
383.327	0.49
383.69	0.49
384.053	0.5
384.416	0.51
384.779	0.5
385.142	0.51
385.504	0.52
385.867	0.52
386.23	0.52
386.593	0.51
386.955	0.52
387.318	0.53
387.68	0.53
388.043	0.52
388.405	0.53
388.768	0.53
389.13	0.53
389.493	0.54
389.855	0.54
390.217	0.54
390.58	0.55
390.942	0.56
391.304	0.56
391.666	0.57
392.028	0.57
392.391	0.58
392.753	0.6
393.115	0.6
393.477	0.62
393.839	0.63
394.201	0.64
394.563	0.65
394.924	0.65
395.286	0.65
395.648	0.67
396.01	0.66
396.371	0.67
396.733	0.67
397.095	0.67
397.456	0.66
397.818	0.66
398.18	0.65
398.541	0.64
398.903	0.63
399.264	0.62
399.625	0.62
399.987	0.61
400.348	0.6
400.709	0.59
401.071	0.59
401.432	0.58
401.793	0.57
402.154	0.57
402.515	0.57
402.876	0.57
403.238	0.56
403.599	0.56
403.96	0.55
404.32	0.56
404.681	0.56
405.042	0.55
405.403	0.56
405.764	0.56
406.125	0.56
406.485	0.57
406.846	0.56
407.207	0.56
407.567	0.57
407.928	0.58
408.288	0.59
408.649	0.58
409.009	0.58
409.37	0.59
409.73	0.6
410.091	0.61
410.451	0.61
410.811	0.62
411.171	0.62
411.532	0.63
411.892	0.63
412.252	0.64
412.612	0.65
412.972	0.66
413.332	0.67
413.692	0.67
414.052	0.68
414.412	0.69
414.772	0.69
415.132	0.69
415.492	0.7
415.851	0.71
416.211	0.71
416.571	0.72
416.931	0.73
417.29	0.72
417.65	0.74
418.009	0.74
418.369	0.75
418.728	0.76
419.088	0.76
419.447	0.76
419.807	0.76
420.166	0.77
420.525	0.78
420.884	0.77
421.244	0.77
421.603	0.78
421.962	0.79
422.321	0.79
422.68	0.8
423.039	0.8
423.398	0.81
423.757	0.81
424.116	0.8
424.475	0.81
424.834	0.82
425.193	0.82
425.551	0.82
425.91	0.82
426.269	0.83
426.628	0.83
426.986	0.82
427.345	0.82
427.703	0.83
428.062	0.83
428.42	0.83
428.779	0.83
429.137	0.83
429.496	0.85
429.854	0.84
430.212	0.84
430.57	0.85
430.929	0.85
431.287	0.85
431.645	0.85
432.003	0.87
432.361	0.85
432.719	0.84
433.077	0.86
433.435	0.87
433.793	0.85
434.151	0.86
434.509	0.86
434.866	0.86
435.224	0.86
435.582	0.87
435.94	0.88
436.297	0.86
436.655	0.87
437.012	0.87
437.37	0.87
437.727	0.88
438.085	0.88
438.442	0.88
438.8	0.89
439.157	0.88
439.514	0.88
439.872	0.88
440.229	0.88
440.586	0.89
440.943	0.88
441.3	0.9
441.657	0.91
442.014	0.89
442.371	0.91
442.728	0.9
443.085	0.9
443.442	0.92
443.799	0.92
444.156	0.91
444.513	0.92
444.869	0.92
445.226	0.92
445.583	0.93
445.939	0.92
446.296	0.93
446.652	0.92
447.009	0.94
447.365	0.94
447.722	0.94
448.078	0.94
448.434	0.94
448.791	0.96
449.147	0.94
449.503	0.95
449.859	0.94
450.215	0.94
450.571	0.95
450.928	0.96
451.284	0.96
451.64	0.95
451.995	0.96
452.351	0.96
452.707	0.95
453.063	0.95
453.419	0.95
453.775	0.95
454.13	0.95
454.486	0.94
454.842	0.93
455.197	0.93
455.553	0.93
455.908	0.93
456.264	0.94
456.619	0.92
456.975	0.93
457.33	0.92
457.685	0.91
458.04	0.91
458.396	0.91
458.751	0.9
459.106	0.91
459.461	0.89
459.816	0.88
460.171	0.88
460.526	0.87
460.881	0.86
461.236	0.86
461.591	0.86
461.946	0.84
462.301	0.83
462.655	0.83
463.01	0.82
463.365	0.8
463.719	0.8
464.074	0.78
464.428	0.77
464.783	0.77
465.137	0.77
465.492	0.76
465.846	0.75
466.201	0.74
466.555	0.74
466.909	0.72
467.263	0.7
467.618	0.7
467.972	0.69
468.326	0.68
468.68	0.66
469.034	0.66
469.388	0.65
469.742	0.64
470.096	0.62
470.45	0.63
470.804	0.62
471.157	0.6
471.511	0.6
471.865	0.59
472.218	0.58
472.572	0.57
472.926	0.57
473.279	0.55
473.633	0.56
473.986	0.55
474.34	0.55
474.693	0.54
475.046	0.53
475.4	0.53
475.753	0.52
476.106	0.51
476.459	0.49
476.812	0.5
477.165	0.49
477.519	0.48
477.872	0.47
478.224	0.46
478.577	0.46
478.93	0.44
479.283	0.44
479.636	0.43
479.989	0.43
480.341	0.43
480.694	0.42
481.047	0.42
481.399	0.41
481.752	0.4
482.104	0.4
482.457	0.39
482.809	0.38
483.162	0.38
483.514	0.36
483.866	0.37
484.219	0.36
484.571	0.36
484.923	0.35
485.275	0.34
485.627	0.34
485.979	0.34
486.331	0.34
486.683	0.33
487.035	0.32
487.387	0.31
487.739	0.31
488.091	0.31
488.443	0.31
488.794	0.3
489.146	0.3
489.498	0.29
489.849	0.29
490.201	0.29
490.552	0.28
490.904	0.28
491.255	0.28
491.607	0.28
491.958	0.27
492.309	0.27
492.661	0.27
493.012	0.26
493.363	0.27
493.714	0.26
494.065	0.25
494.416	0.26
494.767	0.25
495.118	0.25
495.469	0.24
495.82	0.24
496.171	0.24
496.522	0.24
496.872	0.24
497.223	0.24
497.574	0.23
497.924	0.23
498.275	0.22
498.626	0.23
498.976	0.23
499.327	0.23
499.677	0.22
500.027	0.22
500.378	0.22
500.728	0.22
501.078	0.21
501.428	0.22
501.779	0.21
502.129	0.22
502.479	0.22
502.829	0.21
503.179	0.21
503.529	0.21
503.879	0.21
504.229	0.21
504.578	0.21
504.928	0.21
505.278	0.22
505.628	0.2
505.977	0.21
506.327	0.2
506.676	0.2
507.026	0.2
507.375	0.2
507.725	0.19
508.074	0.19
508.424	0.19
508.773	0.19
509.122	0.19
509.471	0.2
509.82	0.19
510.17	0.19
510.519	0.19
510.868	0.19
511.217	0.19
511.566	0.2
511.915	0.19
512.263	0.18
512.612	0.18
512.961	0.19
513.31	0.19
513.659	0.19
514.007	0.18
514.356	0.19
514.704	0.18
515.053	0.19
515.401	0.18
515.75	0.19
516.098	0.18
516.447	0.19
516.795	0.19
517.143	0.19
517.491	0.18
517.839	0.18
518.188	0.19
518.536	0.18
518.884	0.18
519.232	0.18
519.58	0.19
519.928	0.18
520.275	0.18
520.623	0.18
520.971	0.18
521.319	0.18
521.666	0.19
522.014	0.19
522.362	0.18
522.709	0.19
523.057	0.18
523.404	0.17
523.752	0.18
524.099	0.18
524.446	0.18
524.794	0.18
525.141	0.17
525.488	0.18
525.835	0.18
526.182	0.18
526.529	0.17
526.876	0.18
527.223	0.18
527.57	0.17
527.917	0.17
528.264	0.18
528.611	0.18
528.958	0.18
529.304	0.18
529.651	0.18
529.998	0.17
530.344	0.17
530.691	0.17
531.037	0.18
531.384	0.17
531.73	0.17
532.076	0.17
532.423	0.16
532.769	0.16
533.115	0.17
533.461	0.18
533.807	0.17
534.154	0.16
534.5	0.17
534.846	0.17
535.192	0.17
535.537	0.17
535.883	0.17
536.229	0.17
536.575	0.17
536.921	0.17
537.266	0.17
537.612	0.17
537.957	0.17
538.303	0.16
538.649	0.17
538.994	0.16
539.339	0.17
539.685	0.17
540.03	0.17
540.375	0.17
540.721	0.16
541.066	0.16
541.411	0.16
541.756	0.17
542.101	0.16
542.446	0.16
542.791	0.16
543.136	0.17
543.481	0.17
543.825	0.17
544.17	0.17
544.515	0.17
544.86	0.17
545.204	0.17
545.549	0.17
545.893	0.16
546.238	0.17
546.582	0.17
546.927	0.17
547.271	0.17
547.615	0.17
547.96	0.17
548.304	0.17
548.648	0.16
548.992	0.17
549.336	0.17
549.68	0.16
550.024	0.17
550.368	0.17
550.712	0.16
551.056	0.16
551.4	0.17
551.743	0.17
552.087	0.16
552.431	0.17
552.774	0.17
553.118	0.17
553.462	0.17
553.805	0.16
554.148	0.16
554.492	0.16
554.835	0.17
555.178	0.17
555.522	0.17
555.865	0.17
556.208	0.16
556.551	0.16
556.894	0.17
557.237	0.17
557.58	0.16
557.923	0.16
558.266	0.16
558.609	0.16
558.952	0.16
559.294	0.16
559.637	0.16
559.98	0.17
560.322	0.17
560.665	0.16
561.007	0.16
561.35	0.16
561.692	0.16
562.034	0.16
562.377	0.16
562.719	0.16
563.061	0.16
563.403	0.16
563.745	0.16
564.088	0.17
564.43	0.16
564.772	0.16
565.113	0.16
565.455	0.17
565.797	0.16
566.139	0.15
566.481	0.16
566.822	0.16
567.164	0.16
567.506	0.16
567.847	0.16
568.189	0.17
568.53	0.16
568.872	0.16
569.213	0.16
569.554	0.16
569.895	0.16
570.237	0.16
570.578	0.15
570.919	0.15
571.26	0.15
571.601	0.16
571.942	0.15
572.283	0.16
572.624	0.15
572.965	0.15
573.306	0.16
573.646	0.15
573.987	0.15
574.328	0.15
574.668	0.15
575.009	0.15
575.349	0.16
575.69	0.16
576.03	0.15
576.37	0.15
576.711	0.15
577.051	0.15
577.391	0.15
577.731	0.15
578.072	0.15
578.412	0.15
578.752	0.15
579.092	0.14
579.431	0.14
579.771	0.14
580.111	0.15
580.451	0.15
580.791	0.14
581.13	0.14
581.47	0.16
581.81	0.15
582.149	0.15
582.489	0.14
582.828	0.14
583.167	0.14
583.507	0.14
583.846	0.14
584.185	0.15
584.525	0.15
584.864	0.15
585.203	0.15
585.542	0.15
585.881	0.15
586.22	0.15
586.559	0.15
586.898	0.15
587.236	0.15
587.575	0.15
587.914	0.15
588.252	0.15
588.591	0.15
588.93	0.15
589.268	0.15
589.607	0.15
589.945	0.15
590.283	0.15
590.622	0.16
590.96	0.16
591.298	0.16
591.636	0.15
591.974	0.16
592.313	0.16
592.651	0.17
592.989	0.17
593.326	0.16
593.664	0.16
594.002	0.16
594.34	0.15
594.678	0.15
595.015	0.15
595.353	0.16
595.691	0.16
596.028	0.16
596.366	0.16
596.703	0.16
597.04	0.16
597.378	0.16
597.715	0.17
598.052	0.17
598.389	0.16
598.726	0.16
599.064	0.17
599.401	0.17
599.738	0.16
600.074	0.16
600.411	0.16
600.748	0.16
601.085	0.16
601.422	0.16
601.758	0.16
602.095	0.16
602.432	0.16
602.768	0.16
603.105	0.16
603.441	0.16
603.777	0.17
604.114	0.17
604.45	0.17
604.786	0.17
605.122	0.16
605.459	0.16
605.795	0.17
606.131	0.17
606.467	0.16
606.803	0.17
607.139	0.17
607.474	0.17
607.81	0.17
608.146	0.17
608.482	0.17
608.817	0.16
609.153	0.16
609.488	0.15
609.824	0.17
610.159	0.17
610.495	0.16
610.83	0.17
611.165	0.17
611.5	0.17
611.836	0.17
612.171	0.17
612.506	0.17
612.841	0.17
613.176	0.17
613.511	0.17
613.845	0.16
614.18	0.17
614.515	0.17
614.85	0.16
615.184	0.17
615.519	0.17
615.854	0.17
616.188	0.16
616.523	0.16
616.857	0.16
617.191	0.16
617.526	0.16
617.86	0.16
618.194	0.16
618.528	0.16
618.862	0.17
619.196	0.16
619.53	0.16
619.864	0.17
620.198	0.17
620.532	0.17
620.866	0.17
621.2	0.16
621.533	0.16
621.867	0.17
622.201	0.17
622.534	0.18
622.868	0.17
623.201	0.17
623.534	0.17
623.868	0.16
624.201	0.16
624.534	0.17
624.868	0.17
625.201	0.17
625.534	0.16
625.867	0.17
626.2	0.17
626.533	0.16
626.865	0.17
627.198	0.16
627.531	0.17
627.864	0.16
628.196	0.17
628.529	0.16
628.862	0.16
629.194	0.16
629.527	0.16
629.859	0.16
630.191	0.16
630.524	0.16
630.856	0.15
631.188	0.16
631.52	0.16
631.852	0.16
632.184	0.16
632.516	0.16
632.848	0.17
633.18	0.16
633.512	0.16
633.844	0.16
634.175	0.16
634.507	0.16
634.839	0.16
635.17	0.16
635.502	0.16
635.833	0.16
636.165	0.16
636.496	0.16
636.827	0.16
637.159	0.15
637.49	0.15
637.821	0.16
638.152	0.15
638.483	0.16
638.814	0.15
639.145	0.15
639.476	0.15
639.807	0.15
640.137	0.15
640.468	0.15
640.799	0.15
641.129	0.15
641.46	0.15
641.791	0.15
642.121	0.15
642.451	0.15
642.782	0.15
643.112	0.16
643.442	0.15
643.773	0.15
644.103	0.15
644.433	0.15
644.763	0.14
645.093	0.15
645.423	0.15
645.753	0.15
646.082	0.15
646.412	0.15
646.742	0.15
647.072	0.15
647.401	0.15
647.731	0.15
648.06	0.15
648.39	0.14
648.719	0.14
649.048	0.15
649.378	0.15
649.707	0.15
650.036	0.14
650.365	0.15
650.694	0.14
651.023	0.15
651.352	0.15
651.681	0.14
652.01	0.15
652.339	0.15
652.668	0.15
652.996	0.15
653.325	0.15
653.654	0.15
653.982	0.15
654.311	0.14
654.639	0.15
654.967	0.14
655.296	0.15
655.624	0.14
655.952	0.14
656.28	0.09
656.609	0.04
656.937	0.06
657.265	0.09
657.593	0.09
657.92	0.1
658.248	0.12
658.576	0.14
658.904	0.15
659.231	0.15
659.559	0.14
659.887	0.15
660.214	0.15
660.542	0.15
660.869	0.15
661.196	0.15
661.524	0.15
661.851	0.15
662.178	0.15
662.505	0.16
662.832	0.15
663.159	0.16
663.486	0.15
663.813	0.15
664.14	0.15
664.467	0.15
664.794	0.14
665.12	0.15
665.447	0.15
665.774	0.15
666.1	0.15
666.427	0.15
666.753	0.15
667.079	0.15
667.406	0.15
667.732	0.15
668.058	0.15
668.384	0.15
668.71	0.16
669.036	0.14
669.362	0.15
669.688	0.15
670.014	0.15
670.34	0.15
670.666	0.15
670.991	0.14
671.317	0.15
671.643	0.15
671.968	0.15
672.294	0.15
672.619	0.14
672.945	0.14
673.27	0.14
673.595	0.15
673.92	0.14
674.246	0.14
674.571	0.15
674.896	0.15
675.221	0.15
675.546	0.15
675.87	0.15
676.195	0.14
676.52	0.15
676.845	0.15
677.169	0.15
677.494	0.15
677.819	0.15
678.143	0.15
678.468	0.15
678.792	0.16
679.116	0.15
679.44	0.15
679.765	0.15
680.089	0.15
680.413	0.14
680.737	0.14
681.061	0.14
681.385	0.15
681.709	0.14
682.033	0.15
682.356	0.14
682.68	0.14
683.004	0.14
683.327	0.14
683.651	0.14
683.974	0.14
684.298	0.15
684.621	0.14
684.944	0.14
685.268	0.15
685.591	0.14
685.914	0.14
686.237	0.14
686.56	0.14
686.883	0.14
687.206	0.14
687.529	0.14
687.852	0.14
688.175	0.14
688.497	0.14
688.82	0.14
689.142	0.14
689.465	0.14
689.787	0.14
690.11	0.14
690.432	0.14
690.755	0.14
691.077	0.14
691.399	0.14
691.721	0.14
692.043	0.14
692.365	0.14
692.687	0.13
693.009	0.14
693.331	0.14
693.653	0.14
693.974	0.14
694.296	0.14
694.618	0.13
694.939	0.13
695.261	0.14
695.582	0.14
695.904	0.14
696.225	0.13
696.546	0.14
696.868	0.14
697.189	0.13
697.51	0.14
697.831	0.14
698.152	0.14
698.473	0.13
698.794	0.14
699.114	0.14
699.435	0.14
699.756	0.14
700.077	0.15
700.397	0.15
700.718	0.15
701.038	0.15
701.359	0.15
701.679	0.14
701.999	0.15
702.32	0.14
702.64	0.15
702.96	0.15
703.28	0.15
703.6	0.14
703.92	0.14
704.24	0.14
704.56	0.14
704.879	0.14
705.199	0.14
705.519	0.14
705.838	0.15
706.158	0.14
706.478	0.15
706.797	0.15
707.116	0.14
707.436	0.14
707.755	0.15
708.074	0.14
708.393	0.14
708.712	0.14
709.031	0.14
709.35	0.14
709.669	0.13
709.988	0.14
710.307	0.14
710.626	0.15
710.944	0.14
711.263	0.15
711.582	0.14
711.9	0.15
712.219	0.15
712.537	0.15
712.855	0.15
713.174	0.15
713.492	0.14
713.81	0.14
714.128	0.15
714.446	0.15
714.764	0.15
715.082	0.14
715.4	0.14
715.718	0.14
716.035	0.14
716.353	0.14
716.671	0.14
716.988	0.15
717.306	0.14
717.623	0.15
717.941	0.14
718.258	0.15
718.575	0.15
718.893	0.15
719.21	0.16
719.527	0.16
719.844	0.15
720.161	0.15
720.478	0.15
720.795	0.15
721.112	0.15
721.428	0.15
721.745	0.15
722.062	0.15
722.378	0.15
722.695	0.15
723.011	0.15
723.328	0.15
723.644	0.15
723.96	0.15
724.276	0.15
724.593	0.15
724.909	0.15
725.225	0.15
725.541	0.15
725.857	0.15
726.173	0.16
726.488	0.16
726.804	0.15
727.12	0.16
727.435	0.16
727.751	0.16
728.067	0.16
728.382	0.15
728.697	0.16
729.013	0.15
729.328	0.15
729.643	0.15
729.958	0.15
730.273	0.15
730.588	0.16
730.903	0.16
731.218	0.15
731.533	0.15
731.848	0.15
732.163	0.15
732.477	0.15
732.792	0.15
733.107	0.15
733.421	0.15
733.736	0.15
734.05	0.15
734.364	0.15
734.678	0.15
734.993	0.15
735.307	0.15
735.621	0.16
735.935	0.15
736.249	0.16
736.563	0.15
736.877	0.15
737.19	0.16
737.504	0.15
737.818	0.15
738.131	0.15
738.445	0.15
738.758	0.15
739.072	0.16
739.385	0.15
739.698	0.15
740.012	0.15
740.325	0.16
740.638	0.16
740.951	0.15
741.264	0.16
741.577	0.16
741.89	0.16
742.203	0.16
742.515	0.16
742.828	0.16
743.141	0.16
743.453	0.15
743.766	0.16
744.078	0.16
744.391	0.16
744.703	0.15
745.015	0.15
745.327	0.16
745.639	0.15
745.952	0.15
746.264	0.15
746.575	0.15
746.887	0.16
747.199	0.15
747.511	0.16
747.823	0.15
748.134	0.16
748.446	0.15
748.757	0.16
749.069	0.15
749.38	0.15
749.692	0.15
750.003	0.15
750.314	0.15
750.625	0.15
750.936	0.16
751.248	0.15
751.559	0.14
751.869	0.15
752.18	0.14
752.491	0.14
752.802	0.15
753.112	0.14
753.423	0.15
753.734	0.15
754.044	0.15
754.355	0.14
754.665	0.15
754.975	0.15
755.285	0.15
755.596	0.15
755.906	0.15
756.216	0.15
756.526	0.15
756.836	0.15
757.146	0.15
757.455	0.14
757.765	0.14
758.075	0.14
758.385	0.14
758.694	0.14
759.004	0.14
759.313	0.14
759.622	0.15
759.932	0.14
760.241	0.14
760.55	0.14
760.859	0.14
761.168	0.15
761.477	0.15
761.786	0.14
762.095	0.14
762.404	0.14
762.713	0.15
763.021	0.14
763.33	0.14
763.639	0.14
763.947	0.14
764.256	0.14
764.564	0.14
764.872	0.14
765.181	0.13
765.489	0.14
765.797	0.14
766.105	0.13
766.413	0.14
766.721	0.13
767.029	0.14
767.337	0.14
767.644	0.14
767.952	0.13
768.26	0.13
768.567	0.14
768.875	0.14
769.182	0.14
769.49	0.13
769.797	0.13
770.104	0.13
770.411	0.14
770.718	0.14
771.026	0.13
771.333	0.14
771.639	0.13
771.946	0.13
772.253	0.13
772.56	0.13
772.867	0.13
773.173	0.12
773.48	0.13
773.786	0.12
774.093	0.13
774.399	0.14
774.705	0.13
775.012	0.13
775.318	0.14
775.624	0.13
775.93	0.13
776.236	0.13
776.542	0.14
776.848	0.14
777.154	0.13
777.459	0.14
777.765	0.14
778.071	0.13
778.376	0.13
778.682	0.14
778.987	0.14
779.292	0.13
779.598	0.14
779.903	0.13
780.208	0.13
780.513	0.13
780.818	0.13
781.123	0.13
781.428	0.13
781.733	0.13
782.038	0.13
782.343	0.13
782.647	0.13
782.952	0.13
783.256	0.13
783.561	0.13
783.865	0.13
784.17	0.13
784.474	0.13
784.778	0.13
785.082	0.13
785.386	0.12
785.69	0.13
785.994	0.13
786.298	0.13
786.602	0.14
786.906	0.14
787.209	0.14
787.513	0.13
787.817	0.13
788.12	0.13
788.424	0.13
788.727	0.14
789.03	0.13
789.333	0.12
789.637	0.13
789.94	0.13
790.243	0.12
790.546	0.11
790.849	0.11
791.152	0.11
791.454	0.12
791.757	0.11
792.06	0.11
792.362	0.1
792.665	0.11
792.967	0.11
793.27	0.11
793.572	0.12
793.874	0.12
794.177	0.11
794.479	0.11
794.781	0.11
795.083	0.11
795.385	0.1
795.687	0.11
795.989	0.11
796.29	0.11
796.592	0.11
796.894	0.11
797.195	0.12
797.497	0.12
797.798	0.12
798.1	0.12
798.401	0.11
798.702	0.11
799.003	0.12
799.304	0.11
799.605	0.11
799.906	0.11
800.207	0.12
800.508	0.11
800.809	0.11
801.11	0.12
801.41	0.11
801.711	0.11
802.011	0.11
802.312	0.1
802.612	0.11
802.913	0.1
803.213	0.11
803.513	0.1
803.813	0.11
804.113	0.1
804.413	0.1
804.713	0.09
805.013	0.1
805.313	0.1
805.613	0.1
805.912	0.11
806.212	0.1
806.511	0.11
806.811	0.11
807.11	0.09
807.41	0.09
807.709	0.1
808.008	0.11
808.307	0.09
808.606	0.11
808.905	0.1
809.204	0.09
809.503	0.09
809.802	0.09
810.101	0.1
810.399	0.09
810.698	0.09
810.997	0.11
811.295	0.1
811.593	0.1
811.892	0.1
812.19	0.09
812.488	0.09
812.786	0.09
813.084	0.08
813.383	0.09
813.68	0.09
813.978	0.08
814.276	0.08
814.574	0.07
814.872	0.08
815.169	0.08
815.467	0.07
815.764	0.08
816.062	0.07
816.359	0.07
816.656	0.07
816.954	0.07
817.251	0.07
817.548	0.07
817.845	0.07
818.142	0.07
818.439	0.07
818.735	0.08
819.032	0.08
819.329	0.07
819.626	0.07
819.922	0.07
820.219	0.09
820.515	0.08
820.811	0.07
821.108	0.07
821.404	0.07
821.7	0.07
821.996	0.06
822.292	0.05
822.588	0.06
822.884	0.08
823.18	0.05
823.475	0.06
823.771	0.05
824.067	0.06
824.362	0.07
824.658	0.07
824.953	0.06
825.249	0.06
825.544	0.08
825.839	0.07
826.134	0.06
826.429	0.06
826.724	0.06
827.019	0.05
827.314	0.05
827.609	0.05
827.904	0.04
828.198	0.04
828.493	0.03
828.787	0.06
829.082	0.05
829.376	0.04
829.671	0.04
829.965	0.05
830.259	0.04
830.553	0.06
830.847	0.06
831.141	0.05
831.435	0.04
831.729	0.05
832.023	0.05
832.317	0.04
832.61	0.03
832.904	0.05
833.197	0.05
833.491	0.04
833.784	0.04
834.077	0.04
834.371	0.04
834.664	0.03
834.957	0.04
835.25	0.04
835.543	0.04
835.836	0.04
836.129	0.02
836.421	0.05
836.714	0.04
837.007	0.03
837.299	0.05
837.592	0.02
837.884	0.04
838.177	0.05
838.469	0.03
838.761	0.02
839.053	0.03
839.345	0.01
839.637	0.02
839.929	0.01
840.221	0
840.513	0
840.805	0.01
841.096	0.03
841.388	0.02
841.68	0.03
841.971	0
842.262	0.01
842.554	0.02
842.845	0.01
843.136	0.02
843.427	0.01
843.718	0.03
844.009	0.03
844.3	0
844.591	0.03
844.882	0.02
845.173	0.01
845.463	-0
845.754	0.01
846.044	0.01
846.335	0
846.625	0.02
846.915	-0.03
847.206	-0.01
847.496	-0.02
847.786	-0.03
848.076	-0.02
848.366	-0.01
848.656	-0.02
848.945	-0.01
849.235	-0.01
849.525	-0
849.814	-0.01
850.104	-0.01
850.393	-0.01
850.683	-0.03
850.972	-0.02
851.261	-0.04
851.551	-0.03
851.84	-0.01
852.129	-0.01
852.418	-0.02
852.707	0.01
852.995	-0.03
853.284	-0.03
853.573	0
853.862	0.01
854.15	-0.01
854.439	-0.01
854.727	-0.02
855.015	-0.03
855.304	-0.02
855.592	-0.05
855.88	-0.05
856.168	-0.03
856.456	-0
856.744	-0.02
857.032	-0.01
857.32	-0.02
857.607	-0.03
857.895	-0.02
858.183	-0.04
858.47	-0.05
858.757	-0.06
859.045	-0.01
859.332	-0.07
859.619	-0.09
859.907	-0.04
860.194	-0.07
860.481	-0.04
860.768	-0.06
861.054	-0.07
861.341	-0.07
861.628	-0.05
861.915	-0.06
862.201	-0.03
862.488	-0.12
862.774	-0.07
863.061	0.02
863.347	-0.03
863.633	-0.07
863.919	-0.03
864.205	-0.04
864.491	-0.04
864.777	-0.07
865.063	-0.06
865.349	-0.05
865.635	-0.11
865.92	-0.07
866.206	-0.05
866.492	-0.08
866.777	-0.06
867.062	-0.13
867.348	-0.1
867.633	-0.11
867.918	-0.11
868.203	-0.06
868.488	-0.06
868.773	-0.08
869.058	-0.12
869.343	-0.09
869.628	-0.16
869.912	-0.14
870.197	-0.15
870.482	-0.09
870.766	-0.1
871.05	-0.08
871.335	-0.17
871.619	-0.07
871.903	-0.08
872.187	-0.07
872.471	-0.01
872.755	-0.02
873.039	-0
873.323	-0.03
873.607	-0.12
873.89	-0.29
874.174	-0.15
874.458	-0.07
874.741	-0.03
875.024	-0.18
875.308	-0.14
875.591	-0.08
875.874	-0.12
876.157	-0.12
876.44	-0.07
876.723	-0.03
877.006	-0.13
877.289	-0.11
877.572	0
877.854	-0.38
878.137	-0.04
878.42	-0.27
878.702	-0.02
878.984	-0.18
879.267	-0.19
879.549	-0.34
879.831	-0.33
880.113	-0.21
880.395	-0.17
880.677	0.09
880.959	-0.46
