Data from Rubpy_UV_Absorbance__1479__12-07-39-001.txt Node

Date: Wed Jul 22 12:07:39 BST 2026
User: fpm-admin
Spectrometer: SR600986
Trigger mode: 0
Integration Time (sec): 8.000000E-2
Scans to average: 1
Nonlinearity correction enabled: true
Boxcar width: 0
Storing dark spectrum: false
XAxis mode: Wavelengths
Number of Pixels in Spectrum: 2048
>>>>>Begin Spectral Data<<<<<
188.613	0.14
189.078	0.16
189.542	0.11
190.007	0.11
190.472	0.06
190.936	0.12
191.401	0.17
191.865	0.17
192.33	0.09
192.794	0.06
193.258	0.15
193.723	0.2
194.187	0.16
194.651	0.16
195.115	0.09
195.579	0.16
196.043	0.11
196.507	0.17
196.971	0.15
197.435	0.16
197.899	0.17
198.363	0.17
198.827	0.15
199.29	0.16
199.754	0.09
200.218	0.09
200.681	0.2
201.145	0.13
201.608	0.15
202.072	0.16
202.535	0.12
202.998	0.18
203.462	0.14
203.925	0.21
204.388	0.18
204.851	0.24
205.314	0.07
205.777	0.13
206.24	0.17
206.703	0.14
207.166	0.12
207.629	0.2
208.092	0.14
208.555	0.09
209.018	0.25
209.48	0.18
209.943	0.22
210.406	0.14
210.868	0.22
211.331	0.16
211.793	0.16
212.256	0.16
212.718	0.22
213.18	0.23
213.643	0.17
214.105	0.22
214.567	0.09
215.029	0.22
215.491	0.21
215.953	0.24
216.415	0.14
216.877	0.13
217.339	0.19
217.801	0.19
218.263	0.17
218.725	0.24
219.186	0.14
219.648	0.14
220.11	0.23
220.571	0.22
221.033	0.14
221.494	0.26
221.956	0.14
222.417	0.13
222.878	0.25
223.34	0.22
223.801	0.2
224.262	0.24
224.723	0.14
225.185	0.2
225.646	0.17
226.107	0.21
226.568	0.23
227.029	0.13
227.489	0.28
227.95	0.16
228.411	0.21
228.872	0.21
229.332	0.29
229.793	0.3
230.254	0.24
230.714	0.22
231.175	0.21
231.635	0.24
232.096	0.22
232.556	0.26
233.016	0.21
233.477	0.28
233.937	0.31
234.397	0.27
234.857	0.37
235.317	0.31
235.777	0.3
236.237	0.37
236.697	0.35
237.157	0.27
237.617	0.33
238.077	0.39
238.537	0.39
238.996	0.38
239.456	0.44
239.916	0.41
240.375	0.44
240.835	0.41
241.294	0.44
241.754	0.42
242.213	0.43
242.672	0.46
243.132	0.42
243.591	0.52
244.05	0.54
244.509	0.53
244.968	0.48
245.427	0.51
245.886	0.54
246.345	0.54
246.804	0.56
247.263	0.57
247.722	0.65
248.181	0.63
248.639	0.74
249.098	0.65
249.557	0.69
250.015	0.71
250.474	0.72
250.932	0.81
251.391	0.85
251.849	0.9
252.308	0.99
252.766	0.99
253.224	1.08
253.682	1.13
254.14	1.17
254.599	1.18
255.057	1.26
255.515	1.28
255.973	1.25
256.431	1.22
256.888	1.21
257.346	1.2
257.804	1.21
258.262	1.15
258.719	1.13
259.177	1.11
259.635	1.08
260.092	1.07
260.55	1.05
261.007	1.04
261.465	1.06
261.922	1.06
262.379	1.05
262.836	1.05
263.294	1.1
263.751	1.11
264.208	1.13
264.665	1.19
265.122	1.22
265.579	1.27
266.036	1.27
266.493	1.36
266.95	1.41
267.406	1.45
267.863	1.49
268.32	1.57
268.777	1.6
269.233	1.68
269.69	1.74
270.146	1.8
270.603	1.8
271.059	1.94
271.515	1.97
271.972	2.04
272.428	2.08
272.884	2.21
273.34	2.14
273.796	2.17
274.253	2.25
274.709	2.22
275.165	2.27
275.62	2.25
276.076	2.3
276.532	2.22
276.988	2.33
277.444	2.35
277.899	2.36
278.355	2.3
278.811	2.34
279.266	2.35
279.722	2.31
280.177	2.35
280.633	2.42
281.088	2.38
281.543	2.34
281.998	2.3
282.454	2.37
282.909	2.42
283.364	2.43
283.819	2.38
284.274	2.44
284.729	2.43
285.184	2.4
285.639	2.43
286.094	2.43
286.548	2.41
287.003	2.36
287.458	2.42
287.913	2.37
288.367	2.42
288.822	2.34
289.276	2.38
289.731	2.39
290.185	2.42
290.639	2.38
291.094	2.31
291.548	2.37
292.002	2.36
292.456	2.35
292.91	2.37
293.365	2.29
293.819	2.29
294.273	2.3
294.726	2.24
295.18	2.24
295.634	2.23
296.088	2.15
296.542	2.12
296.995	2.09
297.449	2.03
297.903	1.95
298.356	1.91
298.81	1.84
299.263	1.78
299.716	1.72
300.17	1.68
300.623	1.61
301.076	1.58
301.53	1.52
301.983	1.47
302.436	1.42
302.889	1.38
303.342	1.33
303.795	1.31
304.248	1.27
304.701	1.23
305.153	1.2
305.606	1.17
306.059	1.14
306.512	1.11
306.964	1.09
307.417	1.07
307.869	1.04
308.322	1.03
308.774	1
309.227	0.99
309.679	0.97
310.131	0.95
310.584	0.95
311.036	0.93
311.488	0.92
311.94	0.91
312.392	0.89
312.844	0.88
313.296	0.88
313.748	0.86
314.2	0.86
314.652	0.85
315.103	0.84
315.555	0.84
316.007	0.83
316.458	0.82
316.91	0.82
317.361	0.82
317.813	0.81
318.264	0.81
318.716	0.8
319.167	0.8
319.618	0.79
320.07	0.79
320.521	0.78
320.972	0.78
321.423	0.77
321.874	0.77
322.325	0.77
322.776	0.76
323.227	0.75
323.678	0.75
324.128	0.74
324.579	0.74
325.03	0.73
325.48	0.72
325.931	0.72
326.382	0.7
326.832	0.7
327.283	0.69
327.733	0.68
328.183	0.67
328.634	0.67
329.084	0.66
329.534	0.65
329.984	0.65
330.434	0.64
330.884	0.63
331.334	0.63
331.784	0.62
332.234	0.61
332.684	0.6
333.134	0.6
333.584	0.59
334.034	0.59
334.483	0.58
334.933	0.58
335.382	0.57
335.832	0.57
336.281	0.56
336.731	0.55
337.18	0.55
337.63	0.55
338.079	0.55
338.528	0.54
338.977	0.54
339.426	0.53
339.876	0.52
340.325	0.52
340.774	0.52
341.223	0.52
341.671	0.51
342.12	0.51
342.569	0.51
343.018	0.5
343.467	0.5
343.915	0.5
344.364	0.5
344.812	0.49
345.261	0.49
345.709	0.49
346.158	0.49
346.606	0.49
347.054	0.49
347.503	0.48
347.951	0.48
348.399	0.48
348.847	0.48
349.295	0.48
349.743	0.48
350.191	0.48
350.639	0.48
351.087	0.48
351.535	0.47
351.983	0.47
352.43	0.47
352.878	0.47
353.326	0.46
353.773	0.47
354.221	0.46
354.668	0.46
355.116	0.46
355.563	0.45
356.01	0.44
356.458	0.44
356.905	0.43
357.352	0.43
357.799	0.42
358.246	0.42
358.693	0.41
359.14	0.4
359.587	0.39
360.034	0.39
360.481	0.38
360.928	0.38
361.375	0.37
361.821	0.36
362.268	0.36
362.714	0.35
363.161	0.33
363.608	0.33
364.054	0.32
364.5	0.32
364.947	0.3
365.393	0.3
365.839	0.29
366.285	0.29
366.732	0.28
367.178	0.27
367.624	0.27
368.07	0.26
368.516	0.26
368.962	0.26
369.408	0.26
369.853	0.26
370.299	0.26
370.745	0.26
371.19	0.25
371.636	0.25
372.082	0.26
372.527	0.26
372.973	0.26
373.418	0.26
373.863	0.26
374.309	0.26
374.754	0.27
375.199	0.28
375.644	0.28
376.09	0.28
376.535	0.28
376.98	0.28
377.425	0.29
377.87	0.29
378.314	0.3
378.759	0.3
379.204	0.3
379.649	0.31
380.093	0.31
380.538	0.32
380.983	0.32
381.427	0.32
381.872	0.33
382.316	0.33
382.76	0.33
383.205	0.34
383.649	0.34
384.093	0.35
384.537	0.35
384.982	0.36
385.426	0.36
385.87	0.36
386.314	0.37
386.758	0.37
387.201	0.38
387.645	0.38
388.089	0.39
388.533	0.39
388.976	0.39
389.42	0.4
389.864	0.41
390.307	0.4
390.751	0.41
391.194	0.41
391.638	0.42
392.081	0.42
392.524	0.42
392.967	0.43
393.411	0.43
393.854	0.43
394.297	0.43
394.74	0.44
395.183	0.44
395.626	0.44
396.069	0.44
396.512	0.45
396.954	0.45
397.397	0.46
397.84	0.46
398.282	0.46
398.725	0.47
399.168	0.47
399.61	0.48
400.052	0.47
400.495	0.48
400.937	0.49
401.38	0.49
401.822	0.49
402.264	0.5
402.706	0.51
403.148	0.51
403.59	0.52
404.032	0.52
404.474	0.53
404.916	0.54
405.358	0.54
405.8	0.55
406.241	0.55
406.683	0.57
407.125	0.57
407.566	0.57
408.008	0.59
408.449	0.59
408.891	0.6
409.332	0.61
409.774	0.62
410.215	0.64
410.656	0.65
411.097	0.65
411.539	0.66
411.98	0.67
412.421	0.68
412.862	0.68
413.303	0.69
413.744	0.7
414.184	0.71
414.625	0.72
415.066	0.72
415.507	0.73
415.947	0.74
416.388	0.76
416.828	0.76
417.269	0.76
417.709	0.78
418.15	0.78
418.59	0.79
419.03	0.79
419.471	0.8
419.911	0.81
420.351	0.82
420.791	0.82
421.231	0.82
421.671	0.82
422.111	0.84
422.551	0.84
422.991	0.85
423.431	0.84
423.87	0.85
424.31	0.85
424.75	0.85
425.189	0.86
425.629	0.86
426.068	0.87
426.508	0.87
426.947	0.87
427.386	0.87
427.826	0.88
428.265	0.87
428.704	0.88
429.143	0.88
429.582	0.88
430.021	0.88
430.46	0.89
430.899	0.89
431.338	0.9
431.777	0.89
432.216	0.9
432.655	0.9
433.093	0.9
433.532	0.9
433.971	0.91
434.409	0.91
434.848	0.92
435.286	0.92
435.724	0.91
436.163	0.92
436.601	0.91
437.039	0.92
437.477	0.92
437.916	0.92
438.354	0.92
438.792	0.93
439.23	0.92
439.668	0.93
440.105	0.94
440.543	0.95
440.981	0.95
441.419	0.95
441.856	0.95
442.294	0.96
442.732	0.96
443.169	0.97
443.607	0.97
444.044	0.97
444.481	0.98
444.919	0.98
445.356	0.98
445.793	1
446.23	0.99
446.668	1
447.105	1
447.542	1
447.979	1.01
448.416	1.01
448.852	1.02
449.289	1.02
449.726	1.02
450.163	1.02
450.599	1.03
451.036	1.02
451.473	1.03
451.909	1.02
452.346	1.02
452.782	1.02
453.218	1.02
453.655	1.02
454.091	1.02
454.527	1.01
454.963	1.03
455.399	1.01
455.835	1.02
456.271	1.01
456.707	1.01
457.143	1.01
457.579	1
458.015	0.99
458.451	1
458.886	0.98
459.322	0.99
459.758	0.98
460.193	0.97
460.629	0.96
461.064	0.95
461.5	0.94
461.935	0.94
462.37	0.92
462.805	0.92
463.241	0.91
463.676	0.9
464.111	0.89
464.546	0.88
464.981	0.87
465.416	0.85
465.851	0.84
466.286	0.83
466.72	0.82
467.155	0.81
467.59	0.79
468.024	0.79
468.459	0.77
468.893	0.76
469.328	0.75
469.762	0.74
470.197	0.72
470.631	0.71
471.065	0.7
471.5	0.68
471.934	0.66
472.368	0.67
472.802	0.65
473.236	0.63
473.67	0.62
474.104	0.61
474.538	0.59
474.972	0.58
475.405	0.57
475.839	0.56
476.273	0.55
476.706	0.53
477.14	0.52
477.573	0.51
478.007	0.51
478.44	0.49
478.874	0.48
479.307	0.47
479.74	0.46
480.173	0.44
480.606	0.44
481.04	0.43
481.473	0.42
481.906	0.41
482.339	0.4
482.771	0.39
483.204	0.39
483.637	0.37
484.07	0.37
484.502	0.36
484.935	0.35
485.368	0.35
485.8	0.34
486.233	0.33
486.665	0.32
487.098	0.32
487.53	0.32
487.962	0.3
488.394	0.3
488.827	0.3
489.259	0.29
489.691	0.29
490.123	0.28
490.555	0.28
490.987	0.27
491.418	0.27
491.85	0.27
492.282	0.26
492.714	0.25
493.145	0.24
493.577	0.24
494.009	0.24
494.44	0.24
494.872	0.24
495.303	0.23
495.734	0.23
496.166	0.22
496.597	0.22
497.028	0.22
497.459	0.21
497.89	0.21
498.321	0.21
498.752	0.21
499.183	0.2
499.614	0.2
500.045	0.2
500.476	0.2
500.906	0.2
501.337	0.2
501.768	0.19
502.198	0.18
502.629	0.19
503.059	0.18
503.49	0.18
503.92	0.18
504.35	0.18
504.781	0.17
505.211	0.17
505.641	0.17
506.071	0.17
506.501	0.17
506.931	0.16
507.361	0.16
507.791	0.16
508.221	0.16
508.651	0.16
509.081	0.16
509.51	0.16
509.94	0.16
510.37	0.15
510.799	0.16
511.229	0.16
511.658	0.16
512.087	0.15
512.517	0.15
512.946	0.15
513.375	0.14
513.804	0.14
514.234	0.14
514.663	0.14
515.092	0.14
515.521	0.15
515.95	0.14
516.378	0.14
516.807	0.14
517.236	0.14
517.665	0.13
518.093	0.14
518.522	0.14
518.951	0.13
519.379	0.13
519.807	0.13
520.236	0.13
520.664	0.13
521.093	0.13
521.521	0.13
521.949	0.13
522.377	0.13
522.805	0.13
523.233	0.12
523.661	0.12
524.089	0.13
524.517	0.12
524.945	0.12
525.373	0.12
525.8	0.12
526.228	0.11
526.656	0.12
527.083	0.12
527.511	0.12
527.938	0.12
528.366	0.12
528.793	0.11
529.22	0.11
529.648	0.11
530.075	0.12
530.502	0.11
530.929	0.11
531.356	0.1
531.783	0.11
532.21	0.1
532.637	0.11
533.064	0.11
533.49	0.1
533.917	0.11
534.344	0.1
534.771	0.1
535.197	0.1
535.624	0.1
536.05	0.1
536.477	0.1
536.903	0.09
537.329	0.1
537.755	0.09
538.182	0.1
538.608	0.09
539.034	0.1
539.46	0.09
539.886	0.09
540.312	0.09
540.738	0.09
541.164	0.09
541.589	0.1
542.015	0.09
542.441	0.09
542.867	0.09
543.292	0.08
543.718	0.08
544.143	0.08
544.569	0.08
544.994	0.08
545.419	0.07
545.845	0.08
546.27	0.08
546.695	0.08
547.12	0.08
547.545	0.08
547.97	0.07
548.395	0.08
548.82	0.07
549.245	0.07
549.67	0.07
550.094	0.07
550.519	0.08
550.944	0.07
551.368	0.07
551.793	0.07
552.217	0.07
552.642	0.07
553.066	0.07
553.49	0.07
553.915	0.06
554.339	0.07
554.763	0.06
555.187	0.07
555.611	0.06
556.035	0.06
556.459	0.06
556.883	0.06
557.307	0.06
557.731	0.06
558.154	0.06
558.578	0.06
559.002	0.05
559.425	0.05
559.849	0.05
560.272	0.05
560.696	0.05
561.119	0.05
561.543	0.05
561.966	0.05
562.389	0.05
562.812	0.05
563.235	0.04
563.658	0.05
564.081	0.04
564.504	0.05
564.927	0.04
565.35	0.04
565.773	0.04
566.196	0.04
566.618	0.04
567.041	0.04
567.463	0.03
567.886	0.04
568.309	0.04
568.731	0.04
569.153	0.04
569.576	0.03
569.998	0.03
570.42	0.04
570.842	0.04
571.264	0.03
571.686	0.03
572.108	0.03
572.53	0.04
572.952	0.03
573.374	0.03
573.796	0.03
574.218	0.03
574.639	0.03
575.061	0.03
575.483	0.03
575.904	0.03
576.326	0.03
576.747	0.03
577.168	0.03
577.59	0.03
578.011	0.02
578.432	0.02
578.853	0.02
579.274	0.02
579.695	0.02
580.116	0.02
580.537	0.03
580.958	0.02
581.379	0.03
581.8	0.02
582.221	0.02
582.641	0.02
583.062	0.02
583.482	0.02
583.903	0.02
584.323	0.02
584.744	0.02
585.164	0.02
585.584	0.01
586.005	0.01
586.425	0.02
586.845	0.02
587.265	0.01
587.685	0.01
588.105	0.01
588.525	0.01
588.945	0.01
589.365	0.01
589.785	0
590.204	0
590.624	-0
591.044	0
591.463	0.01
591.883	0
592.302	0.01
592.721	0.01
593.141	0
593.56	0.01
593.979	0.01
594.399	0.01
594.818	0
595.237	-0
595.656	0
596.075	-0
596.494	0
596.913	0
597.331	0
597.75	0
598.169	0
598.587	0.01
599.006	0
599.425	0.01
599.843	0
600.262	0
600.68	0
601.098	0
601.517	0
601.935	0
602.353	0
602.771	-0
603.189	-0
603.607	-0
604.025	-0
604.443	-0
604.861	0
605.279	-0
605.696	-0
606.114	-0
606.532	-0
606.949	-0
607.367	-0
607.784	-0
608.202	-0
608.619	-0.01
609.036	-0.01
609.454	-0.01
609.871	-0.01
610.288	-0
610.705	-0.01
611.122	-0.01
611.539	-0.01
611.956	-0.01
612.373	-0.01
612.79	-0.01
613.207	-0
613.623	-0.01
614.04	-0.01
614.457	-0.01
614.873	-0.01
615.29	-0.01
615.706	-0.01
616.122	-0.01
616.539	-0.01
616.955	-0.01
617.371	-0.02
617.788	-0.02
618.204	-0.02
618.62	-0.02
619.036	-0.02
619.452	-0.02
619.868	-0.02
620.284	-0.02
620.699	-0.02
621.115	-0.02
621.531	-0.02
621.946	-0.02
622.362	-0.01
622.778	-0.01
623.193	-0.01
623.608	-0.01
624.024	-0.01
624.439	-0.02
624.854	-0.02
625.27	-0.01
625.685	-0.02
626.1	-0.02
626.515	-0.02
626.93	-0.03
627.345	-0.02
627.76	-0.02
628.175	-0.02
628.589	-0.02
629.004	-0.02
629.419	-0.02
629.833	-0.02
630.248	-0.02
630.663	-0.02
631.077	-0.02
631.491	-0.02
631.906	-0.02
632.32	-0.02
632.734	-0.02
633.148	-0.02
633.563	-0.03
633.977	-0.03
634.391	-0.02
634.805	-0.02
635.219	-0.03
635.632	-0.02
636.046	-0.02
636.46	-0.02
636.874	-0.02
637.287	-0.02
637.701	-0.02
638.115	-0.02
638.528	-0.02
638.941	-0.02
639.355	-0.02
639.768	-0.02
640.181	-0.02
640.595	-0.02
641.008	-0.02
641.421	-0.02
641.834	-0.03
642.247	-0.02
642.66	-0.02
643.073	-0.02
643.486	-0.03
643.898	-0.02
644.311	-0.02
644.724	-0.02
645.136	-0.02
645.549	-0.02
645.961	-0.02
646.374	-0.01
646.786	-0.02
647.199	-0.01
647.611	-0.02
648.023	-0.01
648.435	-0.01
648.847	-0.01
649.26	-0.01
649.672	-0.02
650.084	-0.02
650.495	-0.02
650.907	-0.01
651.319	-0.01
651.731	-0.02
652.143	-0.01
652.554	-0.01
652.966	-0.01
653.377	-0
653.789	0.01
654.2	0.01
654.612	0.01
655.023	0.02
655.434	0.02
655.845	0.01
656.256	0.01
656.668	0.01
657.079	0
657.49	0
657.901	0
658.311	0
658.722	-0
659.133	-0.01
659.544	-0.01
659.954	-0.02
660.365	-0.01
660.775	-0.01
661.186	-0.01
661.596	-0.01
662.007	-0.01
662.417	-0.01
662.827	-0.01
663.238	-0.01
663.648	-0.01
664.058	-0
664.468	-0
664.878	-0
665.288	-0
665.698	-0
666.108	-0
666.517	-0
666.927	-0
667.337	-0
667.746	-0
668.156	-0
668.565	-0
668.975	-0
669.384	0
669.794	0
670.203	0
670.612	0.01
671.021	0.01
671.43	0.01
671.84	0
672.249	0.01
672.658	0
673.066	0
673.475	0.01
673.884	0.01
674.293	0.01
674.702	0
675.11	0.01
675.519	0.01
675.927	0
676.336	0.01
676.744	0
677.152	0
677.561	0
677.969	0.01
678.377	0.01
678.785	0.01
679.193	0.01
679.601	0.01
680.009	0
680.417	0.01
680.825	0.01
681.233	0.01
681.641	0.01
682.048	0.01
682.456	0.01
682.864	0.01
683.271	0.01
683.679	0.01
684.086	0.01
684.493	0.02
684.901	0.01
685.308	0.01
685.715	0.01
686.122	0.01
686.529	0.02
686.936	0.02
687.343	0.01
687.75	0.02
688.157	0.01
688.564	0.02
688.971	0.02
689.378	0.02
689.784	0.02
690.191	0.01
690.597	0.01
691.004	0.02
691.41	0.02
691.817	0.01
692.223	0.02
692.629	0.02
693.035	0.01
693.442	0.02
693.848	0.01
694.254	0.02
694.66	0.02
695.066	0.02
695.471	0.01
695.877	0.02
696.283	0.01
696.689	0.01
697.094	0.02
697.5	0.01
697.906	0.01
698.311	0.02
698.716	0.02
699.122	0.02
699.527	0.02
699.932	0.02
700.338	0.02
700.743	0.02
701.148	0.02
701.553	0.02
701.958	0.02
702.363	0.02
702.768	0.02
703.173	0.02
703.577	0.02
703.982	0.02
704.387	0.02
704.791	0.02
705.196	0.02
705.6	0.03
706.005	0.02
706.409	0.02
706.814	0.02
707.218	0.02
707.622	0.02
708.026	0.02
708.43	0.02
708.834	0.02
709.238	0.02
709.642	0.02
710.046	0.02
710.45	0.03
710.854	0.02
711.257	0.02
711.661	0.02
712.065	0.02
712.468	0.02
712.872	0.02
713.275	0.02
713.679	0.02
714.082	0.02
714.485	0.03
714.888	0.02
715.291	0.02
715.695	0.02
716.098	0.02
716.501	0.03
716.904	0.03
717.306	0.03
717.709	0.03
718.112	0.03
718.515	0.02
718.917	0.02
719.32	0.02
719.723	0.02
720.125	0.02
720.527	0.02
720.93	0.02
721.332	0.03
721.734	0.03
722.137	0.03
722.539	0.03
722.941	0.03
723.343	0.03
723.745	0.03
724.147	0.03
724.549	0.03
724.95	0.03
725.352	0.03
725.754	0.03
726.156	0.03
726.557	0.03
726.959	0.03
727.36	0.03
727.762	0.03
728.163	0.03
728.564	0.03
728.966	0.03
729.367	0.03
729.768	0.03
730.169	0.03
730.57	0.03
730.971	0.03
731.372	0.03
731.773	0.03
732.174	0.03
732.574	0.03
732.975	0.02
733.376	0.02
733.776	0.03
734.177	0.03
734.577	0.02
734.978	0.03
735.378	0.03
735.778	0.03
736.179	0.03
736.579	0.03
736.979	0.03
737.379	0.03
737.779	0.03
738.179	0.03
738.579	0.04
738.979	0.03
739.379	0.03
739.778	0.03
740.178	0.03
740.578	0.03
740.977	0.03
741.377	0.03
741.776	0.03
742.176	0.04
742.575	0.03
742.974	0.04
743.374	0.04
743.773	0.04
744.172	0.04
744.571	0.03
744.97	0.04
745.369	0.03
745.768	0.03
746.167	0.03
746.565	0.03
746.964	0.03
747.363	0.03
747.761	0.03
748.16	0.03
748.559	0.03
748.957	0.03
749.355	0.04
749.754	0.03
750.152	0.03
750.55	0.03
750.948	0.03
751.347	0.03
751.745	0.03
752.143	0.04
752.541	0.04
752.938	0.04
753.336	0.03
753.734	0.03
754.132	0.03
754.529	0.03
754.927	0.03
755.325	0.03
755.722	0.04
756.119	0.04
756.517	0.03
756.914	0.03
757.311	0.03
757.709	0.04
758.106	0.04
758.503	0.04
758.9	0.03
759.297	0.03
759.694	0.04
760.091	0.03
760.488	0.03
760.884	0.03
761.281	0.03
761.678	0.04
762.074	0.04
762.471	0.04
762.867	0.03
763.264	0.03
763.66	0.04
764.056	0.04
764.453	0.04
764.849	0.04
765.245	0.04
765.641	0.03
766.037	0.04
766.433	0.04
766.829	0.04
767.225	0.04
767.621	0.05
768.016	0.04
768.412	0.04
768.808	0.04
769.203	0.04
769.599	0.04
769.994	0.04
770.389	0.04
770.785	0.04
771.18	0.04
771.575	0.03
771.971	0.03
772.366	0.03
772.761	0.03
773.156	0.03
773.551	0.03
773.945	0.03
774.34	0.03
774.735	0.04
775.13	0.04
775.524	0.03
775.919	0.03
776.314	0.04
776.708	0.03
777.103	0.03
777.497	0.03
777.891	0.03
778.285	0.03
778.68	0.04
779.074	0.03
779.468	0.03
779.862	0.03
780.256	0.03
780.65	0.04
781.044	0.03
781.438	0.03
781.831	0.04
782.225	0.03
782.619	0.03
783.012	0.03
783.406	0.03
783.799	0.03
784.193	0.03
784.586	0.03
784.979	0.03
785.372	0.03
785.766	0.04
786.159	0.04
786.552	0.04
786.945	0.04
787.338	0.04
787.731	0.04
788.123	0.03
788.516	0.04
788.909	0.03
789.302	0.03
789.694	0.04
790.087	0.03
790.479	0.03
790.872	0.03
791.264	0.03
791.656	0.04
792.049	0.04
792.441	0.03
792.833	0.03
793.225	0.04
793.617	0.03
794.009	0.04
794.401	0.03
794.793	0.03
795.185	0.03
795.576	0.04
795.968	0.04
796.36	0.04
796.751	0.04
797.143	0.04
797.534	0.04
797.926	0.03
798.317	0.04
798.708	0.04
799.1	0.04
799.491	0.05
799.882	0.04
800.273	0.04
800.664	0.04
801.055	0.04
801.446	0.04
801.837	0.04
802.227	0.04
802.618	0.04
803.009	0.04
803.399	0.04
803.79	0.04
804.18	0.04
804.571	0.04
804.961	0.03
805.351	0.04
805.742	0.04
806.132	0.04
806.522	0.04
806.912	0.04
807.302	0.04
807.692	0.04
808.082	0.04
808.472	0.04
808.862	0.04
809.251	0.04
809.641	0.04
810.031	0.04
810.42	0.04
810.81	0.04
811.199	0.03
811.589	0.04
811.978	0.03
812.367	0.03
812.756	0.03
813.146	0.04
813.535	0.04
813.924	0.03
814.313	0.04
814.702	0.03
815.091	0.03
815.479	0.04
815.868	0.04
816.257	0.03
816.645	0.04
817.034	0.04
817.423	0.04
817.811	0.04
818.199	0.04
818.588	0.04
818.976	0.04
819.364	0.04
819.753	0.03
820.141	0.04
820.529	0.04
820.917	0.04
821.305	0.03
821.693	0.04
822.08	0.04
822.468	0.04
822.856	0.04
823.244	0.04
823.631	0.05
824.019	0.04
824.406	0.04
824.794	0.04
825.181	0.04
825.568	0.04
825.956	0.04
826.343	0.04
826.73	0.04
827.117	0.04
827.504	0.04
827.891	0.04
828.278	0.04
828.665	0.04
829.052	0.04
829.438	0.04
829.825	0.04
830.212	0.04
830.598	0.04
830.985	0.04
831.371	0.04
831.757	0.04
832.144	0.04
832.53	0.04
832.916	0.04
833.302	0.04
833.688	0.04
834.075	0.04
834.461	0.04
834.846	0.04
835.232	0.04
835.618	0.04
836.004	0.04
836.39	0.04
836.775	0.04
837.161	0.04
837.546	0.04
837.932	0.04
838.317	0.04
838.702	0.04
839.088	0.04
839.473	0.04
839.858	0.03
840.243	0.04
840.628	0.04
841.013	0.04
841.398	0.04
841.783	0.04
842.168	0.04
842.553	0.05
842.937	0.04
843.322	0.04
843.707	0.04
844.091	0.04
844.476	0.04
844.86	0.04
845.244	0.05
845.629	0.05
846.013	0.05
846.397	0.05
846.781	0.05
847.165	0.04
847.549	0.04
847.933	0.04
848.317	0.04
848.701	0.04
849.085	0.03
849.468	0.03
849.852	0.04
850.236	0.04
850.619	0.03
851.003	0.03
851.386	0.03
851.769	0.04
852.153	0.04
852.536	0.03
852.919	0.04
853.302	0.04
853.685	0.03
854.068	0.04
854.451	0.03
854.834	0.03
855.217	0.04
855.6	0.04
855.982	0.04
856.365	0.04
856.748	0.04
857.13	0.04
857.513	0.04
857.895	0.04
858.277	0.03
858.66	0.03
859.042	0.04
859.424	0.03
859.806	0.04
860.188	0.04
860.57	0.04
860.952	0.04
861.334	0.04
861.716	0.04
862.098	0.05
862.48	0.05
862.861	0.05
863.243	0.05
863.624	0.04
864.006	0.05
864.387	0.04
864.769	0.04
865.15	0.05
865.531	0.05
865.912	0.05
866.294	0.04
866.675	0.04
867.056	0.04
867.437	0.04
867.818	0.05
868.198	0.04
868.579	0.04
868.96	0.04
869.341	0.05
869.721	0.05
870.102	0.04
870.482	0.04
870.863	0.05
871.243	0.04
871.623	0.04
872.003	0.04
872.384	0.05
872.764	0.04
873.144	0.04
873.524	0.04
873.904	0.04
874.284	0.04
874.664	0.04
875.043	0.03
875.423	0.04
875.803	0.03
876.182	0.04
876.562	0.04
876.941	0.04
877.321	0.04
877.7	0.04
878.079	0.04
878.459	0.05
878.838	0.04
879.217	0.05
879.596	0.05
879.975	0.05
880.354	0.05
880.733	0.05
881.112	0.05
881.491	0.05
881.869	0.05
882.248	0.05
882.627	0.05
883.005	0.05
883.384	0.05
883.762	0.05
884.14	0.04
884.519	0.04
884.897	0.04
885.275	0.04
885.653	0.04
886.031	0.04
886.409	0.04
886.787	0.04
887.165	0.04
887.543	0.04
887.921	0.05
888.298	0.04
888.676	0.04
889.054	0.04
889.431	0.04
889.809	0.04
890.186	0.05
890.563	0.04
890.941	0.04
891.318	0.05
891.695	0.04
892.072	0.04
892.449	0.04
892.826	0.04
893.203	0.04
893.58	0.03
893.957	0.04
894.334	0.04
894.71	0.04
895.087	0.04
895.464	0.04
895.84	0.04
896.217	0.03
896.593	0.04
896.969	0.04
897.346	0.04
897.722	0.04
898.098	0.04
898.474	0.04
898.85	0.04
899.226	0.04
899.602	0.03
899.978	0.04
900.354	0.03
900.73	0.04
901.105	0.04
901.481	0.05
901.857	0.04
902.232	0.04
902.608	0.04
902.983	0.04
903.358	0.04
903.734	0.04
904.109	0.04
904.484	0.04
904.859	0.04
905.234	0.05
905.609	0.04
905.984	0.04
906.359	0.04
906.734	0.04
907.108	0.04
907.483	0.04
907.858	0.04
908.232	0.04
908.607	0.04
908.981	0.04
909.356	0.05
909.73	0.04
910.104	0.04
910.478	0.05
910.853	0.04
911.227	0.04
911.601	0.04
911.975	0.05
912.349	0.05
912.722	0.05
913.096	0.05
913.47	0.05
913.844	0.05
914.217	0.04
914.591	0.04
914.964	0.04
915.338	0.04
915.711	0.04
916.084	0.04
916.458	0.04
916.831	0.04
917.204	0.04
917.577	0.04
917.95	0.04
918.323	0.04
918.696	0.04
919.069	0.04
919.441	0.04
919.814	0.04
920.187	0.04
920.559	0.04
920.932	0.04
921.304	0.04
921.677	0.04
922.049	0.04
922.421	0.04
922.794	0.04
923.166	0.04
923.538	0.04
923.91	0.05
924.282	0.04
924.654	0.05
925.026	0.05
925.398	0.05
925.769	0.06
926.141	0.06
926.513	0.05
926.884	0.05
927.256	0.05
927.627	0.05
927.999	0.06
928.37	0.05
928.741	0.05
929.113	0.06
929.484	0.05
929.855	0.05
930.226	0.05
930.597	0.05
930.968	0.05
931.339	0.05
931.709	0.05
932.08	0.05
932.451	0.05
932.821	0.05
933.192	0.04
933.562	0.04
933.933	0.04
934.303	0.04
934.673	0.04
935.044	0.04
935.414	0.04
935.784	0.04
936.154	0.04
936.524	0.05
936.894	0.04
937.264	0.04
937.634	0.04
938.004	0.04
938.373	0.04
938.743	0.04
939.113	0.04
939.482	0.05
939.852	0.04
940.221	0.05
940.59	0.04
940.96	0.05
941.329	0.05
941.698	0.05
942.067	0.06
942.436	0.04
942.805	0.05
943.174	0.05
943.543	0.05
943.912	0.05
944.28	0.05
944.649	0.05
945.018	0.05
945.386	0.05
945.755	0.06
946.123	0.06
946.492	0.05
946.86	0.06
947.228	0.07
947.596	0.06
947.965	0.06
948.333	0.05
948.701	0.04
949.069	0.05
949.437	0.04
949.804	0.04
950.172	0.05
950.54	0.05
950.908	0.04
951.275	0.05
951.643	0.05
952.01	0.06
952.378	0.06
952.745	0.06
953.112	0.06
953.479	0.06
953.847	0.05
954.214	0.05
954.581	0.06
954.948	0.06
955.315	0.06
955.682	0.06
956.048	0.07
956.415	0.07
956.782	0.06
957.148	0.07
957.515	0.06
957.881	0.07
958.248	0.06
958.614	0.07
958.981	0.07
959.347	0.07
959.713	0.06
960.079	0.06
960.445	0.06
960.811	0.06
961.177	0.06
961.543	0.06
961.909	0.06
962.275	0.06
962.641	0.06
963.006	0.06
963.372	0.07
963.737	0.05
964.103	0.06
964.468	0.05
964.834	0.05
965.199	0.06
965.564	0.05
965.929	0.06
966.294	0.06
966.659	0.05
967.024	0.05
967.389	0.06
967.754	0.05
968.119	0.05
968.484	0.05
968.848	0.06
969.213	0.05
969.578	0.05
969.942	0.05
970.307	0.06
970.671	0.06
971.035	0.05
971.399	0.06
971.764	0.05
972.128	0.06
972.492	0.06
972.856	0.07
973.22	0.06
973.584	0.07
973.948	0.06
974.311	0.06
974.675	0.06
975.039	0.05
975.402	0.06
975.766	0.05
976.129	0.06
976.493	0.05
976.856	0.06
977.219	0.05
977.582	0.05
977.946	0.05
978.309	0.06
978.672	0.05
979.035	0.04
979.398	0.05
979.761	0.05
980.123	0.05
980.486	0.04
980.849	0.05
981.211	0.04
981.574	0.04
981.936	0.05
982.299	0.05
982.661	0.05
983.023	0.05
983.386	0.05
983.748	0.05
984.11	0.05
984.472	0.05
984.834	0.06
985.196	0.06
985.558	0.06
985.92	0.05
986.281	0.06
986.643	0.06
987.005	0.07
987.366	0.07
987.728	0.07
988.089	0.06
988.451	0.07
988.812	0.06
989.173	0.05
989.534	0.07
989.895	0.06
990.257	0.06
990.618	0.07
990.979	0.06
991.339	0.06
991.7	0.05
992.061	0.06
992.422	0.05
992.782	0.05
993.143	0.06
993.503	0.04
993.864	0.06
994.224	0.05
994.585	0.05
994.945	0.05
995.305	0.05
995.665	0.06
996.025	0.05
996.385	0.05
996.745	0.05
997.105	0.06
997.465	0.05
997.825	0.04
998.185	0.06
998.544	0.05
998.904	0.05
999.263	0.06
999.623	0.06
999.982	0.05
1000.342	0.05
1000.701	0.05
1001.06	0.04
1001.419	0.05
1001.778	0.04
1002.138	0.05
1002.497	0.04
1002.855	0.05
1003.214	0.05
1003.573	0.05
1003.932	0.05
1004.29	0.05
1004.649	0.05
1005.008	0.05
1005.366	0.05
1005.725	0.05
1006.083	0.06
1006.441	0.06
1006.799	0.06
1007.158	0.05
1007.516	0.05
1007.874	0.06
1008.232	0.05
1008.59	0.05
1008.948	0.05
1009.305	0.05
1009.663	0.05
1010.021	0.06
1010.379	0.05
1010.736	0.04
1011.094	0.06
1011.451	0.05
1011.808	0.04
1012.166	0.05
1012.523	0.05
1012.88	0.05
1013.237	0.04
1013.594	0.06
1013.951	0.05
1014.308	0.06
1014.665	0.06
1015.022	0.05
1015.379	0.06
1015.735	0.06
1016.092	0.06
1016.449	0.04
1016.805	0.06
1017.162	0.06
1017.518	0.05
1017.874	0.05
1018.231	0.05
1018.587	0.06
1018.943	0.05
1019.299	0.05
1019.655	0.05
1020.011	0.06
1020.367	0.05
1020.723	0.05
1021.078	0.05
1021.434	0.05
1021.79	0.05
1022.145	0.04
1022.501	0.04
1022.856	0.06
1023.212	0.05
1023.567	0.05
1023.922	0.05
1024.278	0.05
1024.633	0.05
1024.988	0.06
1025.343	0.05
1025.698	0.04
1026.053	0.05
1026.408	0.04
1026.762	0.05
1027.117	0.04
1027.472	0.05
1027.826	0.04
1028.181	0.03
1028.535	0.06
1028.89	0.05
1029.244	0.03
1029.598	0.05
1029.952	0.05
1030.307	0.05
1030.661	0.04
1031.015	0.05
1031.369	0.04
1031.723	0.05
1032.076	0.06
