Data from Rubpy_EV_1200_EDTA_Buffered_Absorbance_14-12-06-791.txt Node
Date: Tue Jun 30 14:12:06 BST 2026
User: fpm-admin
Spectrometer: OFX00224
Trigger mode: 0
Integration Time (sec): 7.000000E-2
Scans to average: 3
Nonlinearity correction enabled: false
Boxcar width: 0
Storing dark spectrum: false
XAxis mode: Wavelengths
Number of Pixels in Spectrum: 2136
>>>>>Begin Spectral Data<<<<<
154.91	0.03
155.289	0.03
155.669	-0.14
156.048	0.18
156.428	-0
156.807	1.38
157.186	-0
157.566	-0.04
157.945	0.43
158.325	-0.41
158.704	0.06
159.083	-0
159.462	1.04
159.842	0.13
160.221	-0
160.6	-0
160.979	-0.1
161.359	0.04
161.738	0.1
162.117	-0
162.496	-0
162.875	0.95
163.254	0.3
163.633	-0
164.012	0.03
164.391	0.22
164.77	-0
165.149	-0.12
165.528	-0
165.907	0.1
166.286	-0
166.665	-0.39
167.044	-0.42
167.423	-0.17
167.802	-0
168.181	-0
168.559	-0
168.938	-0.43
169.317	-0.12
169.696	-1.04
170.074	-1.04
170.453	0.4
170.832	0.4
171.21	-0.26
171.589	-0
171.968	-0
172.346	0.21
172.725	-0
173.103	-0
173.482	0.93
173.861	-0.21
174.239	-0.15
174.617	-0.21
174.996	-0.54
175.374	-0.47
175.753	-0.83
176.131	-0.11
176.51	-0.35
176.888	-0
177.266	-0
177.645	-0.06
178.023	0.37
178.401	-0.35
178.779	0.1
179.158	0.25
179.536	-0.07
179.914	-0.49
180.292	-0
180.67	-0.21
181.048	-0.51
181.427	-0.03
181.805	1.15
182.183	-0
182.561	-0
182.939	-0.1
183.317	-0.15
183.695	-0.03
184.073	-0.6
184.451	-0
184.829	-0.13
185.206	0.1
185.584	0.08
185.962	-0.3
186.34	0.71
186.718	0.08
187.096	1.15
187.473	-0
187.851	-0
188.229	-0.59
188.607	0.07
188.984	0.06
189.362	0.19
189.74	0.03
190.117	0.02
190.495	0.02
190.872	0.05
191.25	0.12
191.627	0.1
192.005	0.05
192.382	0.07
192.76	-0.07
193.137	0.24
193.515	0.12
193.892	0
194.269	0.02
194.647	0.03
195.024	0.06
195.401	0.04
195.779	0.06
196.156	0.04
196.533	0.08
196.91	0.01
197.288	0.08
197.665	0.13
198.042	0.16
198.419	0.17
198.796	0.13
199.173	0.06
199.55	0.04
199.927	0.01
200.304	-0.03
200.681	0.12
201.058	-0.03
201.435	0.02
201.812	0.05
202.189	0.08
202.566	0.08
202.943	0.12
203.32	0.08
203.697	0.07
204.073	0.1
204.45	0.05
204.827	0.06
205.204	0.1
205.58	0.12
205.957	0.1
206.334	0.06
206.71	0.01
207.087	0.13
207.464	0.1
207.84	0.04
208.217	0.12
208.593	0.1
208.97	0.08
209.346	-0.01
209.723	0.15
210.099	0.06
210.476	0.12
210.852	0.18
211.228	0.11
211.605	0.06
211.981	0.07
212.357	0.12
212.733	0.1
213.11	0.13
213.486	-0.01
213.862	0.05
214.238	0.06
214.614	0.05
214.991	0.09
215.367	0.08
215.743	0.18
216.119	0.07
216.495	0.17
216.871	0.03
217.247	0.04
217.623	0.08
217.999	0.06
218.375	0.05
218.751	0.15
219.127	0.17
219.502	0.06
219.878	0.1
220.254	0.09
220.63	0.11
221.006	0.09
221.381	0
221.757	0.04
222.133	0.13
222.508	0.07
222.884	0.14
223.26	0.06
223.635	0.05
224.011	0.09
224.386	0.1
224.762	0.1
225.137	0.06
225.513	0.13
225.888	0.07
226.264	0.07
226.639	0.05
227.014	0.03
227.39	0.13
227.765	0.04
228.14	0.05
228.516	0.09
228.891	0.05
229.266	0.08
229.641	0.03
230.017	0.12
230.392	-0.01
230.767	0.16
231.142	0.06
231.517	0.13
231.892	0.14
232.267	0.14
232.642	0.09
233.017	0.03
233.392	0.1
233.767	0.11
234.142	0.07
234.517	0.07
234.892	0.14
235.267	0.06
235.641	0.08
236.016	0.07
236.391	0.19
236.766	0.05
237.14	-0.01
237.515	0.07
237.89	0.09
238.264	0.07
238.639	0.01
239.014	0.08
239.388	0.08
239.763	0.05
240.137	0.03
240.512	0.04
240.886	0.07
241.261	0.01
241.635	0.03
242.009	0.06
242.384	0.03
242.758	0.12
243.132	0.02
243.507	0.1
243.881	0.11
244.255	0.12
244.629	0.18
245.004	0.08
245.378	0.12
245.752	0.02
246.126	0.05
246.5	0.1
246.874	0.07
247.248	0.06
247.622	0.07
247.996	0.11
248.37	0.03
248.744	0.1
249.118	0.07
249.492	0.14
249.866	0.11
250.24	0.17
250.613	0.08
250.987	0.06
251.361	0.08
251.735	0.04
252.108	0.06
252.482	0.05
252.856	0.08
253.229	0.03
253.603	0.05
253.977	0.17
254.35	0.03
254.724	0.09
255.097	0.09
255.471	0.04
255.844	0.12
256.218	0.02
256.591	0.12
256.964	0.11
257.338	0.06
257.711	0.11
258.084	0.07
258.458	0.05
258.831	0.03
259.204	0.11
259.577	-0.01
259.95	0.04
260.323	0.1
260.697	0.06
261.07	0.09
261.443	0.09
261.816	0.08
262.189	0.09
262.562	0.04
262.935	0.05
263.308	0.04
263.68	-0
264.053	0.11
264.426	0.08
264.799	0.07
265.172	0.11
265.545	0.12
265.917	0.18
266.29	0.03
266.663	0.1
267.035	0.03
267.408	0.09
267.781	0.1
268.153	0.14
268.526	0.18
268.898	0.07
269.271	0.1
269.643	0.11
270.016	0.07
270.388	0.1
270.76	0.1
271.133	0.15
271.505	0.04
271.877	0.08
272.25	0.07
272.622	0.09
272.994	0.06
273.366	0.11
273.739	0.05
274.111	0.09
274.483	0.09
274.855	0.02
275.227	0.09
275.599	0.08
275.971	0.08
276.343	0.07
276.715	0.11
277.087	0.08
277.459	0.04
277.831	0.07
278.203	0.04
278.574	0.13
278.946	0.12
279.318	0.07
279.69	0.09
280.061	0.14
280.433	0.17
280.805	0.12
281.176	0.15
281.548	0.11
281.92	0.05
282.291	0.09
282.663	0.1
283.034	0.12
283.406	0.07
283.777	0.13
284.148	0.13
284.52	0.16
284.891	0.08
285.262	0.09
285.634	0.1
286.005	0.17
286.376	0.1
286.747	0.07
287.119	0.07
287.49	0.09
287.861	0.06
288.232	0.03
288.603	0.1
288.974	0.03
289.345	0.14
289.716	0.09
290.087	0.08
290.458	0.05
290.829	0.16
291.2	0.14
291.571	0.1
291.941	0.11
292.312	0.05
292.683	0.11
293.054	0.09
293.424	0.11
293.795	0.09
294.166	0.1
294.536	0.06
294.907	0.05
295.277	0.08
295.648	0.13
296.018	0.06
296.389	0.09
296.759	0.1
297.13	0.08
297.5	0.04
297.871	0.12
298.241	0.12
298.611	0.07
298.981	0.08
299.352	0.07
299.722	0.05
300.092	0.07
300.462	0.06
300.832	0.08
301.202	0.05
301.573	0.03
301.943	0.05
302.313	0.09
302.683	0.05
303.053	0.06
303.422	0.05
303.792	0.07
304.162	0.04
304.532	0.06
304.902	0.06
305.272	0.06
305.641	0.06
306.011	0.05
306.381	0.04
306.75	0.05
307.12	0.07
307.49	0.06
307.859	0.06
308.229	0.06
308.598	0.06
308.968	0.06
309.337	0.06
309.707	0.07
310.076	0.07
310.445	0.06
310.815	0.07
311.184	0.07
311.553	0.06
311.923	0.06
312.292	0.07
312.661	0.07
313.03	0.07
313.399	0.07
313.768	0.07
314.137	0.07
314.506	0.07
314.875	0.07
315.244	0.07
315.613	0.07
315.982	0.06
316.351	0.07
316.72	0.07
317.089	0.06
317.458	0.07
317.826	0.07
318.195	0.07
318.564	0.06
318.933	0.06
319.301	0.07
319.67	0.06
320.038	0.06
320.407	0.06
320.775	0.06
321.144	0.06
321.512	0.06
321.881	0.05
322.249	0.06
322.618	0.06
322.986	0.06
323.354	0.06
323.723	0.06
324.091	0.06
324.459	0.05
324.827	0.06
325.195	0.05
325.564	0.05
325.932	0.05
326.3	0.05
326.668	0.05
327.036	0.05
327.404	0.05
327.772	0.06
328.14	0.06
328.508	0.06
328.875	0.05
329.243	0.05
329.611	0.04
329.979	0.06
330.346	0.06
330.714	0.05
331.082	0.06
331.449	0.05
331.817	0.06
332.185	0.06
332.552	0.06
332.92	0.05
333.287	0.06
333.655	0.06
334.022	0.06
334.389	0.06
334.757	0.06
335.124	0.06
335.491	0.06
335.859	0.06
336.226	0.06
336.593	0.06
336.96	0.06
337.327	0.06
337.695	0.06
338.062	0.06
338.429	0.06
338.796	0.06
339.163	0.06
339.53	0.07
339.897	0.07
340.263	0.07
340.63	0.07
340.997	0.07
341.364	0.07
341.731	0.07
342.097	0.08
342.464	0.08
342.831	0.08
343.197	0.08
343.564	0.08
343.931	0.08
344.297	0.09
344.664	0.08
345.03	0.09
345.396	0.09
345.763	0.09
346.129	0.09
346.496	0.1
346.862	0.09
347.228	0.09
347.594	0.1
347.961	0.09
348.327	0.1
348.693	0.1
349.059	0.1
349.425	0.1
349.791	0.11
350.157	0.1
350.523	0.11
350.889	0.11
351.255	0.12
351.621	0.11
351.987	0.12
352.353	0.12
352.719	0.12
353.084	0.13
353.45	0.12
353.816	0.13
354.181	0.13
354.547	0.13
354.913	0.14
355.278	0.14
355.644	0.14
356.009	0.15
356.375	0.15
356.74	0.15
357.106	0.15
357.471	0.16
357.836	0.16
358.202	0.17
358.567	0.17
358.932	0.17
359.297	0.18
359.663	0.18
360.028	0.18
360.393	0.18
360.758	0.19
361.123	0.19
361.488	0.19
361.853	0.19
362.218	0.19
362.583	0.2
362.948	0.2
363.312	0.21
363.677	0.21
364.042	0.21
364.407	0.21
364.772	0.22
365.136	0.22
365.501	0.23
365.865	0.23
366.23	0.24
366.595	0.24
366.959	0.25
367.324	0.26
367.688	0.26
368.052	0.26
368.417	0.27
368.781	0.28
369.145	0.28
369.51	0.27
369.874	0.28
370.238	0.28
370.602	0.28
370.967	0.28
371.331	0.28
371.695	0.28
372.059	0.28
372.423	0.27
372.787	0.27
373.151	0.27
373.515	0.27
373.878	0.28
374.242	0.28
374.606	0.27
374.97	0.27
375.334	0.27
375.697	0.28
376.061	0.28
376.425	0.28
376.788	0.28
377.152	0.28
377.515	0.29
377.879	0.29
378.242	0.29
378.606	0.3
378.969	0.3
379.333	0.3
379.696	0.31
380.059	0.32
380.422	0.32
380.786	0.33
381.149	0.34
381.512	0.35
381.875	0.34
382.238	0.36
382.601	0.37
382.964	0.38
383.327	0.39
383.69	0.4
384.053	0.41
384.416	0.41
384.779	0.43
385.142	0.44
385.504	0.45
385.867	0.46
386.23	0.46
386.593	0.46
386.955	0.47
387.318	0.46
387.68	0.46
388.043	0.45
388.405	0.46
388.768	0.45
389.13	0.45
389.493	0.44
389.855	0.44
390.217	0.44
390.58	0.44
390.942	0.45
391.304	0.45
391.666	0.46
392.028	0.46
392.391	0.47
392.753	0.49
393.115	0.5
393.477	0.52
393.839	0.54
394.201	0.56
394.563	0.59
394.924	0.61
395.286	0.64
395.648	0.65
396.01	0.67
396.371	0.69
396.733	0.71
397.095	0.71
397.456	0.73
397.818	0.72
398.18	0.71
398.541	0.71
398.903	0.7
399.264	0.67
399.625	0.65
399.987	0.63
400.348	0.6
400.709	0.56
401.071	0.53
401.432	0.5
401.793	0.46
402.154	0.44
402.515	0.41
402.876	0.38
403.238	0.35
403.599	0.32
403.96	0.3
404.32	0.29
404.681	0.26
405.042	0.24
405.403	0.23
405.764	0.21
406.125	0.2
406.485	0.18
406.846	0.17
407.207	0.16
407.567	0.15
407.928	0.14
408.288	0.13
408.649	0.13
409.009	0.12
409.37	0.11
409.73	0.11
410.091	0.1
410.451	0.09
410.811	0.09
411.171	0.09
411.532	0.08
411.892	0.08
412.252	0.08
412.612	0.08
412.972	0.07
413.332	0.07
413.692	0.07
414.052	0.06
414.412	0.06
414.772	0.06
415.132	0.06
415.492	0.06
415.851	0.05
416.211	0.05
416.571	0.05
416.931	0.05
417.29	0.04
417.65	0.05
418.009	0.05
418.369	0.04
418.728	0.04
419.088	0.05
419.447	0.05
419.807	0.04
420.166	0.04
420.525	0.05
420.884	0.04
421.244	0.04
421.603	0.04
421.962	0.04
422.321	0.04
422.68	0.04
423.039	0.04
423.398	0.03
423.757	0.04
424.116	0.03
424.475	0.03
424.834	0.04
425.193	0.03
425.551	0.03
425.91	0.04
426.269	0.03
426.628	0.04
426.986	0.04
427.345	0.04
427.703	0.03
428.062	0.04
428.42	0.03
428.779	0.03
429.137	0.03
429.496	0.03
429.854	0.03
430.212	0.03
430.57	0.03
430.929	0.04
431.287	0.03
431.645	0.03
432.003	0.02
432.361	0.02
432.719	0.02
433.077	0.02
433.435	0.03
433.793	0.03
434.151	0.02
434.509	0.03
434.866	0.02
435.224	0.02
435.582	0.02
435.94	0.03
436.297	0.03
436.655	0.03
437.012	0.02
437.37	0.03
437.727	0.02
438.085	0.02
438.442	0.03
438.8	0.02
439.157	0.02
439.514	0.03
439.872	0.02
440.229	0.03
440.586	0.02
440.943	0.01
441.3	0.02
441.657	0.01
442.014	0.02
442.371	0.02
442.728	0.02
443.085	0.02
443.442	0.02
443.799	0.02
444.156	0.02
444.513	0.01
444.869	0.02
445.226	0.02
445.583	0.01
445.939	0.01
446.296	0.01
446.652	0.01
447.009	0.02
447.365	0.02
447.722	0.01
448.078	0.02
448.434	0.01
448.791	0.02
449.147	0.01
449.503	0.01
449.859	0.01
450.215	0.01
450.571	0.01
450.928	0.01
451.284	0.01
451.64	0
451.995	0.01
452.351	0
452.707	-0
453.063	0.01
453.419	0
453.775	0.01
454.13	0
454.486	0
454.842	-0.01
455.197	-0.01
455.553	-0
455.908	-0
456.264	-0.01
456.619	-0
456.975	-0.01
457.33	-0.01
457.685	-0.02
458.04	-0.02
458.396	-0.02
458.751	-0.02
459.106	-0.02
459.461	-0.02
459.816	-0.02
460.171	-0.02
460.526	-0.03
460.881	-0.03
461.236	-0.03
461.591	-0.02
461.946	-0.04
462.301	-0.03
462.655	-0.04
463.01	-0.04
463.365	-0.04
463.719	-0.04
464.074	-0.05
464.428	-0.05
464.783	-0.05
465.137	-0.05
465.492	-0.05
465.846	-0.05
466.201	-0.05
466.555	-0.05
466.909	-0.05
467.263	-0.05
467.618	-0.05
467.972	-0.04
468.326	-0.06
468.68	-0.06
469.034	-0.06
469.388	-0.06
469.742	-0.06
470.096	-0.06
470.45	-0.06
470.804	-0.05
471.157	-0.06
471.511	-0.06
471.865	-0.05
472.218	-0.06
472.572	-0.05
472.926	-0.06
473.279	-0.05
473.633	-0.05
473.986	-0.04
474.34	-0.04
474.693	-0.04
475.046	-0.04
475.4	-0.04
475.753	-0.03
476.106	-0.02
476.459	-0.03
476.812	-0.03
477.165	-0.02
477.519	-0.02
477.872	-0.02
478.224	-0.02
478.577	-0.01
478.93	-0.02
479.283	-0.01
479.636	-0.01
479.989	-0
480.341	-0.01
480.694	-0.01
481.047	-0
481.399	-0
481.752	0
482.104	0
482.457	0
482.809	0
483.162	0.01
483.514	0.01
483.866	0.01
484.219	0.01
484.571	0.01
484.923	0.01
485.275	0.01
485.627	0.01
485.979	0.01
486.331	0.01
486.683	0.01
487.035	0.02
487.387	0.01
487.739	0.02
488.091	0.02
488.443	0.02
488.794	0.02
489.146	0.02
489.498	0.02
489.849	0.02
490.201	0.02
490.552	0.02
490.904	0.02
491.255	0.02
491.607	0.02
491.958	0.03
492.309	0.02
492.661	0.03
493.012	0.02
493.363	0.02
493.714	0.03
494.065	0.03
494.416	0.03
494.767	0.03
495.118	0.03
495.469	0.03
495.82	0.03
496.171	0.03
496.522	0.03
496.872	0.03
497.223	0.03
497.574	0.03
497.924	0.03
498.275	0.03
498.626	0.03
498.976	0.04
499.327	0.04
499.677	0.04
500.027	0.04
500.378	0.04
500.728	0.04
501.078	0.04
501.428	0.04
501.779	0.04
502.129	0.04
502.479	0.04
502.829	0.04
503.179	0.04
503.529	0.05
503.879	0.04
504.229	0.04
504.578	0.05
504.928	0.05
505.278	0.05
505.628	0.05
505.977	0.05
506.327	0.05
506.676	0.05
507.026	0.05
507.375	0.05
507.725	0.05
508.074	0.05
508.424	0.05
508.773	0.06
509.122	0.05
509.471	0.05
509.82	0.05
510.17	0.05
510.519	0.06
510.868	0.06
511.217	0.06
511.566	0.06
511.915	0.06
512.263	0.06
512.612	0.07
512.961	0.06
513.31	0.06
513.659	0.06
514.007	0.06
514.356	0.07
514.704	0.07
515.053	0.06
515.401	0.06
515.75	0.07
516.098	0.07
516.447	0.07
516.795	0.07
517.143	0.07
517.491	0.06
517.839	0.07
518.188	0.07
518.536	0.07
518.884	0.07
519.232	0.07
519.58	0.07
519.928	0.07
520.275	0.08
520.623	0.08
520.971	0.07
521.319	0.08
521.666	0.08
522.014	0.08
522.362	0.08
522.709	0.08
523.057	0.08
523.404	0.08
523.752	0.08
524.099	0.08
524.446	0.08
524.794	0.08
525.141	0.08
525.488	0.08
525.835	0.08
526.182	0.09
526.529	0.09
526.876	0.09
527.223	0.09
527.57	0.09
527.917	0.09
528.264	0.09
528.611	0.09
528.958	0.09
529.304	0.09
529.651	0.09
529.998	0.09
530.344	0.09
530.691	0.1
531.037	0.09
531.384	0.1
531.73	0.1
532.076	0.1
532.423	0.09
532.769	0.1
533.115	0.1
533.461	0.1
533.807	0.1
534.154	0.1
534.5	0.1
534.846	0.1
535.192	0.11
535.537	0.11
535.883	0.1
536.229	0.1
536.575	0.1
536.921	0.11
537.266	0.11
537.612	0.11
537.957	0.11
538.303	0.11
538.649	0.11
538.994	0.11
539.339	0.12
539.685	0.12
540.03	0.12
540.375	0.12
540.721	0.12
541.066	0.12
541.411	0.12
541.756	0.11
542.101	0.12
542.446	0.12
542.791	0.13
543.136	0.12
543.481	0.13
543.825	0.13
544.17	0.13
544.515	0.13
544.86	0.13
545.204	0.13
545.549	0.13
545.893	0.13
546.238	0.13
546.582	0.13
546.927	0.13
547.271	0.13
547.615	0.14
547.96	0.14
548.304	0.14
548.648	0.14
548.992	0.14
549.336	0.14
549.68	0.14
550.024	0.14
550.368	0.14
550.712	0.14
551.056	0.15
551.4	0.15
551.743	0.15
552.087	0.15
552.431	0.15
552.774	0.15
553.118	0.15
553.462	0.14
553.805	0.15
554.148	0.15
554.492	0.15
554.835	0.15
555.178	0.15
555.522	0.15
555.865	0.15
556.208	0.15
556.551	0.15
556.894	0.16
557.237	0.16
557.58	0.16
557.923	0.16
558.266	0.16
558.609	0.16
558.952	0.16
559.294	0.16
559.637	0.16
559.98	0.16
560.322	0.16
560.665	0.16
561.007	0.16
561.35	0.16
561.692	0.16
562.034	0.17
562.377	0.17
562.719	0.16
563.061	0.16
563.403	0.16
563.745	0.16
564.088	0.16
564.43	0.16
564.772	0.16
565.113	0.16
565.455	0.16
565.797	0.16
566.139	0.17
566.481	0.17
566.822	0.17
567.164	0.17
567.506	0.17
567.847	0.17
568.189	0.17
568.53	0.17
568.872	0.17
569.213	0.17
569.554	0.17
569.895	0.17
570.237	0.17
570.578	0.17
570.919	0.17
571.26	0.17
571.601	0.17
571.942	0.17
572.283	0.17
572.624	0.17
572.965	0.17
573.306	0.17
573.646	0.17
573.987	0.17
574.328	0.17
574.668	0.17
575.009	0.17
575.349	0.17
575.69	0.17
576.03	0.17
576.37	0.16
576.711	0.16
577.051	0.16
577.391	0.16
577.731	0.17
578.072	0.17
578.412	0.17
578.752	0.17
579.092	0.16
579.431	0.16
579.771	0.14
580.111	0.13
580.451	0.14
580.791	0.16
581.13	0.16
581.47	0.17
581.81	0.17
582.149	0.17
582.489	0.17
582.828	0.17
583.167	0.14
583.507	0.11
583.846	0.09
584.185	0.11
584.525	0.14
584.864	0.16
585.203	0.17
585.542	0.17
585.881	0.17
586.22	0.18
586.559	0.17
586.898	0.17
587.236	0.16
587.575	0.15
587.914	0.16
588.252	0.17
588.591	0.18
588.93	0.18
589.268	0.18
589.607	0.18
589.945	0.18
590.283	0.18
590.622	0.18
590.96	0.18
591.298	0.19
591.636	0.19
591.974	0.19
592.313	0.19
592.651	0.19
592.989	0.19
593.326	0.19
593.664	0.2
594.002	0.2
594.34	0.19
594.678	0.19
595.015	0.19
595.353	0.18
595.691	0.18
596.028	0.2
596.366	0.2
596.703	0.2
597.04	0.2
597.378	0.2
597.715	0.2
598.052	0.21
598.389	0.21
598.726	0.21
599.064	0.21
599.401	0.21
599.738	0.21
600.074	0.21
600.411	0.21
600.748	0.21
601.085	0.21
601.422	0.2
601.758	0.2
602.095	0.2
602.432	0.2
602.768	0.2
603.105	0.21
603.441	0.21
603.777	0.21
604.114	0.21
604.45	0.21
604.786	0.21
605.122	0.21
605.459	0.21
605.795	0.21
606.131	0.21
606.467	0.21
606.803	0.21
607.139	0.21
607.474	0.21
607.81	0.21
608.146	0.21
608.482	0.21
608.817	0.21
609.153	0.21
609.488	0.21
609.824	0.21
610.159	0.21
610.495	0.21
610.83	0.21
611.165	0.21
611.5	0.21
611.836	0.21
612.171	0.21
612.506	0.21
612.841	0.21
613.176	0.21
613.511	0.21
613.845	0.21
614.18	0.2
614.515	0.2
614.85	0.2
615.184	0.2
615.519	0.2
615.854	0.2
616.188	0.2
616.523	0.2
616.857	0.2
617.191	0.2
617.526	0.19
617.86	0.2
618.194	0.19
618.528	0.2
618.862	0.2
619.196	0.2
619.53	0.2
619.864	0.2
620.198	0.2
620.532	0.2
620.866	0.2
621.2	0.19
621.533	0.19
621.867	0.2
622.201	0.2
622.534	0.19
622.868	0.19
623.201	0.19
623.534	0.19
623.868	0.19
624.201	0.18
624.534	0.18
624.868	0.19
625.201	0.18
625.534	0.18
625.867	0.19
626.2	0.18
626.533	0.18
626.865	0.19
627.198	0.18
627.531	0.18
627.864	0.18
628.196	0.18
628.529	0.18
628.862	0.18
629.194	0.18
629.527	0.18
629.859	0.18
630.191	0.18
630.524	0.18
630.856	0.17
631.188	0.17
631.52	0.17
631.852	0.17
632.184	0.17
632.516	0.17
632.848	0.17
633.18	0.17
633.512	0.16
633.844	0.16
634.175	0.16
634.507	0.16
634.839	0.15
635.17	0.16
635.502	0.15
635.833	0.15
636.165	0.15
636.496	0.15
636.827	0.15
637.159	0.15
637.49	0.14
637.821	0.14
638.152	0.14
638.483	0.14
638.814	0.14
639.145	0.14
639.476	0.14
639.807	0.14
640.137	0.14
640.468	0.14
640.799	0.14
641.129	0.13
641.46	0.14
641.791	0.13
642.121	0.13
642.451	0.13
642.782	0.13
643.112	0.13
643.442	0.13
643.773	0.13
644.103	0.13
644.433	0.13
644.763	0.13
645.093	0.13
645.423	0.13
645.753	0.13
646.082	0.12
646.412	0.12
646.742	0.12
647.072	0.12
647.401	0.13
647.731	0.12
648.06	0.12
648.39	0.12
648.719	0.12
649.048	0.12
649.378	0.12
649.707	0.12
650.036	0.12
650.365	0.12
650.694	0.11
651.023	0.11
651.352	0.11
651.681	0.11
652.01	0.11
652.339	0.11
652.668	0.11
652.996	0.12
653.325	0.12
653.654	0.11
653.982	0.11
654.311	0.11
654.639	0.11
654.967	0.11
655.296	0.12
655.624	0.12
655.952	0.11
656.28	0.11
656.609	0.11
656.937	0.11
657.265	0.12
657.593	0.04
657.92	0
658.248	0
658.576	0
658.904	0
659.231	0.06
659.559	0.1
659.887	0.11
660.214	0.1
660.542	0.11
660.869	0.11
661.196	0.11
661.524	0.11
661.851	0.11
662.178	0.11
662.505	0.11
662.832	0.11
663.159	0.11
663.486	0.11
663.813	0.11
664.14	0.11
664.467	0.11
664.794	0.11
665.12	0.11
665.447	0.11
665.774	0.11
666.1	0.11
666.427	0.11
666.753	0.1
667.079	0.1
667.406	0.1
667.732	0.1
668.058	0.11
668.384	0.1
668.71	0.1
669.036	0.1
669.362	0.1
669.688	0.1
670.014	0.1
670.34	0.1
670.666	0.11
670.991	0.1
671.317	0.1
671.643	0.1
671.968	0.1
672.294	0.1
672.619	0.1
672.945	0.1
673.27	0.1
673.595	0.1
673.92	0.1
674.246	0.1
674.571	0.1
674.896	0.1
675.221	0.09
675.546	0.09
675.87	0.09
676.195	0.09
676.52	0.09
676.845	0.09
677.169	0.09
677.494	0.09
677.819	0.09
678.143	0.09
678.468	0.09
678.792	0.08
679.116	0.08
679.44	0.08
679.765	0.08
680.089	0.08
680.413	0.08
680.737	0.08
681.061	0.08
681.385	0.08
681.709	0.08
682.033	0.08
682.356	0.08
682.68	0.08
683.004	0.08
683.327	0.08
683.651	0.07
683.974	0.07
684.298	0.07
684.621	0.07
684.944	0.07
685.268	0.07
685.591	0.07
685.914	0.07
686.237	0.07
686.56	0.07
686.883	0.07
687.206	0.07
687.529	0.07
687.852	0.06
688.175	0.07
688.497	0.07
688.82	0.06
689.142	0.06
689.465	0.06
689.787	0.06
690.11	0.06
690.432	0.06
690.755	0.06
691.077	0.06
691.399	0.06
691.721	0.06
692.043	0.05
692.365	0.05
692.687	0.05
693.009	0.05
693.331	0.05
693.653	0.05
693.974	0.05
694.296	0.05
694.618	0.05
694.939	0.05
695.261	0.05
695.582	0.05
695.904	0.05
696.225	0.05
696.546	0.05
696.868	0.05
697.189	0.05
697.51	0.05
697.831	0.05
698.152	0.05
698.473	0.05
698.794	0.05
699.114	0.04
699.435	0.04
699.756	0.04
700.077	0.04
700.397	0.04
700.718	0.04
701.038	0.04
701.359	0.04
701.679	0.04
701.999	0.04
702.32	0.03
702.64	0.03
702.96	0.04
703.28	0.04
703.6	0.04
703.92	0.03
704.24	0.03
704.56	0.03
704.879	0.03
705.199	0.04
705.519	0.04
705.838	0.04
706.158	0.04
706.478	0.03
706.797	0.03
707.116	0.03
707.436	0.03
707.755	0.03
708.074	0.03
708.393	0.03
708.712	0.03
709.031	0.02
709.35	0.02
709.669	0.02
709.988	0.03
710.307	0.03
710.626	0.03
710.944	0.03
711.263	0.03
711.582	0.03
711.9	0.03
712.219	0.03
712.537	0.03
712.855	0.03
713.174	0.03
713.492	0.03
713.81	0.04
714.128	0.04
714.446	0.03
714.764	0.03
715.082	0.03
715.4	0.03
715.718	0.03
716.035	0.03
716.353	0.03
716.671	0.03
716.988	0.03
717.306	0.03
717.623	0.03
717.941	0.03
718.258	0.04
718.575	0.04
718.893	0.04
719.21	0.04
719.527	0.03
719.844	0.03
720.161	0.03
720.478	0.03
720.795	0.03
721.112	0.03
721.428	0.03
721.745	0.03
722.062	0.03
722.378	0.03
722.695	0.03
723.011	0.03
723.328	0.03
723.644	0.03
723.96	0.03
724.276	0.03
724.593	0.03
724.909	0.03
725.225	0.03
725.541	0.03
725.857	0.03
726.173	0.03
726.488	0.03
726.804	0.03
727.12	0.03
727.435	0.03
727.751	0.04
728.067	0.04
728.382	0.04
728.697	0.04
729.013	0.04
729.328	0.04
729.643	0.04
729.958	0.04
730.273	0.04
730.588	0.04
730.903	0.04
731.218	0.04
731.533	0.04
731.848	0.04
732.163	0.04
732.477	0.04
732.792	0.04
733.107	0.04
733.421	0.04
733.736	0.04
734.05	0.04
734.364	0.04
734.678	0.04
734.993	0.04
735.307	0.04
735.621	0.04
735.935	0.04
736.249	0.04
736.563	0.04
736.877	0.04
737.19	0.04
737.504	0.04
737.818	0.04
738.131	0.04
738.445	0.05
738.758	0.04
739.072	0.04
739.385	0.04
739.698	0.04
740.012	0.04
740.325	0.04
740.638	0.04
740.951	0.04
741.264	0.03
741.577	0.04
741.89	0.04
742.203	0.04
742.515	0.04
742.828	0.04
743.141	0.04
743.453	0.04
743.766	0.03
744.078	0.03
744.391	0.03
744.703	0.03
745.015	0.03
745.327	0.03
745.639	0.03
745.952	0.03
746.264	0.03
746.575	0.03
746.887	0.03
747.199	0.03
747.511	0.03
747.823	0.03
748.134	0.03
748.446	0.03
748.757	0.03
749.069	0.03
749.38	0.03
749.692	0.03
750.003	0.03
750.314	0.03
750.625	0.03
750.936	0.03
751.248	0.03
751.559	0.03
751.869	0.02
752.18	0.03
752.491	0.03
752.802	0.03
753.112	0.03
753.423	0.02
753.734	0.02
754.044	0.02
754.355	0.02
754.665	0.02
754.975	0.02
755.285	0.02
755.596	0.01
755.906	0.01
756.216	0.02
756.526	0.02
756.836	0.02
757.146	0.02
757.455	0.02
757.765	0.02
758.075	0.01
758.385	0.01
758.694	0.01
759.004	0.01
759.313	0.01
759.622	0.01
759.932	0.01
760.241	0.01
760.55	0.01
760.859	0.01
761.168	0.01
761.477	0.01
761.786	0.02
762.095	0.02
762.404	0.02
762.713	0.02
763.021	0.02
763.33	0.02
763.639	0.02
763.947	0.02
764.256	0.01
764.564	0.02
764.872	0.02
765.181	0.02
765.489	0.02
765.797	0.02
766.105	0.02
766.413	0.02
766.721	0.02
767.029	0.02
767.337	0.02
767.644	0.02
767.952	0.02
768.26	0.01
768.567	0.02
768.875	0.01
769.182	0.01
769.49	0.01
769.797	0.01
770.104	0.02
770.411	0.02
770.718	0.01
771.026	0.01
771.333	0.01
771.639	0.02
771.946	0.01
772.253	0.01
772.56	0.01
772.867	0.01
773.173	0.01
773.48	0.01
773.786	0.01
774.093	0.01
774.399	0.01
774.705	0.01
775.012	0.01
775.318	0.01
775.624	0.01
775.93	0.01
776.236	0.01
776.542	0.01
776.848	0.01
777.154	0.01
777.459	0.01
777.765	0.01
778.071	0.02
778.376	0.02
778.682	0.01
778.987	0.01
779.292	0.01
779.598	0.01
779.903	0.01
780.208	0.01
780.513	0.01
780.818	0
781.123	0.01
781.428	0
781.733	0
782.038	0
782.343	0.01
782.647	0.01
782.952	0.01
783.256	0.01
783.561	0.01
783.865	0.01
784.17	0.01
784.474	0.01
784.778	0.01
785.082	0.01
785.386	0
785.69	0.01
785.994	0
786.298	0
786.602	0
786.906	0
787.209	0.01
787.513	0.01
787.817	0.01
788.12	0.01
788.424	0.01
788.727	0.01
789.03	0.01
789.333	0.01
789.637	0.02
789.94	0.01
790.243	0.02
790.546	0.01
790.849	0.02
791.152	0.01
791.454	0.01
791.757	0.01
792.06	0.01
792.362	0.01
792.665	0.01
792.967	0.01
793.27	0.01
793.572	0.01
793.874	0.01
794.177	0.01
794.479	0.01
794.781	0.01
795.083	0.01
795.385	0.01
795.687	0.01
795.989	0.01
796.29	0.01
796.592	0.01
796.894	0.01
797.195	0.01
797.497	0.01
797.798	0.01
798.1	0.01
798.401	0.01
798.702	0
799.003	0
799.304	0.01
799.605	0.01
799.906	0.01
800.207	0.01
800.508	0.01
800.809	0.01
801.11	0.01
801.41	0.01
801.711	0.01
802.011	0.01
802.312	0.01
802.612	0.01
802.913	0.02
803.213	0.01
803.513	0.01
803.813	0.01
804.113	0.01
804.413	0.01
804.713	0.01
805.013	0.01
805.313	0.01
805.613	0
805.912	0
806.212	0.01
806.511	-0
806.811	0
807.11	-0
807.41	-0
807.709	-0
808.008	-0
808.307	-0
808.606	0
808.905	-0
809.204	0.01
809.503	0
809.802	0.01
810.101	0
810.399	0.01
810.698	0
810.997	0
811.295	0
811.593	0
811.892	0.01
812.19	0
812.488	0.01
812.786	0.01
813.084	0.01
813.383	0.01
813.68	0.01
813.978	0.01
814.276	0.01
814.574	0.01
814.872	0.01
815.169	0.01
815.467	0.01
815.764	0.01
816.062	0.01
816.359	0.01
816.656	0.01
816.954	0.01
817.251	0.01
817.548	0.01
817.845	0
818.142	0
818.439	0
818.735	0.01
819.032	0.01
819.329	0
819.626	-0
819.922	-0
820.219	0
820.515	-0
820.811	0.01
821.108	0
821.404	0
821.7	0
821.996	-0
822.292	0.01
822.588	0
822.884	0.01
823.18	0.01
823.475	0.01
823.771	0.01
824.067	0.01
824.362	0.01
824.658	0.01
824.953	0.02
825.249	0.01
825.544	0.01
825.839	0.01
826.134	-0
826.429	0.01
826.724	0
827.019	0.01
827.314	0
827.609	0.01
827.904	0.01
828.198	0.01
828.493	0.01
828.787	0.01
829.082	0.01
829.376	0.01
829.671	0
829.965	0
830.259	-0
830.553	0.01
830.847	0
831.141	0
831.435	0
831.729	0.01
832.023	-0
832.317	0.01
832.61	0.01
832.904	0.01
833.197	0.02
833.491	0.02
833.784	0.02
834.077	0.02
834.371	0.02
834.664	0.02
834.957	0.02
835.25	0.01
835.543	0.01
835.836	0.02
836.129	0.01
836.421	0.01
836.714	0.01
837.007	0
837.299	0
837.592	0.01
837.884	0
838.177	0.01
838.469	0.01
838.761	-0
839.053	0.01
839.345	0.01
839.637	0
839.929	-0.01
840.221	0
840.513	-0
840.805	0.01
841.096	0.01
841.388	0.01
841.68	0.01
841.971	0.01
842.262	0
842.554	0.01
842.845	0
843.136	0.01
843.427	0.01
843.718	0
844.009	0.01
844.3	0.02
844.591	0.01
844.882	0.01
845.173	0
845.463	0.01
845.754	0
846.044	0
846.335	0.01
846.625	0.01
846.915	0
847.206	0.01
847.496	0.01
847.786	0.01
848.076	0.01
848.366	0.02
848.656	0.02
848.945	0.01
849.235	0.02
849.525	0.02
849.814	0.01
850.104	0.01
850.393	0
850.683	0
850.972	0.02
851.261	0.01
851.551	0
851.84	0
852.129	0
852.418	0
852.707	0.01
852.995	0
853.284	0.01
853.573	-0.01
853.862	0.01
854.15	0
854.439	0.01
854.727	0
855.015	-0
855.304	0.01
855.592	-0
855.88	0.02
856.168	0
856.456	-0.01
856.744	-0
857.032	-0
857.32	0
857.607	-0.01
857.895	0.01
858.183	0
858.47	0.01
858.757	-0.01
859.045	0
859.332	0.01
859.619	0.01
859.907	0
860.194	0
860.481	0.01
860.768	0.02
861.054	-0
861.341	-0.01
861.628	0.01
861.915	0.01
862.201	0.01
862.488	0.01
862.774	0.01
863.061	-0
863.347	0.01
863.633	0
863.919	0.01
864.205	-0
864.491	0.01
864.777	0
865.063	-0.01
865.349	0
865.635	-0.01
865.92	0.03
866.206	0.01
866.492	0.01
866.777	0.04
867.062	-0.01
867.348	0.01
867.633	0
867.918	-0.01
868.203	0.03
868.488	0.02
868.773	0.01
869.058	-0.01
869.343	-0
869.628	-0.01
869.912	-0.02
870.197	0.02
870.482	-0.03
870.766	-0.03
871.05	-0.02
871.335	-0.02
871.619	-0.01
871.903	0.01
872.187	-0.03
872.471	0.02
872.755	0.01
873.039	-0.01
873.323	0.01
873.607	-0.02
873.89	-0.02
874.174	-0.05
874.458	-0.09
874.741	-0.02
875.024	0.02
875.308	-0.07
875.591	0.03
875.874	0.05
876.157	-0
876.44	-0.08
876.723	0.03
877.006	-0.03
877.289	-0.02
877.572	0.02
877.854	-0
878.137	-0.02
878.42	0.02
878.702	-0.02
878.984	-0.05
879.267	-0.05
879.549	0.02
879.831	-0.06
880.113	0.01
880.395	0
880.677	-0.01
880.959	0.02
