Data from Rubpy_EV_1200_EDTA_Buffered_Absorbance_14-38-15-598.txt Node
Date: Tue Jun 30 14:38:15 BST 2026
User: fpm-admin
Spectrometer: OFX00224
Trigger mode: 0
Integration Time (sec): 7.000000E-2
Scans to average: 3
Nonlinearity correction enabled: false
Boxcar width: 0
Storing dark spectrum: false
XAxis mode: Wavelengths
Number of Pixels in Spectrum: 2136
>>>>>Begin Spectral Data<<<<<
154.91	-0.02
155.289	-0
155.669	0.22
156.048	-0.05
156.428	0.13
156.807	1.08
157.186	-0.06
157.566	0.12
157.945	0.05
158.325	-0.43
158.704	0.25
159.083	-0.53
159.462	-0
159.842	-0
160.221	-0
160.6	0.41
160.979	-0.22
161.359	0.52
161.738	-0.45
162.117	-0
162.496	-0
162.875	-0.07
163.254	0.37
163.633	-0.6
164.012	0.61
164.391	-0
164.77	-1.08
165.149	0.02
165.528	-0
165.907	-0.4
166.286	-0
166.665	-0.42
167.044	-0.35
167.423	1.19
167.802	-0
168.181	-0
168.559	0.57
168.938	-0
169.317	-0
169.696	-0.48
170.074	-1.18
170.453	-0
170.832	-0.51
171.21	0.03
171.589	0.85
171.968	-0.12
172.346	0.29
172.725	-0.54
173.103	-0
173.482	-0
173.861	0.02
174.239	0.06
174.617	0.16
174.996	-0.81
175.374	-0.3
175.753	-0
176.131	-0
176.51	-0.6
176.888	-0
177.266	-0
177.645	0.05
178.023	0.85
178.401	-0.37
178.779	0.14
179.158	1.06
179.536	0.04
179.914	0.19
180.292	-0
180.67	-0.48
181.048	-0.61
181.427	-0.15
181.805	0.1
182.183	-0
182.561	-1.34
182.939	-0.6
183.317	-0
183.695	0.18
184.073	-0
184.451	0.54
184.829	0.48
185.206	-0
185.584	-0
185.962	-0.59
186.34	-0
186.718	0.08
187.096	0.67
187.473	-0
187.851	-0
188.229	-0
188.607	0.29
188.984	0.27
189.362	0.27
189.74	0.09
190.117	0.13
190.495	0.11
190.872	0.3
191.25	0.21
191.627	0.43
192.005	0.15
192.382	0.16
192.76	0.11
193.137	0.42
193.515	0.17
193.892	0.26
194.269	0.2
194.647	0.25
195.024	0.21
195.401	0.25
195.779	0.19
196.156	0.18
196.533	0.17
196.91	0.19
197.288	0.13
197.665	0.37
198.042	0.28
198.419	0.26
198.796	0.39
199.173	0.12
199.55	0.23
199.927	0.18
200.304	0.23
200.681	0.28
201.058	0.15
201.435	0.16
201.812	0.24
202.189	0.17
202.566	0.34
202.943	0.31
203.32	0.32
203.697	0.26
204.073	0.41
204.45	0.24
204.827	0.26
205.204	0.19
205.58	0.3
205.957	0.19
206.334	0.19
206.71	0.15
207.087	0.28
207.464	0.22
207.84	0.25
208.217	0.27
208.593	0.29
208.97	0.28
209.346	0.22
209.723	0.29
210.099	0.22
210.476	0.24
210.852	0.2
211.228	0.44
211.605	0.42
211.981	0.24
212.357	0.26
212.733	0.15
213.11	0.26
213.486	0.12
213.862	0.19
214.238	0.34
214.614	0.26
214.991	0.21
215.367	0.33
215.743	0.37
216.119	0.2
216.495	0.28
216.871	0.3
217.247	0.16
217.623	0.24
217.999	0.24
218.375	0.32
218.751	0.26
219.127	0.21
219.502	0.25
219.878	0.25
220.254	0.21
220.63	0.34
221.006	0.22
221.381	0.27
221.757	0.2
222.133	0.27
222.508	0.28
222.884	0.3
223.26	0.19
223.635	0.3
224.011	0.2
224.386	0.18
224.762	0.27
225.137	0.29
225.513	0.23
225.888	0.42
226.264	0.33
226.639	0.34
227.014	0.33
227.39	0.26
227.765	0.21
228.14	0.29
228.516	0.36
228.891	0.24
229.266	0.24
229.641	0.24
230.017	0.29
230.392	0.19
230.767	0.22
231.142	0.23
231.517	0.31
231.892	0.23
232.267	0.29
232.642	0.28
233.017	0.26
233.392	0.29
233.767	0.29
234.142	0.3
234.517	0.18
234.892	0.36
235.267	0.29
235.641	0.23
236.016	0.28
236.391	0.23
236.766	0.27
237.14	0.24
237.515	0.19
237.89	0.26
238.264	0.25
238.639	0.24
239.014	0.28
239.388	0.24
239.763	0.23
240.137	0.28
240.512	0.27
240.886	0.27
241.261	0.23
241.635	0.27
242.009	0.27
242.384	0.3
242.758	0.28
243.132	0.37
243.507	0.24
243.881	0.17
244.255	0.35
244.629	0.28
245.004	0.26
245.378	0.23
245.752	0.23
246.126	0.19
246.5	0.27
246.874	0.23
247.248	0.38
247.622	0.29
247.996	0.18
248.37	0.22
248.744	0.21
249.118	0.28
249.492	0.34
249.866	0.15
250.24	0.28
250.613	0.25
250.987	0.27
251.361	0.29
251.735	0.27
252.108	0.32
252.482	0.39
252.856	0.18
253.229	0.19
253.603	0.19
253.977	0.33
254.35	0.26
254.724	0.29
255.097	0.31
255.471	0.2
255.844	0.32
256.218	0.23
256.591	0.31
256.964	0.21
257.338	0.27
257.711	0.29
258.084	0.35
258.458	0.22
258.831	0.27
259.204	0.25
259.577	0.24
259.95	0.28
260.323	0.33
260.697	0.42
261.07	0.28
261.443	0.24
261.816	0.23
262.189	0.27
262.562	0.26
262.935	0.19
263.308	0.32
263.68	0.15
264.053	0.33
264.426	0.31
264.799	0.35
265.172	0.27
265.545	0.4
265.917	0.23
266.29	0.27
266.663	0.34
267.035	0.26
267.408	0.25
267.781	0.29
268.153	0.35
268.526	0.28
268.898	0.31
269.271	0.23
269.643	0.31
270.016	0.26
270.388	0.32
270.76	0.32
271.133	0.32
271.505	0.3
271.877	0.29
272.25	0.19
272.622	0.26
272.994	0.31
273.366	0.32
273.739	0.29
274.111	0.23
274.483	0.29
274.855	0.2
275.227	0.25
275.599	0.27
275.971	0.24
276.343	0.22
276.715	0.3
277.087	0.31
277.459	0.25
277.831	0.28
278.203	0.25
278.574	0.28
278.946	0.44
279.318	0.24
279.69	0.32
280.061	0.28
280.433	0.34
280.805	0.27
281.176	0.33
281.548	0.24
281.92	0.19
282.291	0.33
282.663	0.27
283.034	0.33
283.406	0.27
283.777	0.4
284.148	0.27
284.52	0.42
284.891	0.31
285.262	0.28
285.634	0.29
286.005	0.35
286.376	0.29
286.747	0.2
287.119	0.31
287.49	0.29
287.861	0.29
288.232	0.27
288.603	0.43
288.974	0.29
289.345	0.36
289.716	0.24
290.087	0.33
290.458	0.32
290.829	0.39
291.2	0.29
291.571	0.32
291.941	0.25
292.312	0.24
292.683	0.34
293.054	0.3
293.424	0.41
293.795	0.31
294.166	0.28
294.536	0.3
294.907	0.32
295.277	0.32
295.648	0.27
296.018	0.26
296.389	0.33
296.759	0.26
297.13	0.28
297.5	0.23
297.871	0.32
298.241	0.28
298.611	0.29
298.981	0.26
299.352	0.26
299.722	0.29
300.092	0.24
300.462	0.27
300.832	0.27
301.202	0.24
301.573	0.21
301.943	0.23
302.313	0.27
302.683	0.25
303.053	0.22
303.422	0.24
303.792	0.25
304.162	0.24
304.532	0.25
304.902	0.26
305.272	0.26
305.641	0.25
306.011	0.25
306.381	0.25
306.75	0.27
307.12	0.27
307.49	0.27
307.859	0.27
308.229	0.28
308.598	0.28
308.968	0.29
309.337	0.29
309.707	0.29
310.076	0.3
310.445	0.3
310.815	0.31
311.184	0.32
311.553	0.32
311.923	0.32
312.292	0.32
312.661	0.33
313.03	0.33
313.399	0.33
313.768	0.33
314.137	0.33
314.506	0.33
314.875	0.33
315.244	0.33
315.613	0.32
315.982	0.32
316.351	0.32
316.72	0.32
317.089	0.32
317.458	0.32
317.826	0.32
318.195	0.32
318.564	0.32
318.933	0.31
319.301	0.31
319.67	0.3
320.038	0.31
320.407	0.31
320.775	0.3
321.144	0.3
321.512	0.29
321.881	0.29
322.249	0.29
322.618	0.29
322.986	0.29
323.354	0.29
323.723	0.29
324.091	0.28
324.459	0.28
324.827	0.28
325.195	0.27
325.564	0.27
325.932	0.28
326.3	0.28
326.668	0.28
327.036	0.28
327.404	0.27
327.772	0.28
328.14	0.28
328.508	0.28
328.875	0.28
329.243	0.28
329.611	0.28
329.979	0.29
330.346	0.29
330.714	0.28
331.082	0.29
331.449	0.29
331.817	0.29
332.185	0.29
332.552	0.29
332.92	0.3
333.287	0.3
333.655	0.31
334.022	0.3
334.389	0.31
334.757	0.31
335.124	0.31
335.491	0.32
335.859	0.32
336.226	0.33
336.593	0.32
336.96	0.33
337.327	0.34
337.695	0.34
338.062	0.34
338.429	0.35
338.796	0.36
339.163	0.36
339.53	0.37
339.897	0.37
340.263	0.38
340.63	0.38
340.997	0.39
341.364	0.4
341.731	0.41
342.097	0.41
342.464	0.42
342.831	0.42
343.197	0.43
343.564	0.44
343.931	0.44
344.297	0.45
344.664	0.46
345.03	0.46
345.396	0.47
345.763	0.48
346.129	0.48
346.496	0.49
346.862	0.5
347.228	0.51
347.594	0.51
347.961	0.52
348.327	0.52
348.693	0.53
349.059	0.54
349.425	0.55
349.791	0.56
350.157	0.57
350.523	0.58
350.889	0.59
351.255	0.6
351.621	0.61
351.987	0.62
352.353	0.63
352.719	0.65
353.084	0.66
353.45	0.67
353.816	0.68
354.181	0.7
354.547	0.71
354.913	0.73
355.278	0.74
355.644	0.75
356.009	0.76
356.375	0.79
356.74	0.8
357.106	0.81
357.471	0.83
357.836	0.84
358.202	0.87
358.567	0.88
358.932	0.9
359.297	0.91
359.663	0.92
360.028	0.94
360.393	0.95
360.758	0.97
361.123	0.97
361.488	0.97
361.853	0.99
362.218	0.99
362.583	1.02
362.948	1.01
363.312	1.02
363.677	1.04
364.042	1.07
364.407	1.08
364.772	1.09
365.136	1.12
365.501	1.12
365.865	1.14
366.23	1.15
366.595	1.19
366.959	1.21
367.324	1.23
367.688	1.25
368.052	1.26
368.417	1.28
368.781	1.3
369.145	1.32
369.51	1.3
369.874	1.32
370.238	1.31
370.602	1.32
370.967	1.3
371.331	1.3
371.695	1.31
372.059	1.29
372.423	1.29
372.787	1.29
373.151	1.28
373.515	1.27
373.878	1.28
374.242	1.28
374.606	1.27
374.97	1.27
375.334	1.27
375.697	1.27
376.061	1.28
376.425	1.29
376.788	1.29
377.152	1.3
377.515	1.31
377.879	1.31
378.242	1.32
378.606	1.34
378.969	1.36
379.333	1.36
379.696	1.39
380.059	1.41
380.422	1.42
380.786	1.44
381.149	1.46
381.512	1.47
381.875	1.53
382.238	1.54
382.601	1.57
382.964	1.61
383.327	1.64
383.69	1.69
384.053	1.71
384.416	1.71
384.779	1.75
385.142	1.76
385.504	1.81
385.867	1.81
386.23	1.84
386.593	1.86
386.955	1.87
387.318	1.85
387.68	1.88
388.043	1.81
388.405	1.85
388.768	1.84
389.13	1.81
389.493	1.79
389.855	1.83
390.217	1.77
390.58	1.77
390.942	1.8
391.304	1.82
391.666	1.82
392.028	1.82
392.391	1.87
392.753	1.91
393.115	1.9
393.477	1.94
393.839	1.97
394.201	2
394.563	2.07
394.924	2.13
395.286	2.15
395.648	2.1
396.01	2.17
396.371	2.16
396.733	2.14
397.095	2.12
397.456	2.15
397.818	2.13
398.18	2.13
398.541	2.08
398.903	2.19
399.264	2.11
399.625	2.06
399.987	2.01
400.348	2.07
400.709	1.99
401.071	1.94
401.432	1.87
401.793	1.77
402.154	1.71
402.515	1.61
402.876	1.56
403.238	1.42
403.599	1.34
403.96	1.26
404.32	1.17
404.681	1.1
405.042	1.03
405.403	0.97
405.764	0.89
406.125	0.84
406.485	0.78
406.846	0.73
407.207	0.69
407.567	0.66
407.928	0.61
408.288	0.58
408.649	0.55
409.009	0.52
409.37	0.48
409.73	0.47
410.091	0.45
410.451	0.42
410.811	0.41
411.171	0.39
411.532	0.38
411.892	0.36
412.252	0.34
412.612	0.33
412.972	0.32
413.332	0.3
413.692	0.29
414.052	0.28
414.412	0.27
414.772	0.27
415.132	0.26
415.492	0.25
415.851	0.25
416.211	0.24
416.571	0.23
416.931	0.22
417.29	0.22
417.65	0.21
418.009	0.21
418.369	0.2
418.728	0.2
419.088	0.2
419.447	0.2
419.807	0.19
420.166	0.19
420.525	0.18
420.884	0.18
421.244	0.17
421.603	0.17
421.962	0.17
422.321	0.16
422.68	0.16
423.039	0.16
423.398	0.16
423.757	0.15
424.116	0.16
424.475	0.15
424.834	0.15
425.193	0.15
425.551	0.15
425.91	0.15
426.269	0.15
426.628	0.14
426.986	0.14
427.345	0.15
427.703	0.14
428.062	0.14
428.42	0.13
428.779	0.14
429.137	0.14
429.496	0.13
429.854	0.13
430.212	0.12
430.57	0.13
430.929	0.14
431.287	0.12
431.645	0.12
432.003	0.12
432.361	0.12
432.719	0.12
433.077	0.12
433.435	0.12
433.793	0.12
434.151	0.11
434.509	0.12
434.866	0.11
435.224	0.11
435.582	0.11
435.94	0.11
436.297	0.1
436.655	0.11
437.012	0.11
437.37	0.11
437.727	0.11
438.085	0.1
438.442	0.11
438.8	0.1
439.157	0.11
439.514	0.1
439.872	0.1
440.229	0.1
440.586	0.1
440.943	0.1
441.3	0.1
441.657	0.1
442.014	0.09
442.371	0.1
442.728	0.1
443.085	0.09
443.442	0.09
443.799	0.08
444.156	0.09
444.513	0.09
444.869	0.1
445.226	0.09
445.583	0.09
445.939	0.08
446.296	0.09
446.652	0.09
447.009	0.09
447.365	0.09
447.722	0.09
448.078	0.08
448.434	0.08
448.791	0.09
449.147	0.08
449.503	0.08
449.859	0.09
450.215	0.08
450.571	0.08
450.928	0.08
451.284	0.07
451.64	0.07
451.995	0.07
452.351	0.07
452.707	0.07
453.063	0.07
453.419	0.07
453.775	0.07
454.13	0.06
454.486	0.06
454.842	0.06
455.197	0.06
455.553	0.07
455.908	0.07
456.264	0.06
456.619	0.06
456.975	0.06
457.33	0.06
457.685	0.05
458.04	0.05
458.396	0.05
458.751	0.05
459.106	0.05
459.461	0.05
459.816	0.04
460.171	0.04
460.526	0.05
460.881	0.04
461.236	0.04
461.591	0.03
461.946	0.03
462.301	0.03
462.655	0.03
463.01	0.03
463.365	0.03
463.719	0.02
464.074	0.02
464.428	0.02
464.783	0.02
465.137	0.02
465.492	0.02
465.846	0.02
466.201	0.01
466.555	0.02
466.909	0.02
467.263	0.02
467.618	0.02
467.972	0.03
468.326	0.02
468.68	0.01
469.034	0.01
469.388	0.01
469.742	0.02
470.096	0.01
470.45	0.02
470.804	0.02
471.157	0.02
471.511	0.02
471.865	0.02
472.218	0.02
472.572	0.03
472.926	0.03
473.279	0.03
473.633	0.04
473.986	0.04
474.34	0.04
474.693	0.04
475.046	0.05
475.4	0.05
475.753	0.06
476.106	0.07
476.459	0.06
476.812	0.07
477.165	0.07
477.519	0.07
477.872	0.09
478.224	0.08
478.577	0.09
478.93	0.09
479.283	0.09
479.636	0.1
479.989	0.1
480.341	0.1
480.694	0.1
481.047	0.11
481.399	0.11
481.752	0.12
482.104	0.12
482.457	0.12
482.809	0.12
483.162	0.12
483.514	0.13
483.866	0.12
484.219	0.13
484.571	0.13
484.923	0.13
485.275	0.13
485.627	0.14
485.979	0.14
486.331	0.14
486.683	0.14
487.035	0.15
487.387	0.15
487.739	0.15
488.091	0.15
488.443	0.16
488.794	0.15
489.146	0.17
489.498	0.16
489.849	0.17
490.201	0.16
490.552	0.17
490.904	0.17
491.255	0.17
491.607	0.17
491.958	0.18
492.309	0.18
492.661	0.18
493.012	0.18
493.363	0.19
493.714	0.19
494.065	0.19
494.416	0.19
494.767	0.19
495.118	0.19
495.469	0.2
495.82	0.2
496.171	0.2
496.522	0.21
496.872	0.21
497.223	0.21
497.574	0.21
497.924	0.21
498.275	0.22
498.626	0.22
498.976	0.23
499.327	0.23
499.677	0.23
500.027	0.23
500.378	0.23
500.728	0.24
501.078	0.24
501.428	0.25
501.779	0.24
502.129	0.25
502.479	0.25
502.829	0.25
503.179	0.25
503.529	0.26
503.879	0.26
504.229	0.26
504.578	0.27
504.928	0.26
505.278	0.27
505.628	0.27
505.977	0.28
506.327	0.29
506.676	0.28
507.026	0.28
507.375	0.28
507.725	0.29
508.074	0.29
508.424	0.29
508.773	0.3
509.122	0.3
509.471	0.3
509.82	0.3
510.17	0.31
510.519	0.31
510.868	0.32
511.217	0.32
511.566	0.32
511.915	0.32
512.263	0.32
512.612	0.33
512.961	0.33
513.31	0.33
513.659	0.34
514.007	0.33
514.356	0.34
514.704	0.34
515.053	0.35
515.401	0.35
515.75	0.35
516.098	0.35
516.447	0.36
516.795	0.36
517.143	0.36
517.491	0.36
517.839	0.36
518.188	0.37
518.536	0.37
518.884	0.37
519.232	0.38
519.58	0.38
519.928	0.38
520.275	0.39
520.623	0.39
520.971	0.39
521.319	0.4
521.666	0.4
522.014	0.4
522.362	0.4
522.709	0.41
523.057	0.4
523.404	0.41
523.752	0.41
524.099	0.41
524.446	0.42
524.794	0.42
525.141	0.42
525.488	0.43
525.835	0.43
526.182	0.43
526.529	0.44
526.876	0.44
527.223	0.45
527.57	0.44
527.917	0.45
528.264	0.45
528.611	0.45
528.958	0.46
529.304	0.46
529.651	0.46
529.998	0.46
530.344	0.46
530.691	0.47
531.037	0.48
531.384	0.48
531.73	0.48
532.076	0.48
532.423	0.49
532.769	0.49
533.115	0.49
533.461	0.49
533.807	0.49
534.154	0.5
534.5	0.51
534.846	0.51
535.192	0.51
535.537	0.52
535.883	0.52
536.229	0.52
536.575	0.53
536.921	0.53
537.266	0.53
537.612	0.54
537.957	0.54
538.303	0.55
538.649	0.55
538.994	0.55
539.339	0.56
539.685	0.57
540.03	0.57
540.375	0.57
540.721	0.57
541.066	0.57
541.411	0.58
541.756	0.58
542.101	0.58
542.446	0.59
542.791	0.6
543.136	0.6
543.481	0.6
543.825	0.61
544.17	0.61
544.515	0.62
544.86	0.62
545.204	0.63
545.549	0.62
545.893	0.63
546.238	0.64
546.582	0.64
546.927	0.65
547.271	0.65
547.615	0.65
547.96	0.65
548.304	0.66
548.648	0.66
548.992	0.67
549.336	0.67
549.68	0.67
550.024	0.68
550.368	0.68
550.712	0.69
551.056	0.69
551.4	0.7
551.743	0.69
552.087	0.7
552.431	0.7
552.774	0.7
553.118	0.7
553.462	0.7
553.805	0.71
554.148	0.71
554.492	0.72
554.835	0.71
555.178	0.72
555.522	0.72
555.865	0.72
556.208	0.72
556.551	0.73
556.894	0.73
557.237	0.73
557.58	0.73
557.923	0.74
558.266	0.74
558.609	0.74
558.952	0.75
559.294	0.74
559.637	0.74
559.98	0.74
560.322	0.75
560.665	0.75
561.007	0.75
561.35	0.76
561.692	0.76
562.034	0.76
562.377	0.77
562.719	0.76
563.061	0.77
563.403	0.77
563.745	0.77
564.088	0.77
564.43	0.77
564.772	0.77
565.113	0.78
565.455	0.77
565.797	0.77
566.139	0.78
566.481	0.78
566.822	0.78
567.164	0.78
567.506	0.78
567.847	0.78
568.189	0.79
568.53	0.78
568.872	0.79
569.213	0.79
569.554	0.79
569.895	0.79
570.237	0.79
570.578	0.79
570.919	0.79
571.26	0.79
571.601	0.79
571.942	0.79
572.283	0.79
572.624	0.79
572.965	0.79
573.306	0.79
573.646	0.79
573.987	0.79
574.328	0.79
574.668	0.79
575.009	0.8
575.349	0.8
575.69	0.79
576.03	0.8
576.37	0.79
576.711	0.79
577.051	0.79
577.391	0.8
577.731	0.8
578.072	0.8
578.412	0.8
578.752	0.8
579.092	0.8
579.431	0.8
579.771	0.78
580.111	0.77
580.451	0.77
580.791	0.8
581.13	0.81
581.47	0.8
581.81	0.81
582.149	0.81
582.489	0.81
582.828	0.81
583.167	0.78
583.507	0.75
583.846	0.73
584.185	0.76
584.525	0.79
584.864	0.81
585.203	0.82
585.542	0.83
585.881	0.83
586.22	0.84
586.559	0.83
586.898	0.83
587.236	0.82
587.575	0.82
587.914	0.82
588.252	0.84
588.591	0.85
588.93	0.85
589.268	0.85
589.607	0.85
589.945	0.86
590.283	0.86
590.622	0.87
590.96	0.87
591.298	0.88
591.636	0.88
591.974	0.89
592.313	0.88
592.651	0.9
592.989	0.89
593.326	0.9
593.664	0.9
594.002	0.91
594.34	0.91
594.678	0.9
595.015	0.91
595.353	0.9
595.691	0.91
596.028	0.93
596.366	0.93
596.703	0.93
597.04	0.94
597.378	0.94
597.715	0.94
598.052	0.94
598.389	0.95
598.726	0.95
599.064	0.96
599.401	0.95
599.738	0.96
600.074	0.96
600.411	0.96
600.748	0.96
601.085	0.96
601.422	0.96
601.758	0.97
602.095	0.96
602.432	0.96
602.768	0.97
603.105	0.97
603.441	0.97
603.777	0.97
604.114	0.97
604.45	0.97
604.786	0.97
605.122	0.97
605.459	0.97
605.795	0.96
606.131	0.96
606.467	0.97
606.803	0.97
607.139	0.97
607.474	0.96
607.81	0.96
608.146	0.96
608.482	0.96
608.817	0.95
609.153	0.96
609.488	0.94
609.824	0.95
610.159	0.95
610.495	0.94
610.83	0.95
611.165	0.95
611.5	0.94
611.836	0.94
612.171	0.94
612.506	0.93
612.841	0.94
613.176	0.93
613.511	0.92
613.845	0.92
614.18	0.92
614.515	0.92
614.85	0.91
615.184	0.91
615.519	0.91
615.854	0.9
616.188	0.91
616.523	0.91
616.857	0.9
617.191	0.89
617.526	0.9
617.86	0.89
618.194	0.89
618.528	0.89
618.862	0.89
619.196	0.88
619.53	0.89
619.864	0.88
620.198	0.88
620.532	0.87
620.866	0.87
621.2	0.87
621.533	0.87
621.867	0.87
622.201	0.86
622.534	0.86
622.868	0.86
623.201	0.86
623.534	0.85
623.868	0.84
624.201	0.85
624.534	0.84
624.868	0.84
625.201	0.84
625.534	0.83
625.867	0.83
626.2	0.82
626.533	0.82
626.865	0.82
627.198	0.81
627.531	0.81
627.864	0.81
628.196	0.8
628.529	0.8
628.862	0.8
629.194	0.8
629.527	0.79
629.859	0.78
630.191	0.78
630.524	0.77
630.856	0.77
631.188	0.77
631.52	0.76
631.852	0.75
632.184	0.75
632.516	0.74
632.848	0.74
633.18	0.73
633.512	0.73
633.844	0.72
634.175	0.72
634.507	0.72
634.839	0.7
635.17	0.7
635.502	0.7
635.833	0.69
636.165	0.68
636.496	0.67
636.827	0.67
637.159	0.66
637.49	0.66
637.821	0.66
638.152	0.65
638.483	0.64
638.814	0.64
639.145	0.64
639.476	0.64
639.807	0.63
640.137	0.63
640.468	0.62
640.799	0.62
641.129	0.61
641.46	0.61
641.791	0.6
642.121	0.6
642.451	0.59
642.782	0.59
643.112	0.59
643.442	0.58
643.773	0.58
644.103	0.57
644.433	0.57
644.763	0.57
645.093	0.57
645.423	0.56
645.753	0.56
646.082	0.55
646.412	0.55
646.742	0.55
647.072	0.55
647.401	0.55
647.731	0.55
648.06	0.54
648.39	0.54
648.719	0.54
649.048	0.54
649.378	0.53
649.707	0.53
650.036	0.53
650.365	0.53
650.694	0.52
651.023	0.52
651.352	0.52
651.681	0.51
652.01	0.52
652.339	0.52
652.668	0.52
652.996	0.52
653.325	0.52
653.654	0.52
653.982	0.51
654.311	0.51
654.639	0.51
654.967	0.51
655.296	0.51
655.624	0.51
655.952	0.51
656.28	0.51
656.609	0.51
656.937	0.51
657.265	0.51
657.593	0.42
657.92	0.29
658.248	0.24
658.576	0.25
658.904	0.35
659.231	0.45
659.559	0.5
659.887	0.5
660.214	0.5
660.542	0.5
660.869	0.5
661.196	0.5
661.524	0.5
661.851	0.5
662.178	0.5
662.505	0.5
662.832	0.5
663.159	0.5
663.486	0.5
663.813	0.5
664.14	0.49
664.467	0.5
664.794	0.5
665.12	0.5
665.447	0.49
665.774	0.49
666.1	0.49
666.427	0.48
666.753	0.48
667.079	0.48
667.406	0.48
667.732	0.48
668.058	0.48
668.384	0.48
668.71	0.48
669.036	0.48
669.362	0.47
669.688	0.47
670.014	0.47
670.34	0.47
670.666	0.47
670.991	0.46
671.317	0.46
671.643	0.46
671.968	0.46
672.294	0.46
672.619	0.45
672.945	0.45
673.27	0.45
673.595	0.44
673.92	0.44
674.246	0.44
674.571	0.43
674.896	0.43
675.221	0.43
675.546	0.43
675.87	0.43
676.195	0.42
676.52	0.42
676.845	0.41
677.169	0.41
677.494	0.41
677.819	0.41
678.143	0.4
678.468	0.4
678.792	0.4
679.116	0.4
679.44	0.39
679.765	0.39
680.089	0.38
680.413	0.38
680.737	0.38
681.061	0.37
681.385	0.37
681.709	0.37
682.033	0.36
682.356	0.36
682.68	0.36
683.004	0.35
683.327	0.35
683.651	0.34
683.974	0.34
684.298	0.34
684.621	0.34
684.944	0.33
685.268	0.33
685.591	0.33
685.914	0.32
686.237	0.32
686.56	0.31
686.883	0.31
687.206	0.3
687.529	0.3
687.852	0.3
688.175	0.3
688.497	0.3
688.82	0.3
689.142	0.29
689.465	0.29
689.787	0.29
690.11	0.28
690.432	0.28
690.755	0.28
691.077	0.27
691.399	0.27
691.721	0.26
692.043	0.26
692.365	0.26
692.687	0.25
693.009	0.25
693.331	0.25
693.653	0.25
693.974	0.24
694.296	0.24
694.618	0.24
694.939	0.24
695.261	0.24
695.582	0.23
695.904	0.22
696.225	0.22
696.546	0.23
696.868	0.22
697.189	0.22
697.51	0.22
697.831	0.21
698.152	0.21
698.473	0.21
698.794	0.2
699.114	0.2
699.435	0.19
699.756	0.19
700.077	0.19
700.397	0.19
700.718	0.19
701.038	0.19
701.359	0.19
701.679	0.19
701.999	0.19
702.32	0.18
702.64	0.18
702.96	0.18
703.28	0.18
703.6	0.18
703.92	0.18
704.24	0.18
704.56	0.17
704.879	0.17
705.199	0.18
705.519	0.18
705.838	0.18
706.158	0.18
706.478	0.17
706.797	0.17
707.116	0.17
707.436	0.17
707.755	0.17
708.074	0.17
708.393	0.16
708.712	0.16
709.031	0.15
709.35	0.15
709.669	0.15
709.988	0.15
710.307	0.15
710.626	0.16
710.944	0.16
711.263	0.16
711.582	0.16
711.9	0.16
712.219	0.16
712.537	0.16
712.855	0.16
713.174	0.16
713.492	0.16
713.81	0.16
714.128	0.16
714.446	0.16
714.764	0.16
715.082	0.15
715.4	0.16
715.718	0.16
716.035	0.16
716.353	0.16
716.671	0.16
716.988	0.16
717.306	0.16
717.623	0.16
717.941	0.16
718.258	0.16
718.575	0.16
718.893	0.16
719.21	0.16
719.527	0.16
719.844	0.16
720.161	0.16
720.478	0.16
720.795	0.16
721.112	0.16
721.428	0.16
721.745	0.17
722.062	0.16
722.378	0.17
722.695	0.17
723.011	0.17
723.328	0.16
723.644	0.17
723.96	0.17
724.276	0.17
724.593	0.17
724.909	0.17
725.225	0.17
725.541	0.17
725.857	0.17
726.173	0.17
726.488	0.17
726.804	0.17
727.12	0.17
727.435	0.17
727.751	0.18
728.067	0.17
728.382	0.18
728.697	0.17
729.013	0.18
729.328	0.18
729.643	0.18
729.958	0.18
730.273	0.18
730.588	0.18
730.903	0.18
731.218	0.18
731.533	0.18
731.848	0.18
732.163	0.18
732.477	0.18
732.792	0.18
733.107	0.17
733.421	0.18
733.736	0.18
734.05	0.18
734.364	0.18
734.678	0.18
734.993	0.18
735.307	0.18
735.621	0.18
735.935	0.18
736.249	0.18
736.563	0.18
736.877	0.18
737.19	0.18
737.504	0.18
737.818	0.18
738.131	0.18
738.445	0.18
738.758	0.18
739.072	0.18
739.385	0.18
739.698	0.18
740.012	0.17
740.325	0.17
740.638	0.17
740.951	0.17
741.264	0.16
741.577	0.17
741.89	0.17
742.203	0.17
742.515	0.17
742.828	0.16
743.141	0.16
743.453	0.16
743.766	0.16
744.078	0.16
744.391	0.16
744.703	0.16
745.015	0.15
745.327	0.15
745.639	0.15
745.952	0.15
746.264	0.15
746.575	0.15
746.887	0.15
747.199	0.14
747.511	0.14
747.823	0.14
748.134	0.14
748.446	0.14
748.757	0.14
749.069	0.13
749.38	0.13
749.692	0.13
750.003	0.13
750.314	0.13
750.625	0.13
750.936	0.12
751.248	0.12
751.559	0.12
751.869	0.12
752.18	0.12
752.491	0.12
752.802	0.12
753.112	0.11
753.423	0.11
753.734	0.11
754.044	0.11
754.355	0.11
754.665	0.1
754.975	0.1
755.285	0.1
755.596	0.1
755.906	0.1
756.216	0.1
756.526	0.1
756.836	0.09
757.146	0.09
757.455	0.09
757.765	0.09
758.075	0.09
758.385	0.08
758.694	0.08
759.004	0.08
759.313	0.08
759.622	0.08
759.932	0.08
760.241	0.08
760.55	0.07
760.859	0.07
761.168	0.07
761.477	0.07
761.786	0.07
762.095	0.07
762.404	0.07
762.713	0.07
763.021	0.07
763.33	0.07
763.639	0.07
763.947	0.07
764.256	0.07
764.564	0.07
764.872	0.07
765.181	0.07
765.489	0.07
765.797	0.07
766.105	0.07
766.413	0.06
766.721	0.07
767.029	0.06
767.337	0.06
767.644	0.06
767.952	0.06
768.26	0.06
768.567	0.06
768.875	0.06
769.182	0.05
769.49	0.06
769.797	0.06
770.104	0.05
770.411	0.06
770.718	0.06
771.026	0.06
771.333	0.06
771.639	0.06
771.946	0.06
772.253	0.06
772.56	0.06
772.867	0.05
773.173	0.05
773.48	0.05
773.786	0.05
774.093	0.05
774.399	0.05
774.705	0.05
775.012	0.05
775.318	0.05
775.624	0.05
775.93	0.05
776.236	0.05
776.542	0.05
776.848	0.05
777.154	0.05
777.459	0.05
777.765	0.05
778.071	0.05
778.376	0.05
778.682	0.04
778.987	0.05
779.292	0.04
779.598	0.04
779.903	0.04
780.208	0.04
780.513	0.04
780.818	0.04
781.123	0.04
781.428	0.04
781.733	0.04
782.038	0.04
782.343	0.04
782.647	0.04
782.952	0.04
783.256	0.04
783.561	0.04
783.865	0.05
784.17	0.04
784.474	0.04
784.778	0.04
785.082	0.05
785.386	0.04
785.69	0.05
785.994	0.04
786.298	0.04
786.602	0.05
786.906	0.04
787.209	0.04
787.513	0.04
787.817	0.04
788.12	0.05
788.424	0.04
788.727	0.04
789.03	0.05
789.333	0.05
789.637	0.05
789.94	0.05
790.243	0.05
790.546	0.05
790.849	0.04
791.152	0.05
791.454	0.05
791.757	0.05
792.06	0.05
792.362	0.04
792.665	0.04
792.967	0.04
793.27	0.04
793.572	0.04
793.874	0.04
794.177	0.04
794.479	0.04
794.781	0.05
795.083	0.04
795.385	0.04
795.687	0.04
795.989	0.04
796.29	0.04
796.592	0.04
796.894	0.04
797.195	0.05
797.497	0.05
797.798	0.05
798.1	0.04
798.401	0.04
798.702	0.04
799.003	0.05
799.304	0.05
799.605	0.05
799.906	0.05
800.207	0.04
800.508	0.04
800.809	0.04
801.11	0.04
801.41	0.04
801.711	0.05
802.011	0.05
802.312	0.05
802.612	0.05
802.913	0.05
803.213	0.05
803.513	0.04
803.813	0.04
804.113	0.04
804.413	0.04
804.713	0.04
805.013	0.04
805.313	0.04
805.613	0.04
805.912	0.04
806.212	0.04
806.511	0.03
806.811	0.03
807.11	0.03
807.41	0.03
807.709	0.03
808.008	0.03
808.307	0.03
808.606	0.04
808.905	0.03
809.204	0.04
809.503	0.04
809.802	0.04
810.101	0.04
810.399	0.04
810.698	0.04
810.997	0.03
811.295	0.04
811.593	0.04
811.892	0.04
812.19	0.04
812.488	0.04
812.786	0.04
813.084	0.04
813.383	0.04
813.68	0.04
813.978	0.04
814.276	0.04
814.574	0.04
814.872	0.04
815.169	0.04
815.467	0.05
815.764	0.04
816.062	0.04
816.359	0.05
816.656	0.04
816.954	0.04
817.251	0.04
817.548	0.04
817.845	0.04
818.142	0.04
818.439	0.04
818.735	0.04
819.032	0.04
819.329	0.04
819.626	0.04
819.922	0.04
820.219	0.04
820.515	0.04
820.811	0.04
821.108	0.04
821.404	0.05
821.7	0.05
821.996	0.04
822.292	0.05
822.588	0.04
822.884	0.05
823.18	0.05
823.475	0.05
823.771	0.04
824.067	0.05
824.362	0.05
824.658	0.05
824.953	0.05
825.249	0.05
825.544	0.05
825.839	0.05
826.134	0.04
826.429	0.05
826.724	0.04
827.019	0.05
827.314	0.04
827.609	0.04
827.904	0.05
828.198	0.05
828.493	0.04
828.787	0.05
829.082	0.05
829.376	0.04
829.671	0.04
829.965	0.04
830.259	0.04
830.553	0.04
830.847	0.04
831.141	0.05
831.435	0.04
831.729	0.04
832.023	0.04
832.317	0.05
832.61	0.05
832.904	0.05
833.197	0.05
833.491	0.06
833.784	0.06
834.077	0.05
834.371	0.04
834.664	0.06
834.957	0.05
835.25	0.05
835.543	0.05
835.836	0.05
836.129	0.06
836.421	0.06
836.714	0.05
837.007	0.05
837.299	0.05
837.592	0.05
837.884	0.04
838.177	0.05
838.469	0.05
838.761	0.04
839.053	0.05
839.345	0.04
839.637	0.04
839.929	0.03
840.221	0.04
840.513	0.03
840.805	0.04
841.096	0.04
841.388	0.05
841.68	0.05
841.971	0.04
842.262	0.04
842.554	0.05
842.845	0.04
843.136	0.05
843.427	0.05
843.718	0.04
844.009	0.04
844.3	0.05
844.591	0.04
844.882	0.04
845.173	0.05
845.463	0.04
845.754	0.05
846.044	0.05
846.335	0.04
846.625	0.05
846.915	0.05
847.206	0.04
847.496	0.04
847.786	0.05
848.076	0.04
848.366	0.04
848.656	0.05
848.945	0.05
849.235	0.05
849.525	0.05
849.814	0.04
850.104	0.05
850.393	0.04
850.683	0.04
850.972	0.06
851.261	0.06
851.551	0.05
851.84	0.04
852.129	0.05
852.418	0.04
852.707	0.05
852.995	0.04
853.284	0.04
853.573	0.03
853.862	0.04
854.15	0.04
854.439	0.05
854.727	0.04
855.015	0.04
855.304	0.02
855.592	0.04
855.88	0.06
856.168	0.04
856.456	0.03
856.744	0.05
857.032	0.02
857.32	0.05
857.607	0.04
857.895	0.05
858.183	0.05
858.47	0.06
858.757	0.04
859.045	0.03
859.332	0.05
859.619	0.04
859.907	0.04
860.194	0.05
860.481	0.04
860.768	0.04
861.054	0.03
861.341	0.03
861.628	0.05
861.915	0.03
862.201	0.06
862.488	0.05
862.774	0.06
863.061	0.03
863.347	0.05
863.633	0.05
863.919	0.04
864.205	0.03
864.491	0.03
864.777	0.03
865.063	0.02
865.349	0.04
865.635	0.03
865.92	0.04
866.206	0.05
866.492	0.06
866.777	0.05
867.062	0.03
867.348	0.04
867.633	0.02
867.918	0.01
868.203	0.04
868.488	0.05
868.773	0.04
869.058	0.05
869.343	0.07
869.628	0.02
869.912	0.03
870.197	0.03
870.482	0.01
870.766	-0
871.05	0.03
871.335	0
871.619	0.04
871.903	0.02
872.187	-0.01
872.471	-0.01
872.755	0.03
873.039	-0
873.323	0.03
873.607	-0.03
873.89	0.01
874.174	-0.06
874.458	-0.05
874.741	0.01
875.024	-0.02
875.308	-0.02
875.591	0.02
875.874	0.07
876.157	-0.03
876.44	-0.02
876.723	0.07
877.006	0.04
877.289	0.02
877.572	0.08
877.854	0.05
878.137	-0.03
878.42	-0.03
878.702	0.03
878.984	-0.06
879.267	-0.04
879.549	0.04
879.831	0.01
880.113	-0
880.395	0.02
880.677	0.06
880.959	-0.01
