Data from Rubpy_EV_1200_EDTA_Buffered_Absorbance_14-12-16-686.txt Node
Date: Tue Jun 30 14:12:16 BST 2026
User: fpm-admin
Spectrometer: OFX00224
Trigger mode: 0
Integration Time (sec): 7.000000E-2
Scans to average: 3
Nonlinearity correction enabled: false
Boxcar width: 0
Storing dark spectrum: false
XAxis mode: Wavelengths
Number of Pixels in Spectrum: 2136
>>>>>Begin Spectral Data<<<<<
154.91	-0.02
155.289	0.08
155.669	-0.45
156.048	-0.12
156.428	-0
156.807	-0.16
157.186	-0.2
157.566	-0
157.945	0.2
158.325	-0.23
158.704	0.41
159.083	-0
159.462	-0
159.842	0.03
160.221	0.88
160.6	0.81
160.979	-0.03
161.359	-0.11
161.738	-0
162.117	-0
162.496	0.64
162.875	-0.48
163.254	0.08
163.633	-0
164.012	1.25
164.391	0.67
164.77	-1.36
165.149	0.45
165.528	-0
165.907	-0.08
166.286	-0
166.665	-0.42
167.044	-0.54
167.423	-0
167.802	-0
168.181	-0
168.559	0.33
168.938	-0.06
169.317	-0
169.696	-1
170.074	-0
170.453	-0
170.832	-0
171.21	-0.07
171.589	-0
171.968	-0
172.346	-0
172.725	-0.85
173.103	-0
173.482	0.23
173.861	-0
174.239	0.12
174.617	0.16
174.996	-0.48
175.374	-0.05
175.753	-0.6
176.131	-0
176.51	-0.55
176.888	-0
177.266	-0
177.645	-0.2
178.023	1.38
178.401	-0.12
178.779	-0.02
179.158	0.76
179.536	0.64
179.914	-0.13
180.292	-0.35
180.67	0.43
181.048	-0.32
181.427	0.26
181.805	-0.1
182.183	-0.23
182.561	-0.3
182.939	-0
183.317	0.15
183.695	0.22
184.073	-0.83
184.451	-0.3
184.829	0.28
185.206	0.44
185.584	-0
185.962	-0.44
186.34	-0
186.718	1.23
187.096	-0
187.473	0.53
187.851	-0
188.229	-0.06
188.607	0.04
188.984	-0
189.362	0.05
189.74	0.04
190.117	-0
190.495	-0.03
190.872	-0.01
191.25	0.02
191.627	0.11
192.005	0.07
192.382	0.02
192.76	0.01
193.137	0.07
193.515	0.16
193.892	-0.07
194.269	0.01
194.647	0.07
195.024	0.08
195.401	0.1
195.779	0.09
196.156	-0.01
196.533	0.07
196.91	0.09
197.288	0.04
197.665	0.16
198.042	0.1
198.419	0.05
198.796	0.08
199.173	0.07
199.55	-0.02
199.927	0.06
200.304	-0.02
200.681	0.12
201.058	-0
201.435	-0.06
201.812	0.12
202.189	0.17
202.566	0.1
202.943	0.15
203.32	0.16
203.697	0.08
204.073	0.04
204.45	0.08
204.827	0.06
205.204	0.06
205.58	0.06
205.957	0.1
206.334	0.08
206.71	0.03
207.087	0.14
207.464	0.07
207.84	0.08
208.217	0.09
208.593	-0
208.97	0.03
209.346	0.09
209.723	0.16
210.099	0.1
210.476	0.11
210.852	0.06
211.228	0.19
211.605	0.23
211.981	0.08
212.357	0.1
212.733	0.1
213.11	0.17
213.486	-0.01
213.862	0.13
214.238	0.15
214.614	0.07
214.991	0.07
215.367	0.13
215.743	0.2
216.119	0.12
216.495	0.12
216.871	0.13
217.247	0.03
217.623	0.04
217.999	0.06
218.375	0.05
218.751	0.04
219.127	0.1
219.502	0.03
219.878	0.11
220.254	0.11
220.63	0.1
221.006	0.09
221.381	0.11
221.757	0.04
222.133	0.1
222.508	0.07
222.884	0.11
223.26	0.16
223.635	0.07
224.011	0.04
224.386	0.1
224.762	0.06
225.137	0.06
225.513	0.11
225.888	0.15
226.264	0.06
226.639	0.08
227.014	0.16
227.39	0.15
227.765	0.03
228.14	0.12
228.516	0.05
228.891	-0.03
229.266	0.13
229.641	0.09
230.017	0.05
230.392	0
230.767	0.2
231.142	0.04
231.517	0.13
231.892	0.04
232.267	0.1
232.642	0.11
233.017	0.06
233.392	0.1
233.767	0.04
234.142	0.08
234.517	0.12
234.892	0.14
235.267	0.01
235.641	0.12
236.016	0
236.391	0.05
236.766	0
237.14	0.11
237.515	0.11
237.89	0.04
238.264	0.11
238.639	0.08
239.014	0.14
239.388	0.07
239.763	0.12
240.137	0.03
240.512	0
240.886	0.06
241.261	0.03
241.635	0.04
242.009	0.1
242.384	0.01
242.758	0.12
243.132	0.11
243.507	0.08
243.881	0.03
244.255	0.13
244.629	0.08
245.004	0.05
245.378	0.07
245.752	0.13
246.126	0.01
246.5	0.11
246.874	0.14
247.248	0.07
247.622	0.08
247.996	0.12
248.37	0.04
248.744	0.1
249.118	0.03
249.492	0.12
249.866	0.04
250.24	0.13
250.613	0.2
250.987	0.06
251.361	0.06
251.735	0.07
252.108	0.13
252.482	0.08
252.856	0.02
253.229	0.11
253.603	0.08
253.977	0.11
254.35	0.03
254.724	0.14
255.097	0.04
255.471	0.1
255.844	0.16
256.218	0.09
256.591	0.03
256.964	0.14
257.338	0.06
257.711	0.12
258.084	0.12
258.458	0.11
258.831	0.05
259.204	0.09
259.577	0.07
259.95	0.06
260.323	0.17
260.697	0.1
261.07	0.05
261.443	0.07
261.816	0.11
262.189	0.11
262.562	0.01
262.935	0.02
263.308	0.11
263.68	0.04
264.053	0.12
264.426	0.08
264.799	0.09
265.172	0.12
265.545	0.07
265.917	0.09
266.29	0.09
266.663	0.12
267.035	0.07
267.408	0.16
267.781	0.08
268.153	0.1
268.526	0.15
268.898	0.04
269.271	0.09
269.643	0.06
270.016	0.09
270.388	0.12
270.76	0.12
271.133	0.13
271.505	0.08
271.877	0.03
272.25	0.05
272.622	0.1
272.994	0.1
273.366	0.09
273.739	0.08
274.111	0.05
274.483	0.1
274.855	0.06
275.227	0.02
275.599	0.09
275.971	0.09
276.343	0.03
276.715	0.12
277.087	0.13
277.459	0.06
277.831	0.08
278.203	0.04
278.574	0.1
278.946	0.12
279.318	0.09
279.69	0.1
280.061	0.12
280.433	0.18
280.805	0.1
281.176	0.15
281.548	0.05
281.92	0.06
282.291	0.09
282.663	0.07
283.034	0.1
283.406	0.15
283.777	0.1
284.148	0.13
284.52	0.15
284.891	0.09
285.262	0.09
285.634	0.1
286.005	0.14
286.376	0.05
286.747	0.11
287.119	0.1
287.49	0.09
287.861	0.08
288.232	0.1
288.603	0.11
288.974	0.06
289.345	0.15
289.716	0.06
290.087	0.12
290.458	0.07
290.829	0.1
291.2	0.11
291.571	0.08
291.941	0.05
292.312	0.08
292.683	0.12
293.054	0.08
293.424	0.07
293.795	0.08
294.166	0.11
294.536	0.08
294.907	0.12
295.277	0.06
295.648	0.1
296.018	0.1
296.389	0.13
296.759	0.08
297.13	0.08
297.5	0.03
297.871	0.09
298.241	0.09
298.611	0.11
298.981	0.09
299.352	0.04
299.722	0.07
300.092	0.08
300.462	0.07
300.832	0.1
301.202	0.06
301.573	0.03
301.943	0.05
302.313	0.08
302.683	0.07
303.053	0.04
303.422	0.06
303.792	0.07
304.162	0.06
304.532	0.06
304.902	0.06
305.272	0.07
305.641	0.06
306.011	0.06
306.381	0.06
306.75	0.06
307.12	0.07
307.49	0.07
307.859	0.06
308.229	0.06
308.598	0.07
308.968	0.07
309.337	0.07
309.707	0.07
310.076	0.07
310.445	0.06
310.815	0.07
311.184	0.07
311.553	0.07
311.923	0.07
312.292	0.07
312.661	0.07
313.03	0.07
313.399	0.08
313.768	0.07
314.137	0.07
314.506	0.08
314.875	0.08
315.244	0.07
315.613	0.07
315.982	0.07
316.351	0.08
316.72	0.07
317.089	0.07
317.458	0.07
317.826	0.07
318.195	0.07
318.564	0.07
318.933	0.06
319.301	0.07
319.67	0.06
320.038	0.06
320.407	0.07
320.775	0.07
321.144	0.06
321.512	0.06
321.881	0.06
322.249	0.07
322.618	0.06
322.986	0.06
323.354	0.07
323.723	0.06
324.091	0.06
324.459	0.06
324.827	0.05
325.195	0.06
325.564	0.05
325.932	0.06
326.3	0.06
326.668	0.06
327.036	0.06
327.404	0.06
327.772	0.06
328.14	0.06
328.508	0.06
328.875	0.06
329.243	0.05
329.611	0.05
329.979	0.06
330.346	0.06
330.714	0.06
331.082	0.06
331.449	0.05
331.817	0.06
332.185	0.05
332.552	0.06
332.92	0.06
333.287	0.06
333.655	0.06
334.022	0.06
334.389	0.06
334.757	0.06
335.124	0.06
335.491	0.07
335.859	0.06
336.226	0.07
336.593	0.07
336.96	0.07
337.327	0.07
337.695	0.07
338.062	0.07
338.429	0.06
338.796	0.07
339.163	0.07
339.53	0.07
339.897	0.07
340.263	0.07
340.63	0.08
340.997	0.08
341.364	0.08
341.731	0.08
342.097	0.08
342.464	0.08
342.831	0.08
343.197	0.08
343.564	0.09
343.931	0.09
344.297	0.09
344.664	0.09
345.03	0.09
345.396	0.09
345.763	0.09
346.129	0.09
346.496	0.1
346.862	0.1
347.228	0.1
347.594	0.1
347.961	0.1
348.327	0.11
348.693	0.11
349.059	0.11
349.425	0.11
349.791	0.11
350.157	0.12
350.523	0.12
350.889	0.11
351.255	0.12
351.621	0.12
351.987	0.12
352.353	0.13
352.719	0.13
353.084	0.13
353.45	0.13
353.816	0.14
354.181	0.14
354.547	0.14
354.913	0.14
355.278	0.15
355.644	0.15
356.009	0.16
356.375	0.16
356.74	0.16
357.106	0.16
357.471	0.17
357.836	0.17
358.202	0.18
358.567	0.18
358.932	0.18
359.297	0.19
359.663	0.19
360.028	0.19
360.393	0.2
360.758	0.2
361.123	0.2
361.488	0.21
361.853	0.21
362.218	0.21
362.583	0.21
362.948	0.21
363.312	0.22
363.677	0.22
364.042	0.23
364.407	0.23
364.772	0.23
365.136	0.24
365.501	0.24
365.865	0.25
366.23	0.26
366.595	0.26
366.959	0.27
367.324	0.27
367.688	0.28
368.052	0.28
368.417	0.28
368.781	0.29
369.145	0.3
369.51	0.3
369.874	0.3
370.238	0.29
370.602	0.3
370.967	0.3
371.331	0.29
371.695	0.29
372.059	0.3
372.423	0.29
372.787	0.29
373.151	0.29
373.515	0.3
373.878	0.29
374.242	0.29
374.606	0.29
374.97	0.29
375.334	0.3
375.697	0.3
376.061	0.3
376.425	0.3
376.788	0.3
377.152	0.3
377.515	0.31
377.879	0.31
378.242	0.31
378.606	0.32
378.969	0.32
379.333	0.32
379.696	0.33
380.059	0.34
380.422	0.35
380.786	0.35
381.149	0.35
381.512	0.37
381.875	0.37
382.238	0.38
382.601	0.4
382.964	0.4
383.327	0.42
383.69	0.43
384.053	0.43
384.416	0.45
384.779	0.45
385.142	0.47
385.504	0.48
385.867	0.48
386.23	0.49
386.593	0.49
386.955	0.49
387.318	0.49
387.68	0.49
388.043	0.49
388.405	0.49
388.768	0.48
389.13	0.48
389.493	0.47
389.855	0.47
390.217	0.47
390.58	0.47
390.942	0.47
391.304	0.48
391.666	0.48
392.028	0.49
392.391	0.51
392.753	0.52
393.115	0.53
393.477	0.55
393.839	0.57
394.201	0.6
394.563	0.62
394.924	0.65
395.286	0.67
395.648	0.7
396.01	0.72
396.371	0.74
396.733	0.76
397.095	0.77
397.456	0.77
397.818	0.77
398.18	0.76
398.541	0.75
398.903	0.74
399.264	0.72
399.625	0.69
399.987	0.67
400.348	0.63
400.709	0.6
401.071	0.57
401.432	0.54
401.793	0.5
402.154	0.47
402.515	0.43
402.876	0.4
403.238	0.38
403.599	0.35
403.96	0.32
404.32	0.3
404.681	0.28
405.042	0.26
405.403	0.23
405.764	0.22
406.125	0.21
406.485	0.2
406.846	0.18
407.207	0.17
407.567	0.16
407.928	0.15
408.288	0.14
408.649	0.13
409.009	0.13
409.37	0.12
409.73	0.12
410.091	0.11
410.451	0.1
410.811	0.1
411.171	0.1
411.532	0.09
411.892	0.08
412.252	0.08
412.612	0.08
412.972	0.08
413.332	0.08
413.692	0.07
414.052	0.07
414.412	0.06
414.772	0.06
415.132	0.06
415.492	0.06
415.851	0.06
416.211	0.05
416.571	0.06
416.931	0.06
417.29	0.05
417.65	0.05
418.009	0.05
418.369	0.05
418.728	0.05
419.088	0.05
419.447	0.06
419.807	0.05
420.166	0.04
420.525	0.05
420.884	0.04
421.244	0.04
421.603	0.04
421.962	0.05
422.321	0.04
422.68	0.04
423.039	0.04
423.398	0.03
423.757	0.04
424.116	0.03
424.475	0.03
424.834	0.04
425.193	0.03
425.551	0.03
425.91	0.03
426.269	0.03
426.628	0.04
426.986	0.04
427.345	0.03
427.703	0.03
428.062	0.04
428.42	0.03
428.779	0.03
429.137	0.03
429.496	0.03
429.854	0.03
430.212	0.03
430.57	0.03
430.929	0.04
431.287	0.03
431.645	0.03
432.003	0.02
432.361	0.02
432.719	0.02
433.077	0.03
433.435	0.03
433.793	0.03
434.151	0.02
434.509	0.03
434.866	0.03
435.224	0.03
435.582	0.02
435.94	0.02
436.297	0.03
436.655	0.03
437.012	0.03
437.37	0.03
437.727	0.02
438.085	0.02
438.442	0.02
438.8	0.02
439.157	0.02
439.514	0.03
439.872	0.02
440.229	0.03
440.586	0.02
440.943	0.02
441.3	0.02
441.657	0.02
442.014	0.02
442.371	0.02
442.728	0.02
443.085	0.02
443.442	0.02
443.799	0.01
444.156	0.02
444.513	0.02
444.869	0.02
445.226	0.02
445.583	0.02
445.939	0.01
446.296	0.01
446.652	0.02
447.009	0.02
447.365	0.01
447.722	0.02
448.078	0.01
448.434	0.01
448.791	0.01
449.147	0.01
449.503	0.02
449.859	0.01
450.215	0.01
450.571	0.02
450.928	0.01
451.284	0.01
451.64	0
451.995	0.01
452.351	0.01
452.707	0
453.063	0.01
453.419	0.01
453.775	0
454.13	-0
454.486	-0
454.842	-0
455.197	-0.01
455.553	-0
455.908	-0.01
456.264	-0.01
456.619	-0
456.975	-0.01
457.33	-0.01
457.685	-0.02
458.04	-0.02
458.396	-0.03
458.751	-0.02
459.106	-0.02
459.461	-0.02
459.816	-0.02
460.171	-0.03
460.526	-0.02
460.881	-0.03
461.236	-0.03
461.591	-0.03
461.946	-0.04
462.301	-0.03
462.655	-0.03
463.01	-0.04
463.365	-0.03
463.719	-0.04
464.074	-0.05
464.428	-0.04
464.783	-0.05
465.137	-0.05
465.492	-0.05
465.846	-0.04
466.201	-0.05
466.555	-0.05
466.909	-0.05
467.263	-0.05
467.618	-0.05
467.972	-0.05
468.326	-0.06
468.68	-0.05
469.034	-0.06
469.388	-0.06
469.742	-0.06
470.096	-0.06
470.45	-0.06
470.804	-0.06
471.157	-0.05
471.511	-0.05
471.865	-0.05
472.218	-0.06
472.572	-0.05
472.926	-0.05
473.279	-0.05
473.633	-0.05
473.986	-0.04
474.34	-0.05
474.693	-0.04
475.046	-0.03
475.4	-0.03
475.753	-0.03
476.106	-0.02
476.459	-0.03
476.812	-0.02
477.165	-0.02
477.519	-0.02
477.872	-0.01
478.224	-0.01
478.577	-0.02
478.93	-0.01
479.283	-0.01
479.636	-0.01
479.989	-0
480.341	-0.01
480.694	-0
481.047	-0
481.399	-0
481.752	0
482.104	0
482.457	0
482.809	0.01
483.162	0.01
483.514	0.01
483.866	0.01
484.219	0.01
484.571	0.01
484.923	0.01
485.275	0.01
485.627	0.02
485.979	0.01
486.331	0.02
486.683	0.02
487.035	0.01
487.387	0.02
487.739	0.02
488.091	0.02
488.443	0.01
488.794	0.02
489.146	0.02
489.498	0.02
489.849	0.02
490.201	0.02
490.552	0.02
490.904	0.02
491.255	0.02
491.607	0.03
491.958	0.03
492.309	0.02
492.661	0.03
493.012	0.03
493.363	0.03
493.714	0.03
494.065	0.03
494.416	0.03
494.767	0.03
495.118	0.03
495.469	0.04
495.82	0.03
496.171	0.03
496.522	0.04
496.872	0.03
497.223	0.04
497.574	0.03
497.924	0.04
498.275	0.04
498.626	0.04
498.976	0.04
499.327	0.04
499.677	0.04
500.027	0.04
500.378	0.04
500.728	0.04
501.078	0.05
501.428	0.04
501.779	0.04
502.129	0.04
502.479	0.05
502.829	0.05
503.179	0.05
503.529	0.05
503.879	0.05
504.229	0.05
504.578	0.05
504.928	0.05
505.278	0.05
505.628	0.05
505.977	0.05
506.327	0.05
506.676	0.05
507.026	0.05
507.375	0.05
507.725	0.06
508.074	0.06
508.424	0.05
508.773	0.06
509.122	0.06
509.471	0.06
509.82	0.06
510.17	0.06
510.519	0.06
510.868	0.06
511.217	0.06
511.566	0.06
511.915	0.06
512.263	0.07
512.612	0.07
512.961	0.07
513.31	0.07
513.659	0.07
514.007	0.07
514.356	0.07
514.704	0.07
515.053	0.07
515.401	0.07
515.75	0.07
516.098	0.07
516.447	0.07
516.795	0.08
517.143	0.07
517.491	0.07
517.839	0.07
518.188	0.08
518.536	0.08
518.884	0.08
519.232	0.08
519.58	0.08
519.928	0.08
520.275	0.08
520.623	0.08
520.971	0.08
521.319	0.08
521.666	0.09
522.014	0.08
522.362	0.08
522.709	0.08
523.057	0.09
523.404	0.08
523.752	0.09
524.099	0.08
524.446	0.09
524.794	0.09
525.141	0.09
525.488	0.09
525.835	0.09
526.182	0.09
526.529	0.09
526.876	0.09
527.223	0.09
527.57	0.09
527.917	0.09
528.264	0.09
528.611	0.1
528.958	0.1
529.304	0.1
529.651	0.1
529.998	0.1
530.344	0.1
530.691	0.1
531.037	0.1
531.384	0.1
531.73	0.11
532.076	0.1
532.423	0.1
532.769	0.11
533.115	0.11
533.461	0.11
533.807	0.11
534.154	0.11
534.5	0.11
534.846	0.11
535.192	0.11
535.537	0.11
535.883	0.11
536.229	0.11
536.575	0.11
536.921	0.12
537.266	0.12
537.612	0.12
537.957	0.12
538.303	0.12
538.649	0.12
538.994	0.12
539.339	0.12
539.685	0.13
540.03	0.13
540.375	0.13
540.721	0.13
541.066	0.13
541.411	0.12
541.756	0.12
542.101	0.13
542.446	0.13
542.791	0.13
543.136	0.13
543.481	0.13
543.825	0.13
544.17	0.13
544.515	0.13
544.86	0.14
545.204	0.14
545.549	0.14
545.893	0.14
546.238	0.14
546.582	0.14
546.927	0.15
547.271	0.15
547.615	0.14
547.96	0.15
548.304	0.15
548.648	0.15
548.992	0.15
549.336	0.15
549.68	0.15
550.024	0.15
550.368	0.15
550.712	0.15
551.056	0.16
551.4	0.16
551.743	0.16
552.087	0.16
552.431	0.16
552.774	0.16
553.118	0.16
553.462	0.16
553.805	0.16
554.148	0.16
554.492	0.16
554.835	0.16
555.178	0.16
555.522	0.16
555.865	0.16
556.208	0.16
556.551	0.16
556.894	0.17
557.237	0.17
557.58	0.17
557.923	0.17
558.266	0.17
558.609	0.17
558.952	0.17
559.294	0.17
559.637	0.17
559.98	0.17
560.322	0.17
560.665	0.17
561.007	0.17
561.35	0.18
561.692	0.18
562.034	0.18
562.377	0.18
562.719	0.17
563.061	0.17
563.403	0.18
563.745	0.17
564.088	0.17
564.43	0.17
564.772	0.17
565.113	0.18
565.455	0.18
565.797	0.17
566.139	0.18
566.481	0.18
566.822	0.18
567.164	0.18
567.506	0.18
567.847	0.18
568.189	0.18
568.53	0.18
568.872	0.18
569.213	0.18
569.554	0.18
569.895	0.18
570.237	0.18
570.578	0.18
570.919	0.18
571.26	0.18
571.601	0.18
571.942	0.18
572.283	0.18
572.624	0.18
572.965	0.18
573.306	0.18
573.646	0.18
573.987	0.18
574.328	0.18
574.668	0.18
575.009	0.18
575.349	0.18
575.69	0.18
576.03	0.18
576.37	0.18
576.711	0.17
577.051	0.17
577.391	0.18
577.731	0.18
578.072	0.18
578.412	0.18
578.752	0.18
579.092	0.18
579.431	0.17
579.771	0.15
580.111	0.14
580.451	0.15
580.791	0.17
581.13	0.18
581.47	0.18
581.81	0.18
582.149	0.18
582.489	0.18
582.828	0.18
583.167	0.15
583.507	0.12
583.846	0.1
584.185	0.13
584.525	0.15
584.864	0.17
585.203	0.18
585.542	0.19
585.881	0.19
586.22	0.19
586.559	0.19
586.898	0.18
587.236	0.17
587.575	0.16
587.914	0.17
588.252	0.19
588.591	0.19
588.93	0.2
589.268	0.19
589.607	0.19
589.945	0.19
590.283	0.19
590.622	0.19
590.96	0.2
591.298	0.2
591.636	0.2
591.974	0.2
592.313	0.2
592.651	0.21
592.989	0.2
593.326	0.21
593.664	0.21
594.002	0.21
594.34	0.2
594.678	0.2
595.015	0.2
595.353	0.19
595.691	0.2
596.028	0.21
596.366	0.21
596.703	0.21
597.04	0.21
597.378	0.22
597.715	0.22
598.052	0.22
598.389	0.22
598.726	0.22
599.064	0.22
599.401	0.22
599.738	0.22
600.074	0.23
600.411	0.22
600.748	0.22
601.085	0.22
601.422	0.21
601.758	0.22
602.095	0.22
602.432	0.22
602.768	0.22
603.105	0.22
603.441	0.22
603.777	0.23
604.114	0.23
604.45	0.23
604.786	0.23
605.122	0.23
605.459	0.23
605.795	0.22
606.131	0.22
606.467	0.23
606.803	0.23
607.139	0.23
607.474	0.23
607.81	0.22
608.146	0.22
608.482	0.23
608.817	0.22
609.153	0.22
609.488	0.22
609.824	0.22
610.159	0.22
610.495	0.22
610.83	0.22
611.165	0.22
611.5	0.22
611.836	0.22
612.171	0.22
612.506	0.22
612.841	0.22
613.176	0.22
613.511	0.22
613.845	0.22
614.18	0.22
614.515	0.22
614.85	0.22
615.184	0.21
615.519	0.22
615.854	0.21
616.188	0.22
616.523	0.21
616.857	0.21
617.191	0.21
617.526	0.21
617.86	0.21
618.194	0.21
618.528	0.21
618.862	0.21
619.196	0.21
619.53	0.21
619.864	0.21
620.198	0.21
620.532	0.21
620.866	0.21
621.2	0.21
621.533	0.21
621.867	0.21
622.201	0.21
622.534	0.21
622.868	0.2
623.201	0.21
623.534	0.2
623.868	0.2
624.201	0.2
624.534	0.2
624.868	0.2
625.201	0.2
625.534	0.2
625.867	0.2
626.2	0.2
626.533	0.2
626.865	0.2
627.198	0.19
627.531	0.19
627.864	0.19
628.196	0.19
628.529	0.19
628.862	0.19
629.194	0.19
629.527	0.19
629.859	0.19
630.191	0.19
630.524	0.19
630.856	0.19
631.188	0.18
631.52	0.18
631.852	0.18
632.184	0.18
632.516	0.18
632.848	0.18
633.18	0.17
633.512	0.18
633.844	0.17
634.175	0.17
634.507	0.17
634.839	0.16
635.17	0.16
635.502	0.16
635.833	0.17
636.165	0.16
636.496	0.16
636.827	0.16
637.159	0.16
637.49	0.16
637.821	0.15
638.152	0.15
638.483	0.15
638.814	0.15
639.145	0.15
639.476	0.15
639.807	0.15
640.137	0.15
640.468	0.15
640.799	0.15
641.129	0.15
641.46	0.14
641.791	0.14
642.121	0.14
642.451	0.14
642.782	0.14
643.112	0.14
643.442	0.14
643.773	0.14
644.103	0.14
644.433	0.14
644.763	0.14
645.093	0.14
645.423	0.14
645.753	0.13
646.082	0.13
646.412	0.13
646.742	0.13
647.072	0.13
647.401	0.13
647.731	0.13
648.06	0.13
648.39	0.13
648.719	0.13
649.048	0.13
649.378	0.13
649.707	0.13
650.036	0.12
650.365	0.12
650.694	0.12
651.023	0.12
651.352	0.12
651.681	0.12
652.01	0.12
652.339	0.12
652.668	0.12
652.996	0.12
653.325	0.12
653.654	0.12
653.982	0.12
654.311	0.12
654.639	0.12
654.967	0.12
655.296	0.12
655.624	0.12
655.952	0.12
656.28	0.12
656.609	0.12
656.937	0.12
657.265	0.13
657.593	0.05
657.92	0
658.248	0
658.576	0
658.904	0
659.231	0.07
659.559	0.11
659.887	0.11
660.214	0.11
660.542	0.12
660.869	0.12
661.196	0.12
661.524	0.12
661.851	0.12
662.178	0.12
662.505	0.12
662.832	0.12
663.159	0.12
663.486	0.12
663.813	0.12
664.14	0.12
664.467	0.12
664.794	0.12
665.12	0.12
665.447	0.12
665.774	0.12
666.1	0.11
666.427	0.12
666.753	0.11
667.079	0.11
667.406	0.11
667.732	0.11
668.058	0.11
668.384	0.11
668.71	0.11
669.036	0.11
669.362	0.11
669.688	0.11
670.014	0.11
670.34	0.11
670.666	0.11
670.991	0.11
671.317	0.11
671.643	0.11
671.968	0.11
672.294	0.11
672.619	0.11
672.945	0.11
673.27	0.11
673.595	0.11
673.92	0.1
674.246	0.1
674.571	0.1
674.896	0.1
675.221	0.1
675.546	0.1
675.87	0.1
676.195	0.1
676.52	0.09
676.845	0.09
677.169	0.09
677.494	0.09
677.819	0.09
678.143	0.09
678.468	0.09
678.792	0.09
679.116	0.09
679.44	0.09
679.765	0.09
680.089	0.08
680.413	0.08
680.737	0.08
681.061	0.08
681.385	0.09
681.709	0.09
682.033	0.09
682.356	0.08
682.68	0.08
683.004	0.08
683.327	0.08
683.651	0.08
683.974	0.08
684.298	0.08
684.621	0.08
684.944	0.08
685.268	0.07
685.591	0.07
685.914	0.08
686.237	0.07
686.56	0.07
686.883	0.07
687.206	0.07
687.529	0.07
687.852	0.07
688.175	0.07
688.497	0.07
688.82	0.07
689.142	0.07
689.465	0.07
689.787	0.07
690.11	0.07
690.432	0.06
690.755	0.06
691.077	0.06
691.399	0.06
691.721	0.06
692.043	0.06
692.365	0.06
692.687	0.06
693.009	0.06
693.331	0.06
693.653	0.06
693.974	0.06
694.296	0.05
694.618	0.05
694.939	0.06
695.261	0.06
695.582	0.05
695.904	0.05
696.225	0.05
696.546	0.05
696.868	0.05
697.189	0.05
697.51	0.05
697.831	0.05
698.152	0.05
698.473	0.05
698.794	0.05
699.114	0.05
699.435	0.04
699.756	0.04
700.077	0.04
700.397	0.04
700.718	0.04
701.038	0.04
701.359	0.04
701.679	0.04
701.999	0.04
702.32	0.03
702.64	0.04
702.96	0.04
703.28	0.04
703.6	0.04
703.92	0.04
704.24	0.04
704.56	0.04
704.879	0.04
705.199	0.04
705.519	0.04
705.838	0.04
706.158	0.04
706.478	0.04
706.797	0.04
707.116	0.04
707.436	0.03
707.755	0.03
708.074	0.04
708.393	0.03
708.712	0.03
709.031	0.03
709.35	0.03
709.669	0.03
709.988	0.03
710.307	0.03
710.626	0.03
710.944	0.03
711.263	0.03
711.582	0.04
711.9	0.04
712.219	0.04
712.537	0.04
712.855	0.04
713.174	0.04
713.492	0.04
713.81	0.04
714.128	0.04
714.446	0.04
714.764	0.04
715.082	0.03
715.4	0.03
715.718	0.03
716.035	0.03
716.353	0.04
716.671	0.03
716.988	0.03
717.306	0.03
717.623	0.03
717.941	0.04
718.258	0.04
718.575	0.04
718.893	0.04
719.21	0.04
719.527	0.04
719.844	0.04
720.161	0.04
720.478	0.03
720.795	0.04
721.112	0.04
721.428	0.04
721.745	0.04
722.062	0.04
722.378	0.03
722.695	0.03
723.011	0.03
723.328	0.03
723.644	0.03
723.96	0.03
724.276	0.03
724.593	0.03
724.909	0.03
725.225	0.03
725.541	0.03
725.857	0.03
726.173	0.03
726.488	0.03
726.804	0.03
727.12	0.03
727.435	0.04
727.751	0.04
728.067	0.04
728.382	0.04
728.697	0.04
729.013	0.04
729.328	0.04
729.643	0.04
729.958	0.05
730.273	0.04
730.588	0.04
730.903	0.04
731.218	0.04
731.533	0.04
731.848	0.04
732.163	0.04
732.477	0.04
732.792	0.04
733.107	0.04
733.421	0.04
733.736	0.04
734.05	0.04
734.364	0.04
734.678	0.04
734.993	0.04
735.307	0.04
735.621	0.04
735.935	0.04
736.249	0.04
736.563	0.05
736.877	0.05
737.19	0.04
737.504	0.04
737.818	0.05
738.131	0.05
738.445	0.05
738.758	0.05
739.072	0.05
739.385	0.04
739.698	0.04
740.012	0.04
740.325	0.04
740.638	0.04
740.951	0.04
741.264	0.04
741.577	0.04
741.89	0.04
742.203	0.04
742.515	0.04
742.828	0.04
743.141	0.04
743.453	0.04
743.766	0.04
744.078	0.04
744.391	0.04
744.703	0.03
745.015	0.03
745.327	0.03
745.639	0.03
745.952	0.03
746.264	0.03
746.575	0.03
746.887	0.03
747.199	0.03
747.511	0.03
747.823	0.03
748.134	0.03
748.446	0.03
748.757	0.04
749.069	0.03
749.38	0.03
749.692	0.03
750.003	0.03
750.314	0.03
750.625	0.03
750.936	0.03
751.248	0.03
751.559	0.03
751.869	0.03
752.18	0.03
752.491	0.03
752.802	0.03
753.112	0.03
753.423	0.03
753.734	0.02
754.044	0.02
754.355	0.02
754.665	0.02
754.975	0.02
755.285	0.02
755.596	0.02
755.906	0.02
756.216	0.02
756.526	0.02
756.836	0.02
757.146	0.02
757.455	0.02
757.765	0.02
758.075	0.02
758.385	0.01
758.694	0.01
759.004	0.01
759.313	0.01
759.622	0.01
759.932	0.01
760.241	0.02
760.55	0.01
760.859	0.02
761.168	0.02
761.477	0.01
761.786	0.02
762.095	0.02
762.404	0.02
762.713	0.02
763.021	0.02
763.33	0.02
763.639	0.02
763.947	0.02
764.256	0.02
764.564	0.02
764.872	0.02
765.181	0.02
765.489	0.02
765.797	0.02
766.105	0.02
766.413	0.02
766.721	0.02
767.029	0.02
767.337	0.02
767.644	0.02
767.952	0.02
768.26	0.01
768.567	0.02
768.875	0.01
769.182	0.01
769.49	0.02
769.797	0.01
770.104	0.02
770.411	0.02
770.718	0.02
771.026	0.02
771.333	0.02
771.639	0.02
771.946	0.01
772.253	0.02
772.56	0.01
772.867	0.01
773.173	0.01
773.48	0.01
773.786	0.01
774.093	0.01
774.399	0.01
774.705	0.02
775.012	0.01
775.318	0.01
775.624	0.01
775.93	0.01
776.236	0.01
776.542	0.02
776.848	0.01
777.154	0.01
777.459	0.01
777.765	0.02
778.071	0.02
778.376	0.01
778.682	0.01
778.987	0.01
779.292	0.01
779.598	0.01
779.903	0.01
780.208	0.01
780.513	0.01
780.818	0
781.123	0.01
781.428	0.01
781.733	0.01
782.038	0.01
782.343	0.01
782.647	0.01
782.952	0.01
783.256	0.01
783.561	0.01
783.865	0.01
784.17	0.01
784.474	0.01
784.778	0.01
785.082	0.01
785.386	0
785.69	0
785.994	0
786.298	0.01
786.602	0.01
786.906	0
787.209	0.01
787.513	0.01
787.817	0.01
788.12	0.01
788.424	0.01
788.727	0.01
789.03	0.01
789.333	0.02
789.637	0.02
789.94	0.02
790.243	0.02
790.546	0.02
790.849	0.02
791.152	0.01
791.454	0.01
791.757	0.01
792.06	0.02
792.362	0.01
792.665	0.01
792.967	0.01
793.27	0.01
793.572	0.01
793.874	0.01
794.177	0.01
794.479	0.01
794.781	0.01
795.083	0.01
795.385	0.01
795.687	0.01
795.989	0.01
796.29	0.01
796.592	0.01
796.894	0.01
797.195	0.01
797.497	0.01
797.798	0.01
798.1	0.01
798.401	0.01
798.702	0
799.003	0.01
799.304	0.01
799.605	0.01
799.906	0.01
800.207	0.01
800.508	0.01
800.809	0.01
801.11	0.01
801.41	0.01
801.711	0.01
802.011	0.01
802.312	0.01
802.612	0.01
802.913	0.02
803.213	0.01
803.513	0.01
803.813	0.01
804.113	0.01
804.413	0.01
804.713	0.01
805.013	0.01
805.313	0.01
805.613	0.01
805.912	0.01
806.212	0
806.511	-0
806.811	0
807.11	-0
807.41	-0
807.709	-0
808.008	-0
808.307	-0
808.606	-0
808.905	-0
809.204	0.01
809.503	0.01
809.802	0.01
810.101	0
810.399	0.01
810.698	0
810.997	0
811.295	0.01
811.593	0.01
811.892	0.01
812.19	0.01
812.488	0.01
812.786	0.01
813.084	0.01
813.383	0.01
813.68	0.01
813.978	0.01
814.276	0.01
814.574	0.01
814.872	0.01
815.169	0.01
815.467	0.01
815.764	0.01
816.062	0.01
816.359	0.01
816.656	0.01
816.954	0.01
817.251	0.01
817.548	0
817.845	0
818.142	0.01
818.439	0
818.735	0.01
819.032	0.01
819.329	0
819.626	-0
819.922	-0
820.219	0
820.515	-0
820.811	0
821.108	0
821.404	0
821.7	0
821.996	0
822.292	0.01
822.588	0
822.884	0.01
823.18	0.01
823.475	0.01
823.771	0.01
824.067	0.01
824.362	0.01
824.658	0.01
824.953	0.01
825.249	0.01
825.544	0.01
825.839	0.01
826.134	0
826.429	0.01
826.724	0.01
827.019	0.01
827.314	0.01
827.609	0
827.904	0.01
828.198	0.01
828.493	0.01
828.787	0.01
829.082	0.01
829.376	0.01
829.671	0
829.965	0.01
830.259	0
830.553	0.01
830.847	0
831.141	0.01
831.435	0.01
831.729	0
832.023	0
832.317	0.01
832.61	0.01
832.904	0.01
833.197	0.02
833.491	0.02
833.784	0.03
834.077	0.02
834.371	0.01
834.664	0.02
834.957	0.02
835.25	0.01
835.543	0.02
835.836	0.02
836.129	0.02
836.421	0.02
836.714	0.01
837.007	0.01
837.299	0.01
837.592	0.01
837.884	0
838.177	0.01
838.469	0.01
838.761	0
839.053	0.01
839.345	0.01
839.637	0
839.929	-0.01
840.221	-0
840.513	-0
840.805	0
841.096	0.01
841.388	0.02
841.68	0.01
841.971	0.01
842.262	0
842.554	0.01
842.845	-0
843.136	0.01
843.427	0.02
843.718	-0
844.009	0.01
844.3	0.02
844.591	0.01
844.882	0.02
845.173	0.01
845.463	0.01
845.754	0.01
846.044	0
846.335	0
846.625	0.01
846.915	0.01
847.206	0.01
847.496	0.01
847.786	0.01
848.076	0.01
848.366	0.01
848.656	0.01
848.945	0.01
849.235	0.02
849.525	0.02
849.814	0.01
850.104	0.01
850.393	0.01
850.683	0
850.972	0.01
851.261	0.02
851.551	0
851.84	-0
852.129	0
852.418	0
852.707	0.01
852.995	0
853.284	0.01
853.573	0
853.862	0
854.15	-0
854.439	0.01
854.727	0.01
855.015	0
855.304	0
855.592	-0.01
855.88	0.01
856.168	0
856.456	0.01
856.744	0.01
857.032	-0
857.32	0.01
857.607	0
857.895	0
858.183	0.01
858.47	0.02
858.757	-0
859.045	0.01
859.332	0.01
859.619	0.01
859.907	0.01
860.194	0.02
860.481	0.01
860.768	0.01
861.054	0
861.341	0
861.628	0.01
861.915	0
862.201	0.03
862.488	0.04
862.774	0
863.061	0
863.347	0.01
863.633	0.02
863.919	0.02
864.205	0.03
864.491	0.01
864.777	0.02
865.063	-0
865.349	-0.01
865.635	0.01
865.92	0.01
866.206	0.02
866.492	0.01
866.777	0.02
867.062	0.02
867.348	-0
867.633	0.02
867.918	-0.04
868.203	0.03
868.488	0.01
868.773	-0
869.058	-0.01
869.343	0.01
869.628	-0.01
869.912	-0.03
870.197	-0
870.482	-0
870.766	-0.02
871.05	-0.04
871.335	0.01
871.619	0.01
871.903	-0.01
872.187	-0.01
872.471	0.02
872.755	0.06
873.039	0
873.323	0.01
873.607	0.02
873.89	0.02
874.174	-0.03
874.458	-0.08
874.741	-0.01
875.024	0.03
875.308	-0.07
875.591	0.03
875.874	0.03
876.157	-0.04
876.44	0.01
876.723	0.01
877.006	-0.03
877.289	-0.06
877.572	0.04
877.854	-0.03
878.137	-0.02
878.42	-0.04
878.702	-0.02
878.984	-0.05
879.267	-0.02
879.549	0.05
879.831	-0.05
880.113	0.02
880.395	0.01
880.677	-0.05
880.959	-0.11
