Data from Rubpy_EV_1200_EDTA_Buffered_Absorbance_14-37-27-777.txt Node
Date: Tue Jun 30 14:37:27 BST 2026
User: fpm-admin
Spectrometer: OFX00224
Trigger mode: 0
Integration Time (sec): 7.000000E-2
Scans to average: 3
Nonlinearity correction enabled: false
Boxcar width: 0
Storing dark spectrum: false
XAxis mode: Wavelengths
Number of Pixels in Spectrum: 2136
>>>>>Begin Spectral Data<<<<<
154.91	-0.09
155.289	0.22
155.669	0.04
156.048	0.05
156.428	-0.03
156.807	0.43
157.186	-0.08
157.566	0.3
157.945	-0
158.325	-0.29
158.704	-0.13
159.083	-0
159.462	1.34
159.842	-0.11
160.221	-0
160.6	-0.14
160.979	0.15
161.359	-0.26
161.738	-0.68
162.117	-0.1
162.496	0.34
162.875	-0.41
163.254	-0.03
163.633	-0
164.012	0.05
164.391	0.09
164.77	-1.4
165.149	-0.1
165.528	-0
165.907	-0.59
166.286	-0
166.665	-0.43
167.044	-0.48
167.423	-0.12
167.802	-0
168.181	-0
168.559	-0
168.938	-0.55
169.317	-0.25
169.696	-0.3
170.074	-0
170.453	-0.26
170.832	-0.6
171.21	-0.2
171.589	-0
171.968	-0
172.346	-0
172.725	-0.18
173.103	-0
173.482	0.33
173.861	-0.33
174.239	-0
174.617	-0.19
174.996	-0.92
175.374	-0.4
175.753	-0.7
176.131	-0
176.51	-0
176.888	-0
177.266	-0
177.645	0.08
178.023	0.5
178.401	-0.42
178.779	0.02
179.158	1.36
179.536	-0.01
179.914	-0.31
180.292	-0.51
180.67	0.2
181.048	-0.32
181.427	0.37
181.805	-0.1
182.183	-0
182.561	-1.15
182.939	-0
183.317	-0.19
183.695	0.51
184.073	-0.3
184.451	-0.33
184.829	0.67
185.206	0.13
185.584	0.31
185.962	-0.65
186.34	-0
186.718	-0
187.096	-0.11
187.473	-0
187.851	0.2
188.229	-0
188.607	0.15
188.984	0.26
189.362	0.3
189.74	0.18
190.117	0.12
190.495	0.11
190.872	0.18
191.25	0.38
191.627	0.26
192.005	0.25
192.382	0.15
192.76	0.11
193.137	0.31
193.515	0.24
193.892	0.07
194.269	0.16
194.647	0.14
195.024	0.3
195.401	0.24
195.779	0.2
196.156	0.16
196.533	0.11
196.91	0.22
197.288	0.15
197.665	0.55
198.042	0.34
198.419	0.39
198.796	0.32
199.173	0.21
199.55	0.21
199.927	0.19
200.304	0.11
200.681	0.33
201.058	0.21
201.435	0.14
201.812	0.29
202.189	0.24
202.566	0.13
202.943	0.17
203.32	0.2
203.697	0.18
204.073	0.28
204.45	0.12
204.827	0.15
205.204	0.24
205.58	0.29
205.957	0.21
206.334	0.12
206.71	0.28
207.087	0.23
207.464	0.22
207.84	0.28
208.217	0.27
208.593	0.19
208.97	0.21
209.346	0.31
209.723	0.28
210.099	0.35
210.476	0.25
210.852	0.28
211.228	0.44
211.605	0.39
211.981	0.21
212.357	0.25
212.733	0.25
213.11	0.33
213.486	0.09
213.862	0.14
214.238	0.29
214.614	0.23
214.991	0.23
215.367	0.4
215.743	0.38
216.119	0.27
216.495	0.28
216.871	0.25
217.247	0.2
217.623	0.35
217.999	0.21
218.375	0.2
218.751	0.18
219.127	0.21
219.502	0.31
219.878	0.18
220.254	0.18
220.63	0.37
221.006	0.2
221.381	0.3
221.757	0.18
222.133	0.22
222.508	0.29
222.884	0.34
223.26	0.32
223.635	0.23
224.011	0.21
224.386	0.17
224.762	0.24
225.137	0.26
225.513	0.21
225.888	0.24
226.264	0.19
226.639	0.22
227.014	0.24
227.39	0.21
227.765	0.27
228.14	0.27
228.516	0.29
228.891	0.31
229.266	0.3
229.641	0.22
230.017	0.32
230.392	0.15
230.767	0.25
231.142	0.25
231.517	0.18
231.892	0.2
232.267	0.26
232.642	0.32
233.017	0.19
233.392	0.29
233.767	0.18
234.142	0.26
234.517	0.26
234.892	0.22
235.267	0.21
235.641	0.29
236.016	0.17
236.391	0.22
236.766	0.12
237.14	0.17
237.515	0.15
237.89	0.23
238.264	0.24
238.639	0.19
239.014	0.28
239.388	0.19
239.763	0.3
240.137	0.27
240.512	0.32
240.886	0.23
241.261	0.09
241.635	0.36
242.009	0.28
242.384	0.19
242.758	0.22
243.132	0.21
243.507	0.2
243.881	0.23
244.255	0.32
244.629	0.39
245.004	0.22
245.378	0.24
245.752	0.21
246.126	0.37
246.5	0.26
246.874	0.29
247.248	0.25
247.622	0.15
247.996	0.25
248.37	0.25
248.744	0.2
249.118	0.21
249.492	0.35
249.866	0.24
250.24	0.33
250.613	0.31
250.987	0.37
251.361	0.24
251.735	0.22
252.108	0.27
252.482	0.43
252.856	0.12
253.229	0.2
253.603	0.21
253.977	0.25
254.35	0.2
254.724	0.33
255.097	0.34
255.471	0.24
255.844	0.37
256.218	0.3
256.591	0.2
256.964	0.3
257.338	0.29
257.711	0.29
258.084	0.33
258.458	0.28
258.831	0.29
259.204	0.32
259.577	0.25
259.95	0.34
260.323	0.31
260.697	0.29
261.07	0.26
261.443	0.26
261.816	0.29
262.189	0.36
262.562	0.27
262.935	0.27
263.308	0.25
263.68	0.29
264.053	0.37
264.426	0.36
264.799	0.28
265.172	0.27
265.545	0.22
265.917	0.4
266.29	0.15
266.663	0.3
267.035	0.28
267.408	0.24
267.781	0.27
268.153	0.31
268.526	0.29
268.898	0.23
269.271	0.25
269.643	0.38
270.016	0.28
270.388	0.36
270.76	0.34
271.133	0.35
271.505	0.26
271.877	0.22
272.25	0.27
272.622	0.32
272.994	0.31
273.366	0.26
273.739	0.26
274.111	0.22
274.483	0.33
274.855	0.21
275.227	0.27
275.599	0.23
275.971	0.32
276.343	0.23
276.715	0.31
277.087	0.24
277.459	0.27
277.831	0.32
278.203	0.33
278.574	0.25
278.946	0.42
279.318	0.28
279.69	0.29
280.061	0.27
280.433	0.25
280.805	0.23
281.176	0.33
281.548	0.21
281.92	0.24
282.291	0.27
282.663	0.34
283.034	0.27
283.406	0.24
283.777	0.31
284.148	0.28
284.52	0.29
284.891	0.25
285.262	0.24
285.634	0.31
286.005	0.3
286.376	0.32
286.747	0.23
287.119	0.35
287.49	0.32
287.861	0.35
288.232	0.27
288.603	0.3
288.974	0.22
289.345	0.33
289.716	0.24
290.087	0.29
290.458	0.28
290.829	0.42
291.2	0.37
291.571	0.21
291.941	0.28
292.312	0.27
292.683	0.3
293.054	0.3
293.424	0.3
293.795	0.3
294.166	0.26
294.536	0.25
294.907	0.31
295.277	0.27
295.648	0.26
296.018	0.26
296.389	0.35
296.759	0.25
297.13	0.22
297.5	0.25
297.871	0.37
298.241	0.3
298.611	0.27
298.981	0.28
299.352	0.27
299.722	0.27
300.092	0.22
300.462	0.22
300.832	0.28
301.202	0.25
301.573	0.2
301.943	0.24
302.313	0.26
302.683	0.23
303.053	0.23
303.422	0.23
303.792	0.25
304.162	0.23
304.532	0.25
304.902	0.25
305.272	0.25
305.641	0.26
306.011	0.26
306.381	0.26
306.75	0.27
307.12	0.28
307.49	0.27
307.859	0.28
308.229	0.27
308.598	0.27
308.968	0.29
309.337	0.29
309.707	0.3
310.076	0.3
310.445	0.31
310.815	0.31
311.184	0.31
311.553	0.31
311.923	0.32
312.292	0.32
312.661	0.32
313.03	0.32
313.399	0.33
313.768	0.31
314.137	0.32
314.506	0.32
314.875	0.32
315.244	0.32
315.613	0.31
315.982	0.32
316.351	0.32
316.72	0.32
317.089	0.32
317.458	0.32
317.826	0.31
318.195	0.32
318.564	0.31
318.933	0.3
319.301	0.3
319.67	0.3
320.038	0.3
320.407	0.29
320.775	0.29
321.144	0.29
321.512	0.29
321.881	0.28
322.249	0.29
322.618	0.28
322.986	0.28
323.354	0.28
323.723	0.28
324.091	0.28
324.459	0.27
324.827	0.27
325.195	0.28
325.564	0.27
325.932	0.27
326.3	0.27
326.668	0.27
327.036	0.27
327.404	0.27
327.772	0.27
328.14	0.27
328.508	0.27
328.875	0.27
329.243	0.27
329.611	0.27
329.979	0.28
330.346	0.28
330.714	0.28
331.082	0.28
331.449	0.28
331.817	0.29
332.185	0.28
332.552	0.29
332.92	0.29
333.287	0.29
333.655	0.29
334.022	0.3
334.389	0.3
334.757	0.31
335.124	0.31
335.491	0.32
335.859	0.32
336.226	0.31
336.593	0.32
336.96	0.32
337.327	0.33
337.695	0.34
338.062	0.34
338.429	0.34
338.796	0.35
339.163	0.36
339.53	0.36
339.897	0.36
340.263	0.37
340.63	0.38
340.997	0.38
341.364	0.39
341.731	0.4
342.097	0.39
342.464	0.41
342.831	0.41
343.197	0.42
343.564	0.43
343.931	0.44
344.297	0.44
344.664	0.45
345.03	0.45
345.396	0.46
345.763	0.46
346.129	0.47
346.496	0.48
346.862	0.48
347.228	0.49
347.594	0.49
347.961	0.5
348.327	0.51
348.693	0.52
349.059	0.52
349.425	0.53
349.791	0.55
350.157	0.56
350.523	0.56
350.889	0.57
351.255	0.59
351.621	0.6
351.987	0.61
352.353	0.62
352.719	0.63
353.084	0.64
353.45	0.65
353.816	0.67
354.181	0.68
354.547	0.69
354.913	0.71
355.278	0.72
355.644	0.73
356.009	0.75
356.375	0.75
356.74	0.78
357.106	0.79
357.471	0.81
357.836	0.83
358.202	0.84
358.567	0.85
358.932	0.88
359.297	0.88
359.663	0.9
360.028	0.91
360.393	0.92
360.758	0.94
361.123	0.94
361.488	0.95
361.853	0.96
362.218	0.98
362.583	0.99
362.948	1
363.312	1
363.677	1.02
364.042	1.03
364.407	1.05
364.772	1.07
365.136	1.09
365.501	1.09
365.865	1.12
366.23	1.13
366.595	1.17
366.959	1.19
367.324	1.22
367.688	1.22
368.052	1.23
368.417	1.25
368.781	1.27
369.145	1.27
369.51	1.28
369.874	1.28
370.238	1.28
370.602	1.3
370.967	1.28
371.331	1.27
371.695	1.28
372.059	1.27
372.423	1.28
372.787	1.25
373.151	1.25
373.515	1.27
373.878	1.25
374.242	1.24
374.606	1.25
374.97	1.25
375.334	1.24
375.697	1.24
376.061	1.25
376.425	1.26
376.788	1.26
377.152	1.26
377.515	1.28
377.879	1.29
378.242	1.31
378.606	1.3
378.969	1.34
379.333	1.34
379.696	1.35
380.059	1.39
380.422	1.39
380.786	1.42
381.149	1.43
381.512	1.47
381.875	1.51
382.238	1.5
382.601	1.54
382.964	1.58
383.327	1.61
383.69	1.64
384.053	1.67
384.416	1.69
384.779	1.7
385.142	1.75
385.504	1.77
385.867	1.81
386.23	1.8
386.593	1.82
386.955	1.82
387.318	1.8
387.68	1.82
388.043	1.78
388.405	1.77
388.768	1.79
389.13	1.77
389.493	1.75
389.855	1.76
390.217	1.77
390.58	1.77
390.942	1.78
391.304	1.77
391.666	1.76
392.028	1.82
392.391	1.82
392.753	1.83
393.115	1.9
393.477	1.89
393.839	1.97
394.201	2.02
394.563	2.04
394.924	2.07
395.286	2.12
395.648	2.11
396.01	2.15
396.371	2.11
396.733	2.13
397.095	2.14
397.456	2.08
397.818	2.08
398.18	2.1
398.541	2.11
398.903	2.18
399.264	2.06
399.625	2.04
399.987	2.02
400.348	2.04
400.709	1.99
401.071	1.93
401.432	1.87
401.793	1.79
402.154	1.69
402.515	1.57
402.876	1.5
403.238	1.4
403.599	1.31
403.96	1.24
404.32	1.15
404.681	1.08
405.042	1.01
405.403	0.93
405.764	0.88
406.125	0.82
406.485	0.77
406.846	0.72
407.207	0.67
407.567	0.64
407.928	0.6
408.288	0.56
408.649	0.54
409.009	0.51
409.37	0.48
409.73	0.46
410.091	0.43
410.451	0.41
410.811	0.4
411.171	0.38
411.532	0.36
411.892	0.35
412.252	0.34
412.612	0.32
412.972	0.31
413.332	0.3
413.692	0.29
414.052	0.28
414.412	0.27
414.772	0.26
415.132	0.26
415.492	0.25
415.851	0.24
416.211	0.23
416.571	0.23
416.931	0.22
417.29	0.21
417.65	0.22
418.009	0.2
418.369	0.2
418.728	0.2
419.088	0.19
419.447	0.19
419.807	0.19
420.166	0.19
420.525	0.19
420.884	0.17
421.244	0.17
421.603	0.17
421.962	0.17
422.321	0.16
422.68	0.16
423.039	0.16
423.398	0.15
423.757	0.15
424.116	0.15
424.475	0.15
424.834	0.15
425.193	0.15
425.551	0.14
425.91	0.14
426.269	0.14
426.628	0.14
426.986	0.15
427.345	0.14
427.703	0.14
428.062	0.14
428.42	0.13
428.779	0.14
429.137	0.13
429.496	0.13
429.854	0.12
430.212	0.13
430.57	0.13
430.929	0.13
431.287	0.12
431.645	0.12
432.003	0.11
432.361	0.12
432.719	0.11
433.077	0.12
433.435	0.12
433.793	0.12
434.151	0.11
434.509	0.12
434.866	0.11
435.224	0.11
435.582	0.1
435.94	0.11
436.297	0.1
436.655	0.11
437.012	0.11
437.37	0.11
437.727	0.1
438.085	0.1
438.442	0.11
438.8	0.1
439.157	0.1
439.514	0.11
439.872	0.1
440.229	0.1
440.586	0.09
440.943	0.1
441.3	0.1
441.657	0.09
442.014	0.1
442.371	0.1
442.728	0.09
443.085	0.1
443.442	0.09
443.799	0.08
444.156	0.1
444.513	0.08
444.869	0.09
445.226	0.09
445.583	0.09
445.939	0.08
446.296	0.09
446.652	0.09
447.009	0.09
447.365	0.08
447.722	0.09
448.078	0.09
448.434	0.07
448.791	0.09
449.147	0.08
449.503	0.08
449.859	0.08
450.215	0.08
450.571	0.07
450.928	0.07
451.284	0.07
451.64	0.07
451.995	0.07
452.351	0.07
452.707	0.07
453.063	0.06
453.419	0.07
453.775	0.07
454.13	0.07
454.486	0.06
454.842	0.06
455.197	0.05
455.553	0.06
455.908	0.06
456.264	0.05
456.619	0.05
456.975	0.06
457.33	0.05
457.685	0.06
458.04	0.05
458.396	0.04
458.751	0.05
459.106	0.04
459.461	0.05
459.816	0.04
460.171	0.04
460.526	0.04
460.881	0.03
461.236	0.04
461.591	0.03
461.946	0.03
462.301	0.03
462.655	0.03
463.01	0.02
463.365	0.02
463.719	0.02
464.074	0.01
464.428	0.02
464.783	0.02
465.137	0.01
465.492	0.01
465.846	0.01
466.201	0.01
466.555	0.02
466.909	0.02
467.263	0.01
467.618	0.01
467.972	0.03
468.326	0.02
468.68	0.01
469.034	0.01
469.388	0.01
469.742	0.01
470.096	0.01
470.45	0.02
470.804	0.02
471.157	0.02
471.511	0.02
471.865	0.02
472.218	0.02
472.572	0.03
472.926	0.03
473.279	0.02
473.633	0.04
473.986	0.03
474.34	0.04
474.693	0.04
475.046	0.05
475.4	0.05
475.753	0.06
476.106	0.07
476.459	0.06
476.812	0.07
477.165	0.07
477.519	0.07
477.872	0.08
478.224	0.08
478.577	0.08
478.93	0.09
479.283	0.09
479.636	0.1
479.989	0.09
480.341	0.1
480.694	0.1
481.047	0.1
481.399	0.11
481.752	0.11
482.104	0.12
482.457	0.12
482.809	0.12
483.162	0.12
483.514	0.12
483.866	0.12
484.219	0.13
484.571	0.13
484.923	0.13
485.275	0.13
485.627	0.14
485.979	0.13
486.331	0.14
486.683	0.14
487.035	0.15
487.387	0.14
487.739	0.15
488.091	0.15
488.443	0.15
488.794	0.15
489.146	0.16
489.498	0.16
489.849	0.16
490.201	0.16
490.552	0.16
490.904	0.17
491.255	0.16
491.607	0.17
491.958	0.17
492.309	0.17
492.661	0.17
493.012	0.18
493.363	0.18
493.714	0.18
494.065	0.19
494.416	0.19
494.767	0.19
495.118	0.19
495.469	0.2
495.82	0.2
496.171	0.2
496.522	0.2
496.872	0.2
497.223	0.21
497.574	0.2
497.924	0.21
498.275	0.21
498.626	0.21
498.976	0.22
499.327	0.22
499.677	0.22
500.027	0.22
500.378	0.22
500.728	0.23
501.078	0.23
501.428	0.24
501.779	0.24
502.129	0.24
502.479	0.25
502.829	0.25
503.179	0.25
503.529	0.26
503.879	0.25
504.229	0.26
504.578	0.26
504.928	0.26
505.278	0.27
505.628	0.27
505.977	0.27
506.327	0.27
506.676	0.28
507.026	0.27
507.375	0.28
507.725	0.29
508.074	0.29
508.424	0.28
508.773	0.29
509.122	0.29
509.471	0.29
509.82	0.29
510.17	0.3
510.519	0.3
510.868	0.31
511.217	0.31
511.566	0.31
511.915	0.32
512.263	0.32
512.612	0.32
512.961	0.32
513.31	0.33
513.659	0.32
514.007	0.33
514.356	0.33
514.704	0.33
515.053	0.33
515.401	0.34
515.75	0.34
516.098	0.35
516.447	0.35
516.795	0.35
517.143	0.35
517.491	0.36
517.839	0.36
518.188	0.37
518.536	0.37
518.884	0.37
519.232	0.36
519.58	0.37
519.928	0.37
520.275	0.38
520.623	0.38
520.971	0.38
521.319	0.39
521.666	0.39
522.014	0.39
522.362	0.39
522.709	0.39
523.057	0.4
523.404	0.39
523.752	0.4
524.099	0.4
524.446	0.41
524.794	0.41
525.141	0.41
525.488	0.42
525.835	0.42
526.182	0.43
526.529	0.43
526.876	0.43
527.223	0.43
527.57	0.44
527.917	0.43
528.264	0.44
528.611	0.45
528.958	0.45
529.304	0.45
529.651	0.45
529.998	0.46
530.344	0.46
530.691	0.46
531.037	0.47
531.384	0.47
531.73	0.47
532.076	0.47
532.423	0.48
532.769	0.48
533.115	0.48
533.461	0.49
533.807	0.48
534.154	0.49
534.5	0.5
534.846	0.5
535.192	0.5
535.537	0.51
535.883	0.51
536.229	0.52
536.575	0.51
536.921	0.52
537.266	0.52
537.612	0.52
537.957	0.53
538.303	0.53
538.649	0.53
538.994	0.54
539.339	0.54
539.685	0.55
540.03	0.56
540.375	0.56
540.721	0.56
541.066	0.57
541.411	0.57
541.756	0.57
542.101	0.58
542.446	0.58
542.791	0.59
543.136	0.59
543.481	0.59
543.825	0.59
544.17	0.6
544.515	0.6
544.86	0.61
545.204	0.61
545.549	0.61
545.893	0.62
546.238	0.62
546.582	0.63
546.927	0.63
547.271	0.63
547.615	0.63
547.96	0.64
548.304	0.64
548.648	0.65
548.992	0.65
549.336	0.65
549.68	0.66
550.024	0.66
550.368	0.66
550.712	0.66
551.056	0.67
551.4	0.68
551.743	0.68
552.087	0.69
552.431	0.69
552.774	0.69
553.118	0.69
553.462	0.69
553.805	0.69
554.148	0.7
554.492	0.7
554.835	0.7
555.178	0.7
555.522	0.71
555.865	0.71
556.208	0.71
556.551	0.71
556.894	0.71
557.237	0.71
557.58	0.72
557.923	0.72
558.266	0.72
558.609	0.73
558.952	0.73
559.294	0.73
559.637	0.73
559.98	0.73
560.322	0.73
560.665	0.73
561.007	0.74
561.35	0.74
561.692	0.74
562.034	0.75
562.377	0.75
562.719	0.75
563.061	0.75
563.403	0.75
563.745	0.75
564.088	0.75
564.43	0.75
564.772	0.75
565.113	0.76
565.455	0.76
565.797	0.76
566.139	0.76
566.481	0.77
566.822	0.76
567.164	0.76
567.506	0.76
567.847	0.77
568.189	0.77
568.53	0.77
568.872	0.77
569.213	0.77
569.554	0.77
569.895	0.77
570.237	0.77
570.578	0.78
570.919	0.77
571.26	0.77
571.601	0.78
571.942	0.77
572.283	0.78
572.624	0.77
572.965	0.78
573.306	0.78
573.646	0.77
573.987	0.78
574.328	0.77
574.668	0.78
575.009	0.78
575.349	0.78
575.69	0.78
576.03	0.78
576.37	0.77
576.711	0.77
577.051	0.77
577.391	0.78
577.731	0.78
578.072	0.78
578.412	0.78
578.752	0.79
579.092	0.79
579.431	0.78
579.771	0.76
580.111	0.75
580.451	0.76
580.791	0.78
581.13	0.79
581.47	0.79
581.81	0.79
582.149	0.79
582.489	0.8
582.828	0.79
583.167	0.77
583.507	0.73
583.846	0.71
584.185	0.74
584.525	0.77
584.864	0.79
585.203	0.81
585.542	0.81
585.881	0.82
586.22	0.82
586.559	0.82
586.898	0.81
587.236	0.8
587.575	0.8
587.914	0.81
588.252	0.83
588.591	0.83
588.93	0.83
589.268	0.83
589.607	0.83
589.945	0.84
590.283	0.84
590.622	0.85
590.96	0.85
591.298	0.86
591.636	0.86
591.974	0.86
592.313	0.87
592.651	0.87
592.989	0.88
593.326	0.88
593.664	0.88
594.002	0.89
594.34	0.88
594.678	0.89
595.015	0.89
595.353	0.88
595.691	0.89
596.028	0.91
596.366	0.91
596.703	0.91
597.04	0.92
597.378	0.91
597.715	0.92
598.052	0.93
598.389	0.93
598.726	0.93
599.064	0.94
599.401	0.94
599.738	0.94
600.074	0.95
600.411	0.94
600.748	0.94
601.085	0.94
601.422	0.94
601.758	0.93
602.095	0.94
602.432	0.95
602.768	0.94
603.105	0.95
603.441	0.95
603.777	0.95
604.114	0.94
604.45	0.95
604.786	0.96
605.122	0.95
605.459	0.95
605.795	0.95
606.131	0.95
606.467	0.95
606.803	0.95
607.139	0.95
607.474	0.94
607.81	0.94
608.146	0.94
608.482	0.94
608.817	0.93
609.153	0.93
609.488	0.93
609.824	0.93
610.159	0.93
610.495	0.93
610.83	0.93
611.165	0.92
611.5	0.92
611.836	0.92
612.171	0.92
612.506	0.92
612.841	0.92
613.176	0.91
613.511	0.9
613.845	0.9
614.18	0.9
614.515	0.9
614.85	0.9
615.184	0.89
615.519	0.89
615.854	0.89
616.188	0.89
616.523	0.88
616.857	0.88
617.191	0.88
617.526	0.87
617.86	0.88
618.194	0.87
618.528	0.87
618.862	0.87
619.196	0.87
619.53	0.87
619.864	0.87
620.198	0.86
620.532	0.86
620.866	0.85
621.2	0.86
621.533	0.86
621.867	0.85
622.201	0.84
622.534	0.84
622.868	0.84
623.201	0.84
623.534	0.83
623.868	0.83
624.201	0.83
624.534	0.83
624.868	0.82
625.201	0.82
625.534	0.81
625.867	0.81
626.2	0.81
626.533	0.8
626.865	0.81
627.198	0.79
627.531	0.8
627.864	0.79
628.196	0.79
628.529	0.78
628.862	0.78
629.194	0.78
629.527	0.77
629.859	0.77
630.191	0.76
630.524	0.77
630.856	0.75
631.188	0.75
631.52	0.74
631.852	0.74
632.184	0.74
632.516	0.73
632.848	0.72
633.18	0.72
633.512	0.72
633.844	0.71
634.175	0.71
634.507	0.7
634.839	0.69
635.17	0.68
635.502	0.68
635.833	0.68
636.165	0.67
636.496	0.66
636.827	0.66
637.159	0.65
637.49	0.65
637.821	0.64
638.152	0.64
638.483	0.63
638.814	0.63
639.145	0.63
639.476	0.62
639.807	0.61
640.137	0.61
640.468	0.61
640.799	0.6
641.129	0.6
641.46	0.59
641.791	0.59
642.121	0.59
642.451	0.58
642.782	0.58
643.112	0.58
643.442	0.57
643.773	0.56
644.103	0.56
644.433	0.56
644.763	0.55
645.093	0.56
645.423	0.55
645.753	0.55
646.082	0.54
646.412	0.54
646.742	0.54
647.072	0.53
647.401	0.54
647.731	0.53
648.06	0.54
648.39	0.53
648.719	0.53
649.048	0.53
649.378	0.53
649.707	0.52
650.036	0.52
650.365	0.52
650.694	0.51
651.023	0.51
651.352	0.51
651.681	0.51
652.01	0.51
652.339	0.51
652.668	0.51
652.996	0.51
653.325	0.51
653.654	0.51
653.982	0.51
654.311	0.5
654.639	0.5
654.967	0.5
655.296	0.5
655.624	0.5
655.952	0.51
656.28	0.5
656.609	0.5
656.937	0.5
657.265	0.5
657.593	0.41
657.92	0.28
658.248	0.22
658.576	0.24
658.904	0.34
659.231	0.44
659.559	0.49
659.887	0.49
660.214	0.49
660.542	0.49
660.869	0.49
661.196	0.49
661.524	0.49
661.851	0.49
662.178	0.49
662.505	0.49
662.832	0.49
663.159	0.49
663.486	0.49
663.813	0.49
664.14	0.49
664.467	0.49
664.794	0.49
665.12	0.48
665.447	0.48
665.774	0.48
666.1	0.48
666.427	0.47
666.753	0.47
667.079	0.47
667.406	0.47
667.732	0.47
668.058	0.47
668.384	0.47
668.71	0.47
669.036	0.46
669.362	0.46
669.688	0.46
670.014	0.46
670.34	0.46
670.666	0.46
670.991	0.45
671.317	0.45
671.643	0.45
671.968	0.45
672.294	0.45
672.619	0.45
672.945	0.44
673.27	0.44
673.595	0.43
673.92	0.43
674.246	0.43
674.571	0.43
674.896	0.42
675.221	0.42
675.546	0.42
675.87	0.41
676.195	0.41
676.52	0.41
676.845	0.41
677.169	0.4
677.494	0.4
677.819	0.4
678.143	0.4
678.468	0.39
678.792	0.39
679.116	0.39
679.44	0.39
679.765	0.38
680.089	0.37
680.413	0.37
680.737	0.37
681.061	0.37
681.385	0.36
681.709	0.36
682.033	0.36
682.356	0.36
682.68	0.35
683.004	0.35
683.327	0.34
683.651	0.33
683.974	0.34
684.298	0.33
684.621	0.33
684.944	0.32
685.268	0.32
685.591	0.32
685.914	0.31
686.237	0.31
686.56	0.31
686.883	0.3
687.206	0.3
687.529	0.29
687.852	0.29
688.175	0.29
688.497	0.29
688.82	0.29
689.142	0.29
689.465	0.28
689.787	0.28
690.11	0.28
690.432	0.27
690.755	0.27
691.077	0.27
691.399	0.26
691.721	0.26
692.043	0.25
692.365	0.25
692.687	0.25
693.009	0.25
693.331	0.24
693.653	0.24
693.974	0.24
694.296	0.23
694.618	0.23
694.939	0.23
695.261	0.23
695.582	0.22
695.904	0.22
696.225	0.22
696.546	0.22
696.868	0.22
697.189	0.22
697.51	0.21
697.831	0.21
698.152	0.21
698.473	0.21
698.794	0.2
699.114	0.2
699.435	0.19
699.756	0.19
700.077	0.19
700.397	0.19
700.718	0.19
701.038	0.19
701.359	0.18
701.679	0.19
701.999	0.19
702.32	0.18
702.64	0.18
702.96	0.18
703.28	0.18
703.6	0.18
703.92	0.18
704.24	0.17
704.56	0.17
704.879	0.17
705.199	0.17
705.519	0.17
705.838	0.17
706.158	0.17
706.478	0.17
706.797	0.17
707.116	0.17
707.436	0.16
707.755	0.16
708.074	0.16
708.393	0.16
708.712	0.16
709.031	0.15
709.35	0.15
709.669	0.15
709.988	0.15
710.307	0.15
710.626	0.15
710.944	0.16
711.263	0.16
711.582	0.16
711.9	0.16
712.219	0.16
712.537	0.16
712.855	0.15
713.174	0.16
713.492	0.15
713.81	0.16
714.128	0.16
714.446	0.16
714.764	0.15
715.082	0.15
715.4	0.15
715.718	0.15
716.035	0.15
716.353	0.16
716.671	0.16
716.988	0.16
717.306	0.15
717.623	0.15
717.941	0.16
718.258	0.16
718.575	0.16
718.893	0.16
719.21	0.16
719.527	0.16
719.844	0.16
720.161	0.16
720.478	0.16
720.795	0.16
721.112	0.16
721.428	0.17
721.745	0.16
722.062	0.16
722.378	0.16
722.695	0.17
723.011	0.16
723.328	0.16
723.644	0.17
723.96	0.17
724.276	0.17
724.593	0.17
724.909	0.17
725.225	0.17
725.541	0.17
725.857	0.17
726.173	0.17
726.488	0.17
726.804	0.17
727.12	0.17
727.435	0.17
727.751	0.17
728.067	0.17
728.382	0.17
728.697	0.17
729.013	0.17
729.328	0.17
729.643	0.17
729.958	0.18
730.273	0.18
730.588	0.17
730.903	0.18
731.218	0.18
731.533	0.18
731.848	0.18
732.163	0.18
732.477	0.18
732.792	0.18
733.107	0.17
733.421	0.18
733.736	0.18
734.05	0.18
734.364	0.18
734.678	0.18
734.993	0.18
735.307	0.18
735.621	0.17
735.935	0.17
736.249	0.17
736.563	0.18
736.877	0.17
737.19	0.17
737.504	0.17
737.818	0.17
738.131	0.17
738.445	0.18
738.758	0.18
739.072	0.18
739.385	0.17
739.698	0.17
740.012	0.17
740.325	0.17
740.638	0.17
740.951	0.16
741.264	0.16
741.577	0.16
741.89	0.16
742.203	0.16
742.515	0.17
742.828	0.16
743.141	0.16
743.453	0.16
743.766	0.16
744.078	0.16
744.391	0.15
744.703	0.15
745.015	0.15
745.327	0.15
745.639	0.15
745.952	0.14
746.264	0.15
746.575	0.15
746.887	0.14
747.199	0.14
747.511	0.14
747.823	0.14
748.134	0.14
748.446	0.14
748.757	0.14
749.069	0.13
749.38	0.13
749.692	0.13
750.003	0.13
750.314	0.13
750.625	0.13
750.936	0.12
751.248	0.12
751.559	0.12
751.869	0.12
752.18	0.12
752.491	0.11
752.802	0.11
753.112	0.11
753.423	0.11
753.734	0.11
754.044	0.11
754.355	0.1
754.665	0.1
754.975	0.1
755.285	0.1
755.596	0.09
755.906	0.09
756.216	0.09
756.526	0.09
756.836	0.09
757.146	0.09
757.455	0.09
757.765	0.09
758.075	0.08
758.385	0.08
758.694	0.08
759.004	0.08
759.313	0.08
759.622	0.08
759.932	0.08
760.241	0.08
760.55	0.07
760.859	0.07
761.168	0.07
761.477	0.07
761.786	0.07
762.095	0.07
762.404	0.07
762.713	0.07
763.021	0.07
763.33	0.07
763.639	0.07
763.947	0.07
764.256	0.07
764.564	0.07
764.872	0.07
765.181	0.07
765.489	0.07
765.797	0.07
766.105	0.07
766.413	0.06
766.721	0.06
767.029	0.06
767.337	0.06
767.644	0.06
767.952	0.06
768.26	0.06
768.567	0.06
768.875	0.06
769.182	0.05
769.49	0.06
769.797	0.05
770.104	0.05
770.411	0.06
770.718	0.06
771.026	0.06
771.333	0.06
771.639	0.06
771.946	0.06
772.253	0.06
772.56	0.05
772.867	0.05
773.173	0.05
773.48	0.05
773.786	0.05
774.093	0.05
774.399	0.05
774.705	0.05
775.012	0.05
775.318	0.05
775.624	0.05
775.93	0.05
776.236	0.05
776.542	0.05
776.848	0.05
777.154	0.05
777.459	0.05
777.765	0.05
778.071	0.05
778.376	0.05
778.682	0.05
778.987	0.04
779.292	0.04
779.598	0.04
779.903	0.04
780.208	0.04
780.513	0.04
780.818	0.04
781.123	0.04
781.428	0.04
781.733	0.04
782.038	0.04
782.343	0.04
782.647	0.04
782.952	0.04
783.256	0.04
783.561	0.04
783.865	0.05
784.17	0.04
784.474	0.05
784.778	0.05
785.082	0.04
785.386	0.04
785.69	0.04
785.994	0.04
786.298	0.04
786.602	0.04
786.906	0.04
787.209	0.04
787.513	0.04
787.817	0.04
788.12	0.04
788.424	0.04
788.727	0.04
789.03	0.05
789.333	0.04
789.637	0.05
789.94	0.05
790.243	0.05
790.546	0.04
790.849	0.04
791.152	0.05
791.454	0.05
791.757	0.05
792.06	0.05
792.362	0.04
792.665	0.04
792.967	0.04
793.27	0.04
793.572	0.04
793.874	0.04
794.177	0.04
794.479	0.04
794.781	0.04
795.083	0.04
795.385	0.04
795.687	0.04
795.989	0.04
796.29	0.04
796.592	0.04
796.894	0.05
797.195	0.04
797.497	0.05
797.798	0.04
798.1	0.05
798.401	0.04
798.702	0.04
799.003	0.04
799.304	0.05
799.605	0.05
799.906	0.05
800.207	0.05
800.508	0.05
800.809	0.04
801.11	0.05
801.41	0.05
801.711	0.05
802.011	0.05
802.312	0.05
802.612	0.05
802.913	0.05
803.213	0.05
803.513	0.04
803.813	0.05
804.113	0.04
804.413	0.04
804.713	0.04
805.013	0.04
805.313	0.04
805.613	0.03
805.912	0.04
806.212	0.04
806.511	0.03
806.811	0.03
807.11	0.03
807.41	0.03
807.709	0.03
808.008	0.03
808.307	0.04
808.606	0.04
808.905	0.03
809.204	0.04
809.503	0.04
809.802	0.04
810.101	0.04
810.399	0.04
810.698	0.04
810.997	0.04
811.295	0.03
811.593	0.04
811.892	0.04
812.19	0.04
812.488	0.04
812.786	0.04
813.084	0.04
813.383	0.04
813.68	0.04
813.978	0.04
814.276	0.04
814.574	0.05
814.872	0.04
815.169	0.05
815.467	0.04
815.764	0.04
816.062	0.05
816.359	0.04
816.656	0.04
816.954	0.04
817.251	0.04
817.548	0.04
817.845	0.03
818.142	0.04
818.439	0.04
818.735	0.05
819.032	0.04
819.329	0.04
819.626	0.04
819.922	0.04
820.219	0.04
820.515	0.03
820.811	0.04
821.108	0.04
821.404	0.05
821.7	0.04
821.996	0.04
822.292	0.05
822.588	0.04
822.884	0.04
823.18	0.05
823.475	0.05
823.771	0.05
824.067	0.05
824.362	0.05
824.658	0.05
824.953	0.05
825.249	0.05
825.544	0.04
825.839	0.05
826.134	0.04
826.429	0.04
826.724	0.05
827.019	0.05
827.314	0.04
827.609	0.04
827.904	0.04
828.198	0.04
828.493	0.04
828.787	0.04
829.082	0.04
829.376	0.04
829.671	0.04
829.965	0.05
830.259	0.04
830.553	0.05
830.847	0.04
831.141	0.05
831.435	0.04
831.729	0.04
832.023	0.04
832.317	0.04
832.61	0.05
832.904	0.05
833.197	0.05
833.491	0.05
833.784	0.06
834.077	0.06
834.371	0.05
834.664	0.06
834.957	0.05
835.25	0.05
835.543	0.05
835.836	0.06
836.129	0.05
836.421	0.06
836.714	0.06
837.007	0.04
837.299	0.05
837.592	0.05
837.884	0.05
838.177	0.05
838.469	0.05
838.761	0.04
839.053	0.05
839.345	0.05
839.637	0.04
839.929	0.03
840.221	0.03
840.513	0.03
840.805	0.04
841.096	0.05
841.388	0.05
841.68	0.05
841.971	0.04
842.262	0.04
842.554	0.05
842.845	0.03
843.136	0.04
843.427	0.05
843.718	0.04
844.009	0.04
844.3	0.04
844.591	0.04
844.882	0.04
845.173	0.05
845.463	0.05
845.754	0.04
846.044	0.04
846.335	0.04
846.625	0.05
846.915	0.04
847.206	0.04
847.496	0.04
847.786	0.05
848.076	0.05
848.366	0.05
848.656	0.05
848.945	0.04
849.235	0.05
849.525	0.05
849.814	0.04
850.104	0.05
850.393	0.04
850.683	0.05
850.972	0.05
851.261	0.05
851.551	0.05
851.84	0.04
852.129	0.04
852.418	0.03
852.707	0.04
852.995	0.03
853.284	0.05
853.573	0.04
853.862	0.05
854.15	0.04
854.439	0.05
854.727	0.04
855.015	0.03
855.304	0.04
855.592	0.05
855.88	0.04
856.168	0.05
856.456	0.04
856.744	0.04
857.032	0.03
857.32	0.05
857.607	0.05
857.895	0.05
858.183	0.05
858.47	0.05
858.757	0.05
859.045	0.03
859.332	0.05
859.619	0.04
859.907	0.04
860.194	0.05
860.481	0.04
860.768	0.04
861.054	0.03
861.341	0.03
861.628	0.05
861.915	0.05
862.201	0.05
862.488	0.05
862.774	0.04
863.061	0.03
863.347	0.05
863.633	0.06
863.919	0.04
864.205	0.04
864.491	0.04
864.777	0.03
865.063	0.04
865.349	0.03
865.635	0.03
865.92	0.06
866.206	0.04
866.492	0.04
866.777	0.05
867.062	0.04
867.348	0.04
867.633	0.03
867.918	0.02
868.203	0.06
868.488	0.03
868.773	0.02
869.058	0.01
869.343	0.03
869.628	0.04
869.912	0.01
870.197	0.04
870.482	-0
870.766	-0
871.05	0.03
871.335	0.01
871.619	-0.01
871.903	0.07
872.187	0
872.471	0
872.755	0.02
873.039	0.03
873.323	-0
873.607	-0.01
873.89	0.01
874.174	-0.01
874.458	-0.03
874.741	-0.01
875.024	0.03
875.308	0.01
875.591	0.01
875.874	0.04
876.157	-0.01
876.44	-0.02
876.723	0.02
877.006	-0.04
877.289	-0.05
877.572	0.1
877.854	0.01
878.137	0.02
878.42	0.05
878.702	0.05
878.984	-0.05
879.267	-0.11
879.549	0.13
879.831	-0.01
880.113	-0.01
880.395	0.04
880.677	0.03
880.959	-0.03
