Data from Rubpy_EV_1200_EDTA_Buffered_Absorbance_14-36-20-618.txt Node
Date: Tue Jun 30 14:36:20 BST 2026
User: fpm-admin
Spectrometer: OFX00224
Trigger mode: 0
Integration Time (sec): 7.000000E-2
Scans to average: 3
Nonlinearity correction enabled: false
Boxcar width: 0
Storing dark spectrum: false
XAxis mode: Wavelengths
Number of Pixels in Spectrum: 2136
>>>>>Begin Spectral Data<<<<<
154.91	0.14
155.289	0.5
155.669	-0.21
156.048	-0.22
156.428	-0
156.807	-0
157.186	-0.15
157.566	-0.16
157.945	-0
158.325	-0.22
158.704	-0.09
159.083	-0
159.462	-0
159.842	-0.13
160.221	-0.26
160.6	-0.28
160.979	0.07
161.359	-0
161.738	-0
162.117	-0
162.496	-0
162.875	-0.3
163.254	0.06
163.633	-0
164.012	0.1
164.391	0.6
164.77	-1.49
165.149	-0.32
165.528	-0
165.907	-0
166.286	-0
166.665	-0.25
167.044	-0.85
167.423	0.32
167.802	-0
168.181	-0
168.559	-0
168.938	0.24
169.317	-0.16
169.696	-1.34
170.074	-0
170.453	-0
170.832	-0
171.21	-0.26
171.589	-0
171.968	0.18
172.346	0.38
172.725	-0
173.103	-0
173.482	-0
173.861	0.16
174.239	-0
174.617	0.2
174.996	-0.51
175.374	-0.37
175.753	-0.54
176.131	-0
176.51	-0
176.888	-0
177.266	-0
177.645	0.04
178.023	0.56
178.401	-0.32
178.779	0.22
179.158	0.06
179.536	0.03
179.914	-0.53
180.292	0.3
180.67	-0.29
181.048	-0
181.427	0.52
181.805	0.24
182.183	-0
182.561	-0
182.939	-0.54
183.317	0.38
183.695	0.12
184.073	-0.6
184.451	-0
184.829	0.37
185.206	0.34
185.584	0.05
185.962	-0.51
186.34	0.43
186.718	-0
187.096	-0
187.473	-0
187.851	-0
188.229	0.85
188.607	0.2
188.984	0.18
189.362	0.27
189.74	0.08
190.117	0.16
190.495	0.2
190.872	0.16
191.25	0.28
191.627	0.18
192.005	0.15
192.382	0.2
192.76	0.13
193.137	0.25
193.515	0.22
193.892	0.41
194.269	0.2
194.647	0.14
195.024	0.32
195.401	0.16
195.779	0.2
196.156	0.26
196.533	0.21
196.91	0.13
197.288	0.21
197.665	0.37
198.042	0.4
198.419	0.31
198.796	0.31
199.173	0.24
199.55	0.25
199.927	0.15
200.304	0.15
200.681	0.29
201.058	0.11
201.435	0.13
201.812	0.31
202.189	0.34
202.566	0.29
202.943	0.21
203.32	0.17
203.697	0.26
204.073	0.24
204.45	0.23
204.827	0.18
205.204	0.37
205.58	0.23
205.957	0.18
206.334	0.12
206.71	0.08
207.087	0.33
207.464	0.32
207.84	0.18
208.217	0.32
208.593	0.31
208.97	0.19
209.346	0.22
209.723	0.4
210.099	0.15
210.476	0.23
210.852	0.24
211.228	0.28
211.605	0.2
211.981	0.2
212.357	0.24
212.733	0.23
213.11	0.23
213.486	0.16
213.862	0.2
214.238	0.33
214.614	0.2
214.991	0.2
215.367	0.26
215.743	0.33
216.119	0.29
216.495	0.31
216.871	0.25
217.247	0.2
217.623	0.33
217.999	0.22
218.375	0.17
218.751	0.34
219.127	0.21
219.502	0.26
219.878	0.23
220.254	0.19
220.63	0.3
221.006	0.15
221.381	0.18
221.757	0.19
222.133	0.23
222.508	0.28
222.884	0.35
223.26	0.24
223.635	0.25
224.011	0.18
224.386	0.18
224.762	0.24
225.137	0.25
225.513	0.22
225.888	0.33
226.264	0.19
226.639	0.24
227.014	0.28
227.39	0.31
227.765	0.3
228.14	0.22
228.516	0.31
228.891	0.2
229.266	0.26
229.641	0.23
230.017	0.21
230.392	0.18
230.767	0.36
231.142	0.19
231.517	0.23
231.892	0.49
232.267	0.23
232.642	0.21
233.017	0.25
233.392	0.25
233.767	0.22
234.142	0.2
234.517	0.19
234.892	0.3
235.267	0.2
235.641	0.3
236.016	0.3
236.391	0.31
236.766	0.15
237.14	0.2
237.515	0.16
237.89	0.26
238.264	0.19
238.639	0.14
239.014	0.18
239.388	0.26
239.763	0.36
240.137	0.25
240.512	0.19
240.886	0.22
241.261	0.2
241.635	0.21
242.009	0.21
242.384	0.14
242.758	0.3
243.132	0.16
243.507	0.24
243.881	0.19
244.255	0.3
244.629	0.27
245.004	0.2
245.378	0.35
245.752	0.42
246.126	0.3
246.5	0.2
246.874	0.32
247.248	0.22
247.622	0.22
247.996	0.22
248.37	0.31
248.744	0.27
249.118	0.18
249.492	0.37
249.866	0.19
250.24	0.27
250.613	0.23
250.987	0.18
251.361	0.22
251.735	0.18
252.108	0.25
252.482	0.37
252.856	0.23
253.229	0.2
253.603	0.19
253.977	0.25
254.35	0.17
254.724	0.24
255.097	0.27
255.471	0.21
255.844	0.28
256.218	0.23
256.591	0.19
256.964	0.34
257.338	0.23
257.711	0.26
258.084	0.27
258.458	0.22
258.831	0.25
259.204	0.28
259.577	0.2
259.95	0.23
260.323	0.23
260.697	0.31
261.07	0.28
261.443	0.17
261.816	0.28
262.189	0.33
262.562	0.25
262.935	0.14
263.308	0.28
263.68	0.2
264.053	0.34
264.426	0.36
264.799	0.31
265.172	0.26
265.545	0.19
265.917	0.21
266.29	0.24
266.663	0.29
267.035	0.32
267.408	0.26
267.781	0.26
268.153	0.36
268.526	0.36
268.898	0.27
269.271	0.3
269.643	0.28
270.016	0.27
270.388	0.25
270.76	0.28
271.133	0.39
271.505	0.27
271.877	0.19
272.25	0.25
272.622	0.26
272.994	0.23
273.366	0.3
273.739	0.33
274.111	0.25
274.483	0.21
274.855	0.26
275.227	0.33
275.599	0.28
275.971	0.23
276.343	0.27
276.715	0.32
277.087	0.28
277.459	0.28
277.831	0.26
278.203	0.28
278.574	0.24
278.946	0.38
279.318	0.29
279.69	0.28
280.061	0.27
280.433	0.22
280.805	0.27
281.176	0.32
281.548	0.21
281.92	0.27
282.291	0.29
282.663	0.25
283.034	0.24
283.406	0.17
283.777	0.29
284.148	0.28
284.52	0.39
284.891	0.29
285.262	0.24
285.634	0.32
286.005	0.33
286.376	0.29
286.747	0.25
287.119	0.32
287.49	0.23
287.861	0.29
288.232	0.3
288.603	0.31
288.974	0.27
289.345	0.29
289.716	0.25
290.087	0.23
290.458	0.23
290.829	0.28
291.2	0.26
291.571	0.27
291.941	0.28
292.312	0.22
292.683	0.31
293.054	0.28
293.424	0.31
293.795	0.27
294.166	0.28
294.536	0.24
294.907	0.3
295.277	0.28
295.648	0.24
296.018	0.21
296.389	0.3
296.759	0.26
297.13	0.26
297.5	0.2
297.871	0.29
298.241	0.34
298.611	0.26
298.981	0.3
299.352	0.23
299.722	0.21
300.092	0.23
300.462	0.27
300.832	0.22
301.202	0.21
301.573	0.17
301.943	0.22
302.313	0.25
302.683	0.25
303.053	0.23
303.422	0.23
303.792	0.24
304.162	0.24
304.532	0.23
304.902	0.25
305.272	0.25
305.641	0.25
306.011	0.25
306.381	0.25
306.75	0.26
307.12	0.28
307.49	0.27
307.859	0.26
308.229	0.28
308.598	0.28
308.968	0.28
309.337	0.29
309.707	0.29
310.076	0.28
310.445	0.3
310.815	0.3
311.184	0.3
311.553	0.3
311.923	0.3
312.292	0.31
312.661	0.31
313.03	0.31
313.399	0.32
313.768	0.31
314.137	0.31
314.506	0.31
314.875	0.32
315.244	0.31
315.613	0.31
315.982	0.31
316.351	0.31
316.72	0.31
317.089	0.31
317.458	0.31
317.826	0.3
318.195	0.31
318.564	0.3
318.933	0.3
319.301	0.29
319.67	0.29
320.038	0.29
320.407	0.29
320.775	0.29
321.144	0.28
321.512	0.28
321.881	0.27
322.249	0.28
322.618	0.27
322.986	0.27
323.354	0.28
323.723	0.27
324.091	0.27
324.459	0.27
324.827	0.27
325.195	0.26
325.564	0.26
325.932	0.26
326.3	0.27
326.668	0.26
327.036	0.26
327.404	0.26
327.772	0.26
328.14	0.26
328.508	0.26
328.875	0.26
329.243	0.27
329.611	0.26
329.979	0.27
330.346	0.27
330.714	0.27
331.082	0.28
331.449	0.27
331.817	0.27
332.185	0.28
332.552	0.28
332.92	0.28
333.287	0.28
333.655	0.29
334.022	0.29
334.389	0.29
334.757	0.3
335.124	0.3
335.491	0.31
335.859	0.3
336.226	0.31
336.593	0.31
336.96	0.31
337.327	0.32
337.695	0.32
338.062	0.33
338.429	0.33
338.796	0.34
339.163	0.34
339.53	0.35
339.897	0.36
340.263	0.36
340.63	0.37
340.997	0.37
341.364	0.38
341.731	0.38
342.097	0.38
342.464	0.4
342.831	0.4
343.197	0.4
343.564	0.41
343.931	0.42
344.297	0.43
344.664	0.44
345.03	0.44
345.396	0.44
345.763	0.45
346.129	0.46
346.496	0.47
346.862	0.47
347.228	0.48
347.594	0.48
347.961	0.49
348.327	0.49
348.693	0.51
349.059	0.51
349.425	0.52
349.791	0.53
350.157	0.54
350.523	0.55
350.889	0.56
351.255	0.57
351.621	0.58
351.987	0.59
352.353	0.6
352.719	0.62
353.084	0.62
353.45	0.64
353.816	0.65
354.181	0.66
354.547	0.67
354.913	0.68
355.278	0.7
355.644	0.71
356.009	0.73
356.375	0.75
356.74	0.75
357.106	0.78
357.471	0.78
357.836	0.8
358.202	0.82
358.567	0.82
358.932	0.86
359.297	0.87
359.663	0.87
360.028	0.89
360.393	0.9
360.758	0.9
361.123	0.92
361.488	0.94
361.853	0.94
362.218	0.95
362.583	0.96
362.948	0.96
363.312	0.98
363.677	0.99
364.042	1.01
364.407	1.02
364.772	1.04
365.136	1.06
365.501	1.07
365.865	1.09
366.23	1.11
366.595	1.13
366.959	1.15
367.324	1.18
367.688	1.19
368.052	1.2
368.417	1.21
368.781	1.24
369.145	1.26
369.51	1.24
369.874	1.27
370.238	1.26
370.602	1.26
370.967	1.26
371.331	1.24
371.695	1.23
372.059	1.22
372.423	1.22
372.787	1.22
373.151	1.21
373.515	1.22
373.878	1.21
374.242	1.23
374.606	1.2
374.97	1.22
375.334	1.23
375.697	1.23
376.061	1.23
376.425	1.22
376.788	1.25
377.152	1.24
377.515	1.26
377.879	1.25
378.242	1.28
378.606	1.29
378.969	1.3
379.333	1.31
379.696	1.32
380.059	1.36
380.422	1.34
380.786	1.38
381.149	1.4
381.512	1.43
381.875	1.45
382.238	1.46
382.601	1.52
382.964	1.56
383.327	1.58
383.69	1.61
384.053	1.64
384.416	1.67
384.779	1.69
385.142	1.73
385.504	1.74
385.867	1.77
386.23	1.78
386.593	1.8
386.955	1.77
387.318	1.78
387.68	1.82
388.043	1.76
388.405	1.78
388.768	1.77
389.13	1.75
389.493	1.72
389.855	1.69
390.217	1.71
390.58	1.73
390.942	1.76
391.304	1.74
391.666	1.74
392.028	1.77
392.391	1.8
392.753	1.81
393.115	1.88
393.477	1.89
393.839	1.96
394.201	1.95
394.563	1.98
394.924	2.08
395.286	2.13
395.648	2.07
396.01	2.15
396.371	2.12
396.733	2.15
397.095	2.13
397.456	2.08
397.818	2.1
398.18	2.1
398.541	2.06
398.903	2.1
399.264	2.02
399.625	2.05
399.987	2.01
400.348	2
400.709	1.94
401.071	1.87
401.432	1.82
401.793	1.73
402.154	1.65
402.515	1.57
402.876	1.49
403.238	1.38
403.599	1.28
403.96	1.2
404.32	1.13
404.681	1.06
405.042	0.99
405.403	0.92
405.764	0.86
406.125	0.8
406.485	0.76
406.846	0.7
407.207	0.66
407.567	0.61
407.928	0.59
408.288	0.56
408.649	0.52
409.009	0.49
409.37	0.46
409.73	0.45
410.091	0.43
410.451	0.4
410.811	0.38
411.171	0.38
411.532	0.36
411.892	0.34
412.252	0.32
412.612	0.32
412.972	0.31
413.332	0.3
413.692	0.29
414.052	0.27
414.412	0.26
414.772	0.26
415.132	0.25
415.492	0.23
415.851	0.24
416.211	0.23
416.571	0.22
416.931	0.21
417.29	0.21
417.65	0.2
418.009	0.2
418.369	0.2
418.728	0.2
419.088	0.19
419.447	0.19
419.807	0.18
420.166	0.17
420.525	0.18
420.884	0.17
421.244	0.16
421.603	0.17
421.962	0.16
422.321	0.16
422.68	0.15
423.039	0.16
423.398	0.15
423.757	0.15
424.116	0.15
424.475	0.14
424.834	0.15
425.193	0.15
425.551	0.15
425.91	0.14
426.269	0.14
426.628	0.14
426.986	0.14
427.345	0.14
427.703	0.13
428.062	0.13
428.42	0.12
428.779	0.13
429.137	0.13
429.496	0.12
429.854	0.12
430.212	0.12
430.57	0.13
430.929	0.12
431.287	0.12
431.645	0.12
432.003	0.11
432.361	0.11
432.719	0.11
433.077	0.12
433.435	0.12
433.793	0.12
434.151	0.1
434.509	0.11
434.866	0.11
435.224	0.11
435.582	0.11
435.94	0.11
436.297	0.1
436.655	0.11
437.012	0.11
437.37	0.11
437.727	0.11
438.085	0.1
438.442	0.1
438.8	0.1
439.157	0.1
439.514	0.1
439.872	0.1
440.229	0.1
440.586	0.09
440.943	0.1
441.3	0.09
441.657	0.1
442.014	0.09
442.371	0.09
442.728	0.09
443.085	0.09
443.442	0.09
443.799	0.09
444.156	0.09
444.513	0.07
444.869	0.08
445.226	0.09
445.583	0.08
445.939	0.08
446.296	0.08
446.652	0.08
447.009	0.09
447.365	0.08
447.722	0.08
448.078	0.08
448.434	0.08
448.791	0.08
449.147	0.08
449.503	0.08
449.859	0.08
450.215	0.08
450.571	0.07
450.928	0.07
451.284	0.07
451.64	0.07
451.995	0.07
452.351	0.07
452.707	0.07
453.063	0.07
453.419	0.06
453.775	0.07
454.13	0.06
454.486	0.06
454.842	0.05
455.197	0.06
455.553	0.06
455.908	0.06
456.264	0.05
456.619	0.05
456.975	0.06
457.33	0.05
457.685	0.05
458.04	0.05
458.396	0.04
458.751	0.05
459.106	0.05
459.461	0.04
459.816	0.04
460.171	0.04
460.526	0.04
460.881	0.03
461.236	0.03
461.591	0.03
461.946	0.03
462.301	0.03
462.655	0.02
463.01	0.02
463.365	0.03
463.719	0.02
464.074	0.01
464.428	0.01
464.783	0.01
465.137	0.01
465.492	0.01
465.846	0.02
466.201	0.01
466.555	0.01
466.909	0.01
467.263	0.01
467.618	0.01
467.972	0.02
468.326	0.01
468.68	0.01
469.034	0.01
469.388	0.01
469.742	0.01
470.096	0.01
470.45	0.01
470.804	0.01
471.157	0.02
471.511	0.01
471.865	0.02
472.218	0.02
472.572	0.02
472.926	0.02
473.279	0.02
473.633	0.03
473.986	0.03
474.34	0.04
474.693	0.04
475.046	0.05
475.4	0.05
475.753	0.06
476.106	0.06
476.459	0.06
476.812	0.06
477.165	0.07
477.519	0.07
477.872	0.08
478.224	0.07
478.577	0.08
478.93	0.08
479.283	0.09
479.636	0.09
479.989	0.09
480.341	0.09
480.694	0.09
481.047	0.1
481.399	0.1
481.752	0.11
482.104	0.11
482.457	0.11
482.809	0.11
483.162	0.11
483.514	0.12
483.866	0.12
484.219	0.12
484.571	0.12
484.923	0.13
485.275	0.13
485.627	0.13
485.979	0.13
486.331	0.14
486.683	0.14
487.035	0.14
487.387	0.14
487.739	0.15
488.091	0.15
488.443	0.14
488.794	0.14
489.146	0.15
489.498	0.15
489.849	0.16
490.201	0.15
490.552	0.16
490.904	0.16
491.255	0.16
491.607	0.17
491.958	0.17
492.309	0.17
492.661	0.17
493.012	0.17
493.363	0.18
493.714	0.18
494.065	0.18
494.416	0.18
494.767	0.18
495.118	0.19
495.469	0.19
495.82	0.19
496.171	0.19
496.522	0.2
496.872	0.19
497.223	0.2
497.574	0.2
497.924	0.21
498.275	0.21
498.626	0.21
498.976	0.21
499.327	0.22
499.677	0.22
500.027	0.22
500.378	0.22
500.728	0.22
501.078	0.23
501.428	0.23
501.779	0.23
502.129	0.24
502.479	0.24
502.829	0.24
503.179	0.24
503.529	0.25
503.879	0.24
504.229	0.25
504.578	0.25
504.928	0.25
505.278	0.25
505.628	0.26
505.977	0.27
506.327	0.27
506.676	0.27
507.026	0.27
507.375	0.27
507.725	0.27
508.074	0.28
508.424	0.28
508.773	0.28
509.122	0.28
509.471	0.28
509.82	0.29
510.17	0.29
510.519	0.29
510.868	0.3
511.217	0.3
511.566	0.3
511.915	0.31
512.263	0.31
512.612	0.31
512.961	0.31
513.31	0.32
513.659	0.32
514.007	0.32
514.356	0.32
514.704	0.32
515.053	0.33
515.401	0.33
515.75	0.33
516.098	0.34
516.447	0.34
516.795	0.34
517.143	0.35
517.491	0.34
517.839	0.35
518.188	0.36
518.536	0.36
518.884	0.35
519.232	0.36
519.58	0.36
519.928	0.36
520.275	0.37
520.623	0.37
520.971	0.37
521.319	0.38
521.666	0.38
522.014	0.38
522.362	0.38
522.709	0.39
523.057	0.39
523.404	0.39
523.752	0.39
524.099	0.39
524.446	0.39
524.794	0.4
525.141	0.4
525.488	0.41
525.835	0.41
526.182	0.41
526.529	0.42
526.876	0.42
527.223	0.42
527.57	0.42
527.917	0.43
528.264	0.43
528.611	0.43
528.958	0.44
529.304	0.43
529.651	0.44
529.998	0.44
530.344	0.44
530.691	0.45
531.037	0.46
531.384	0.46
531.73	0.46
532.076	0.46
532.423	0.46
532.769	0.47
533.115	0.47
533.461	0.48
533.807	0.48
534.154	0.48
534.5	0.49
534.846	0.49
535.192	0.49
535.537	0.49
535.883	0.5
536.229	0.5
536.575	0.5
536.921	0.51
537.266	0.51
537.612	0.51
537.957	0.52
538.303	0.52
538.649	0.52
538.994	0.52
539.339	0.53
539.685	0.54
540.03	0.54
540.375	0.55
540.721	0.54
541.066	0.55
541.411	0.55
541.756	0.55
542.101	0.56
542.446	0.56
542.791	0.57
543.136	0.57
543.481	0.57
543.825	0.58
544.17	0.58
544.515	0.58
544.86	0.59
545.204	0.59
545.549	0.6
545.893	0.6
546.238	0.61
546.582	0.6
546.927	0.61
547.271	0.62
547.615	0.62
547.96	0.62
548.304	0.63
548.648	0.63
548.992	0.63
549.336	0.64
549.68	0.64
550.024	0.65
550.368	0.65
550.712	0.65
551.056	0.65
551.4	0.66
551.743	0.66
552.087	0.66
552.431	0.67
552.774	0.67
553.118	0.67
553.462	0.66
553.805	0.67
554.148	0.68
554.492	0.68
554.835	0.68
555.178	0.69
555.522	0.69
555.865	0.69
556.208	0.69
556.551	0.69
556.894	0.7
557.237	0.7
557.58	0.7
557.923	0.71
558.266	0.7
558.609	0.71
558.952	0.72
559.294	0.71
559.637	0.72
559.98	0.71
560.322	0.72
560.665	0.72
561.007	0.72
561.35	0.72
561.692	0.72
562.034	0.73
562.377	0.73
562.719	0.73
563.061	0.73
563.403	0.74
563.745	0.73
564.088	0.73
564.43	0.74
564.772	0.74
565.113	0.74
565.455	0.73
565.797	0.74
566.139	0.74
566.481	0.74
566.822	0.75
567.164	0.74
567.506	0.75
567.847	0.75
568.189	0.75
568.53	0.75
568.872	0.75
569.213	0.75
569.554	0.75
569.895	0.76
570.237	0.75
570.578	0.76
570.919	0.76
571.26	0.76
571.601	0.76
571.942	0.76
572.283	0.76
572.624	0.75
572.965	0.76
573.306	0.76
573.646	0.76
573.987	0.76
574.328	0.76
574.668	0.76
575.009	0.76
575.349	0.76
575.69	0.76
576.03	0.76
576.37	0.76
576.711	0.75
577.051	0.76
577.391	0.76
577.731	0.76
578.072	0.76
578.412	0.77
578.752	0.77
579.092	0.76
579.431	0.76
579.771	0.74
580.111	0.73
580.451	0.74
580.791	0.76
581.13	0.77
581.47	0.77
581.81	0.77
582.149	0.77
582.489	0.77
582.828	0.77
583.167	0.75
583.507	0.71
583.846	0.69
584.185	0.72
584.525	0.75
584.864	0.77
585.203	0.79
585.542	0.8
585.881	0.8
586.22	0.8
586.559	0.8
586.898	0.79
587.236	0.78
587.575	0.78
587.914	0.79
588.252	0.8
588.591	0.81
588.93	0.82
589.268	0.81
589.607	0.81
589.945	0.82
590.283	0.82
590.622	0.83
590.96	0.83
591.298	0.84
591.636	0.84
591.974	0.85
592.313	0.85
592.651	0.85
592.989	0.85
593.326	0.86
593.664	0.86
594.002	0.86
594.34	0.87
594.678	0.86
595.015	0.87
595.353	0.86
595.691	0.87
596.028	0.88
596.366	0.89
596.703	0.9
597.04	0.9
597.378	0.9
597.715	0.9
598.052	0.9
598.389	0.91
598.726	0.92
599.064	0.91
599.401	0.92
599.738	0.92
600.074	0.92
600.411	0.92
600.748	0.91
601.085	0.92
601.422	0.91
601.758	0.92
602.095	0.92
602.432	0.92
602.768	0.92
603.105	0.93
603.441	0.92
603.777	0.93
604.114	0.93
604.45	0.93
604.786	0.93
605.122	0.93
605.459	0.92
605.795	0.93
606.131	0.92
606.467	0.93
606.803	0.92
607.139	0.92
607.474	0.92
607.81	0.92
608.146	0.92
608.482	0.92
608.817	0.92
609.153	0.91
609.488	0.91
609.824	0.91
610.159	0.9
610.495	0.91
610.83	0.9
611.165	0.91
611.5	0.9
611.836	0.9
612.171	0.9
612.506	0.9
612.841	0.89
613.176	0.89
613.511	0.89
613.845	0.88
614.18	0.88
614.515	0.88
614.85	0.87
615.184	0.88
615.519	0.87
615.854	0.87
616.188	0.87
616.523	0.86
616.857	0.86
617.191	0.86
617.526	0.86
617.86	0.85
618.194	0.85
618.528	0.85
618.862	0.85
619.196	0.86
619.53	0.85
619.864	0.84
620.198	0.84
620.532	0.84
620.866	0.84
621.2	0.83
621.533	0.83
621.867	0.84
622.201	0.83
622.534	0.82
622.868	0.82
623.201	0.82
623.534	0.81
623.868	0.81
624.201	0.81
624.534	0.8
624.868	0.8
625.201	0.8
625.534	0.8
625.867	0.79
626.2	0.79
626.533	0.79
626.865	0.78
627.198	0.78
627.531	0.77
627.864	0.77
628.196	0.77
628.529	0.76
628.862	0.76
629.194	0.76
629.527	0.75
629.859	0.75
630.191	0.75
630.524	0.75
630.856	0.74
631.188	0.74
631.52	0.73
631.852	0.72
632.184	0.72
632.516	0.71
632.848	0.7
633.18	0.7
633.512	0.7
633.844	0.69
634.175	0.69
634.507	0.68
634.839	0.67
635.17	0.67
635.502	0.67
635.833	0.66
636.165	0.66
636.496	0.65
636.827	0.65
637.159	0.64
637.49	0.64
637.821	0.62
638.152	0.62
638.483	0.62
638.814	0.62
639.145	0.61
639.476	0.61
639.807	0.6
640.137	0.6
640.468	0.59
640.799	0.59
641.129	0.59
641.46	0.58
641.791	0.57
642.121	0.57
642.451	0.57
642.782	0.56
643.112	0.56
643.442	0.56
643.773	0.55
644.103	0.55
644.433	0.55
644.763	0.55
645.093	0.54
645.423	0.54
645.753	0.54
646.082	0.53
646.412	0.53
646.742	0.53
647.072	0.52
647.401	0.53
647.731	0.52
648.06	0.52
648.39	0.52
648.719	0.52
649.048	0.52
649.378	0.52
649.707	0.51
650.036	0.5
650.365	0.51
650.694	0.5
651.023	0.5
651.352	0.5
651.681	0.49
652.01	0.49
652.339	0.49
652.668	0.5
652.996	0.5
653.325	0.5
653.654	0.5
653.982	0.49
654.311	0.49
654.639	0.49
654.967	0.49
655.296	0.49
655.624	0.49
655.952	0.49
656.28	0.49
656.609	0.49
656.937	0.49
657.265	0.49
657.593	0.4
657.92	0.26
658.248	0.21
658.576	0.23
658.904	0.33
659.231	0.43
659.559	0.48
659.887	0.48
660.214	0.48
660.542	0.48
660.869	0.48
661.196	0.48
661.524	0.48
661.851	0.48
662.178	0.48
662.505	0.48
662.832	0.48
663.159	0.48
663.486	0.48
663.813	0.48
664.14	0.47
664.467	0.47
664.794	0.47
665.12	0.48
665.447	0.47
665.774	0.47
666.1	0.47
666.427	0.47
666.753	0.47
667.079	0.46
667.406	0.46
667.732	0.46
668.058	0.46
668.384	0.46
668.71	0.46
669.036	0.45
669.362	0.45
669.688	0.45
670.014	0.44
670.34	0.45
670.666	0.45
670.991	0.44
671.317	0.44
671.643	0.44
671.968	0.43
672.294	0.43
672.619	0.43
672.945	0.43
673.27	0.43
673.595	0.42
673.92	0.42
674.246	0.42
674.571	0.42
674.896	0.41
675.221	0.41
675.546	0.41
675.87	0.41
676.195	0.4
676.52	0.4
676.845	0.4
677.169	0.39
677.494	0.39
677.819	0.39
678.143	0.39
678.468	0.38
678.792	0.38
679.116	0.38
679.44	0.37
679.765	0.37
680.089	0.37
680.413	0.36
680.737	0.36
681.061	0.36
681.385	0.36
681.709	0.35
682.033	0.35
682.356	0.34
682.68	0.34
683.004	0.34
683.327	0.33
683.651	0.33
683.974	0.33
684.298	0.32
684.621	0.32
684.944	0.32
685.268	0.31
685.591	0.31
685.914	0.31
686.237	0.3
686.56	0.3
686.883	0.3
687.206	0.29
687.529	0.29
687.852	0.29
688.175	0.29
688.497	0.28
688.82	0.29
689.142	0.28
689.465	0.28
689.787	0.27
690.11	0.27
690.432	0.27
690.755	0.27
691.077	0.26
691.399	0.25
691.721	0.25
692.043	0.25
692.365	0.25
692.687	0.24
693.009	0.24
693.331	0.23
693.653	0.23
693.974	0.23
694.296	0.23
694.618	0.23
694.939	0.23
695.261	0.22
695.582	0.22
695.904	0.21
696.225	0.21
696.546	0.22
696.868	0.21
697.189	0.21
697.51	0.21
697.831	0.2
698.152	0.2
698.473	0.2
698.794	0.19
699.114	0.19
699.435	0.18
699.756	0.19
700.077	0.19
700.397	0.18
700.718	0.18
701.038	0.18
701.359	0.18
701.679	0.18
701.999	0.18
702.32	0.18
702.64	0.17
702.96	0.18
703.28	0.17
703.6	0.17
703.92	0.17
704.24	0.17
704.56	0.16
704.879	0.17
705.199	0.17
705.519	0.17
705.838	0.17
706.158	0.17
706.478	0.17
706.797	0.16
707.116	0.16
707.436	0.16
707.755	0.16
708.074	0.16
708.393	0.15
708.712	0.15
709.031	0.15
709.35	0.14
709.669	0.14
709.988	0.14
710.307	0.15
710.626	0.15
710.944	0.15
711.263	0.15
711.582	0.15
711.9	0.15
712.219	0.15
712.537	0.15
712.855	0.15
713.174	0.15
713.492	0.15
713.81	0.15
714.128	0.15
714.446	0.15
714.764	0.15
715.082	0.14
715.4	0.15
715.718	0.15
716.035	0.15
716.353	0.15
716.671	0.15
716.988	0.15
717.306	0.15
717.623	0.15
717.941	0.16
718.258	0.16
718.575	0.16
718.893	0.16
719.21	0.16
719.527	0.15
719.844	0.15
720.161	0.15
720.478	0.15
720.795	0.16
721.112	0.16
721.428	0.16
721.745	0.16
722.062	0.16
722.378	0.16
722.695	0.16
723.011	0.16
723.328	0.16
723.644	0.16
723.96	0.16
724.276	0.16
724.593	0.16
724.909	0.16
725.225	0.16
725.541	0.16
725.857	0.16
726.173	0.16
726.488	0.17
726.804	0.17
727.12	0.17
727.435	0.17
727.751	0.17
728.067	0.17
728.382	0.17
728.697	0.17
729.013	0.17
729.328	0.17
729.643	0.17
729.958	0.17
730.273	0.17
730.588	0.17
730.903	0.17
731.218	0.17
731.533	0.17
731.848	0.17
732.163	0.17
732.477	0.17
732.792	0.17
733.107	0.16
733.421	0.17
733.736	0.17
734.05	0.17
734.364	0.17
734.678	0.17
734.993	0.17
735.307	0.17
735.621	0.17
735.935	0.17
736.249	0.17
736.563	0.17
736.877	0.17
737.19	0.17
737.504	0.17
737.818	0.17
738.131	0.17
738.445	0.17
738.758	0.17
739.072	0.17
739.385	0.17
739.698	0.17
740.012	0.17
740.325	0.16
740.638	0.16
740.951	0.16
741.264	0.16
741.577	0.16
741.89	0.16
742.203	0.16
742.515	0.16
742.828	0.16
743.141	0.16
743.453	0.16
743.766	0.15
744.078	0.15
744.391	0.15
744.703	0.15
745.015	0.15
745.327	0.15
745.639	0.15
745.952	0.14
746.264	0.14
746.575	0.14
746.887	0.14
747.199	0.14
747.511	0.14
747.823	0.14
748.134	0.13
748.446	0.13
748.757	0.13
749.069	0.13
749.38	0.13
749.692	0.13
750.003	0.12
750.314	0.12
750.625	0.12
750.936	0.12
751.248	0.11
751.559	0.11
751.869	0.11
752.18	0.12
752.491	0.11
752.802	0.11
753.112	0.11
753.423	0.11
753.734	0.1
754.044	0.1
754.355	0.1
754.665	0.1
754.975	0.1
755.285	0.1
755.596	0.09
755.906	0.09
756.216	0.09
756.526	0.09
756.836	0.09
757.146	0.09
757.455	0.09
757.765	0.09
758.075	0.08
758.385	0.08
758.694	0.08
759.004	0.08
759.313	0.07
759.622	0.08
759.932	0.07
760.241	0.07
760.55	0.07
760.859	0.07
761.168	0.07
761.477	0.07
761.786	0.07
762.095	0.07
762.404	0.07
762.713	0.07
763.021	0.07
763.33	0.07
763.639	0.07
763.947	0.07
764.256	0.06
764.564	0.07
764.872	0.07
765.181	0.07
765.489	0.07
765.797	0.07
766.105	0.06
766.413	0.06
766.721	0.06
767.029	0.06
767.337	0.06
767.644	0.06
767.952	0.06
768.26	0.06
768.567	0.06
768.875	0.05
769.182	0.05
769.49	0.05
769.797	0.05
770.104	0.05
770.411	0.06
770.718	0.06
771.026	0.06
771.333	0.06
771.639	0.06
771.946	0.05
772.253	0.06
772.56	0.05
772.867	0.05
773.173	0.05
773.48	0.05
773.786	0.05
774.093	0.05
774.399	0.05
774.705	0.05
775.012	0.05
775.318	0.05
775.624	0.05
775.93	0.05
776.236	0.05
776.542	0.05
776.848	0.05
777.154	0.05
777.459	0.05
777.765	0.05
778.071	0.05
778.376	0.05
778.682	0.04
778.987	0.04
779.292	0.04
779.598	0.04
779.903	0.04
780.208	0.04
780.513	0.04
780.818	0.04
781.123	0.04
781.428	0.04
781.733	0.04
782.038	0.04
782.343	0.04
782.647	0.04
782.952	0.04
783.256	0.04
783.561	0.04
783.865	0.04
784.17	0.04
784.474	0.04
784.778	0.04
785.082	0.04
785.386	0.04
785.69	0.04
785.994	0.04
786.298	0.04
786.602	0.04
786.906	0.04
787.209	0.04
787.513	0.04
787.817	0.04
788.12	0.04
788.424	0.04
788.727	0.04
789.03	0.04
789.333	0.04
789.637	0.04
789.94	0.04
790.243	0.04
790.546	0.05
790.849	0.04
791.152	0.05
791.454	0.04
791.757	0.04
792.06	0.04
792.362	0.04
792.665	0.04
792.967	0.04
793.27	0.04
793.572	0.04
793.874	0.04
794.177	0.04
794.479	0.04
794.781	0.05
795.083	0.04
795.385	0.04
795.687	0.04
795.989	0.04
796.29	0.04
796.592	0.04
796.894	0.04
797.195	0.04
797.497	0.04
797.798	0.04
798.1	0.04
798.401	0.04
798.702	0.04
799.003	0.04
799.304	0.04
799.605	0.05
799.906	0.05
800.207	0.05
800.508	0.05
800.809	0.04
801.11	0.04
801.41	0.05
801.711	0.05
802.011	0.05
802.312	0.05
802.612	0.05
802.913	0.05
803.213	0.05
803.513	0.04
803.813	0.04
804.113	0.04
804.413	0.04
804.713	0.04
805.013	0.04
805.313	0.04
805.613	0.03
805.912	0.03
806.212	0.04
806.511	0.03
806.811	0.03
807.11	0.03
807.41	0.03
807.709	0.03
808.008	0.03
808.307	0.03
808.606	0.03
808.905	0.03
809.204	0.04
809.503	0.04
809.802	0.04
810.101	0.04
810.399	0.04
810.698	0.04
810.997	0.03
811.295	0.03
811.593	0.04
811.892	0.04
812.19	0.04
812.488	0.04
812.786	0.04
813.084	0.04
813.383	0.04
813.68	0.04
813.978	0.04
814.276	0.04
814.574	0.04
814.872	0.04
815.169	0.04
815.467	0.04
815.764	0.04
816.062	0.04
816.359	0.04
816.656	0.04
816.954	0.04
817.251	0.04
817.548	0.03
817.845	0.04
818.142	0.04
818.439	0.04
818.735	0.04
819.032	0.04
819.329	0.04
819.626	0.04
819.922	0.04
820.219	0.04
820.515	0.03
820.811	0.04
821.108	0.04
821.404	0.04
821.7	0.04
821.996	0.04
822.292	0.05
822.588	0.04
822.884	0.04
823.18	0.05
823.475	0.04
823.771	0.05
824.067	0.05
824.362	0.05
824.658	0.05
824.953	0.05
825.249	0.04
825.544	0.05
825.839	0.04
826.134	0.04
826.429	0.04
826.724	0.04
827.019	0.05
827.314	0.05
827.609	0.04
827.904	0.05
828.198	0.04
828.493	0.04
828.787	0.04
829.082	0.04
829.376	0.04
829.671	0.04
829.965	0.05
830.259	0.04
830.553	0.04
830.847	0.04
831.141	0.05
831.435	0.04
831.729	0.04
832.023	0.04
832.317	0.04
832.61	0.05
832.904	0.04
833.197	0.05
833.491	0.05
833.784	0.06
834.077	0.05
834.371	0.05
834.664	0.06
834.957	0.05
835.25	0.05
835.543	0.06
835.836	0.06
836.129	0.06
836.421	0.05
836.714	0.06
837.007	0.04
837.299	0.05
837.592	0.05
837.884	0.04
838.177	0.06
838.469	0.05
838.761	0.04
839.053	0.05
839.345	0.05
839.637	0.04
839.929	0.03
840.221	0.03
840.513	0.03
840.805	0.04
841.096	0.04
841.388	0.05
841.68	0.04
841.971	0.04
842.262	0.03
842.554	0.05
842.845	0.04
843.136	0.04
843.427	0.05
843.718	0.04
844.009	0.03
844.3	0.04
844.591	0.04
844.882	0.04
845.173	0.04
845.463	0.04
845.754	0.04
846.044	0.05
846.335	0.04
846.625	0.05
846.915	0.04
847.206	0.04
847.496	0.04
847.786	0.05
848.076	0.05
848.366	0.04
848.656	0.05
848.945	0.04
849.235	0.06
849.525	0.05
849.814	0.04
850.104	0.05
850.393	0.04
850.683	0.04
850.972	0.05
851.261	0.05
851.551	0.05
851.84	0.05
852.129	0.03
852.418	0.04
852.707	0.05
852.995	0.03
853.284	0.04
853.573	0.03
853.862	0.03
854.15	0.04
854.439	0.06
854.727	0.04
855.015	0.03
855.304	0.03
855.592	0.04
855.88	0.05
856.168	0.05
856.456	0.04
856.744	0.05
857.032	0.03
857.32	0.05
857.607	0.04
857.895	0.05
858.183	0.05
858.47	0.06
858.757	0.05
859.045	0.05
859.332	0.04
859.619	0.04
859.907	0.05
860.194	0.05
860.481	0.04
860.768	0.04
861.054	0.04
861.341	0.04
861.628	0.05
861.915	0.04
862.201	0.04
862.488	0.04
862.774	0.04
863.061	0.04
863.347	0.03
863.633	0.05
863.919	0.05
864.205	0.04
864.491	0.03
864.777	0.06
865.063	0.05
865.349	0.04
865.635	0.03
865.92	0.05
866.206	0.05
866.492	0.06
866.777	0.05
867.062	0.02
867.348	0.03
867.633	0.04
867.918	0.04
868.203	0.07
868.488	0.05
868.773	0.04
869.058	0.03
869.343	0.04
869.628	0.02
869.912	0.03
870.197	0.06
870.482	0.04
870.766	-0.01
871.05	0.01
871.335	-0
871.619	0.02
871.903	0.01
872.187	-0.03
872.471	0.02
872.755	0.03
873.039	0.03
873.323	0.04
873.607	-0.01
873.89	0.05
874.174	-0.01
874.458	-0.06
874.741	0.01
875.024	0.04
875.308	-0.05
875.591	-0.02
875.874	0.03
876.157	-0.04
876.44	-0.06
876.723	0.07
877.006	0.02
877.289	-0.04
877.572	-0.01
877.854	0.01
878.137	0.02
878.42	0.01
878.702	-0.02
878.984	0.03
879.267	-0.1
879.549	0.03
879.831	-0.02
880.113	-0.01
880.395	0.03
880.677	0.01
880.959	-0.08
