Data from Rubpy_EV_1200_EDTA_Buffered_Absorbance_14-37-52-590.txt Node
Date: Tue Jun 30 14:37:52 BST 2026
User: fpm-admin
Spectrometer: OFX00224
Trigger mode: 0
Integration Time (sec): 7.000000E-2
Scans to average: 3
Nonlinearity correction enabled: false
Boxcar width: 0
Storing dark spectrum: false
XAxis mode: Wavelengths
Number of Pixels in Spectrum: 2136
>>>>>Begin Spectral Data<<<<<
154.91	-0.26
155.289	0.37
155.669	-0.46
156.048	-0.4
156.428	-0.03
156.807	-0
157.186	-0.25
157.566	-0.26
157.945	0.07
158.325	-0.44
158.704	0.46
159.083	-0
159.462	-0.04
159.842	-0.15
160.221	-0.12
160.6	-0
160.979	-0.15
161.359	-0.15
161.738	0.1
162.117	-0
162.496	-0
162.875	-0.43
163.254	-0.07
163.633	-0
164.012	0.11
164.391	-0.1
164.77	-0
165.149	-0.15
165.528	-0
165.907	-0.57
166.286	-0
166.665	-0.35
167.044	-0.05
167.423	-0.06
167.802	-0
168.181	-0
168.559	-0
168.938	-0
169.317	-0
169.696	-1.79
170.074	-0.3
170.453	-0.41
170.832	-0.56
171.21	-0.4
171.589	-0
171.968	-0.38
172.346	-0.13
172.725	-0
173.103	-0
173.482	-0
173.861	0.58
174.239	0.62
174.617	-0.23
174.996	-0.98
175.374	-0.3
175.753	-0.68
176.131	-0.23
176.51	0.11
176.888	-0
177.266	-0
177.645	0.23
178.023	0.39
178.401	-0.4
178.779	0.78
179.158	-0.12
179.536	0.3
179.914	-0.33
180.292	-0
180.67	-0.37
181.048	-0.58
181.427	-0.14
181.805	-0
182.183	-0
182.561	-0
182.939	-0.72
183.317	-0
183.695	0.15
184.073	-0.24
184.451	-0.66
184.829	0.37
185.206	0.71
185.584	-0.02
185.962	-0.53
186.34	0.12
186.718	-0
187.096	-0.3
187.473	0.08
187.851	-0
188.229	-0.59
188.607	0.11
188.984	0.14
189.362	0.2
189.74	0.12
190.117	0.07
190.495	0.14
190.872	0.29
191.25	0.36
191.627	0.18
192.005	0.14
192.382	0.2
192.76	0.12
193.137	0.3
193.515	0.14
193.892	0.04
194.269	0.28
194.647	0.16
195.024	0.2
195.401	0.25
195.779	0.11
196.156	0.18
196.533	0.04
196.91	0.18
197.288	0.2
197.665	0.26
198.042	0.3
198.419	0.18
198.796	0.23
199.173	0.25
199.55	0.23
199.927	0.19
200.304	0.12
200.681	0.18
201.058	0.14
201.435	0.27
201.812	0.13
202.189	0.19
202.566	0.17
202.943	0.31
203.32	0.3
203.697	0.29
204.073	0.14
204.45	0.13
204.827	0.39
205.204	0.19
205.58	0.25
205.957	0.14
206.334	0.36
206.71	0.12
207.087	0.23
207.464	0.27
207.84	0.12
208.217	0.25
208.593	0.16
208.97	0.18
209.346	0.25
209.723	0.18
210.099	0.31
210.476	0.23
210.852	0.29
211.228	0.32
211.605	0.31
211.981	0.18
212.357	0.28
212.733	0.19
213.11	0.23
213.486	0.14
213.862	0.18
214.238	0.33
214.614	0.18
214.991	0.28
215.367	0.22
215.743	0.33
216.119	0.26
216.495	0.25
216.871	0.29
217.247	0.15
217.623	0.17
217.999	0.27
218.375	0.18
218.751	0.25
219.127	0.2
219.502	0.17
219.878	0.25
220.254	0.16
220.63	0.24
221.006	0.23
221.381	0.3
221.757	0.2
222.133	0.21
222.508	0.18
222.884	0.26
223.26	0.28
223.635	0.19
224.011	0.15
224.386	0.25
224.762	0.21
225.137	0.19
225.513	0.34
225.888	0.19
226.264	0.25
226.639	0.25
227.014	0.28
227.39	0.2
227.765	0.23
228.14	0.33
228.516	0.21
228.891	0.29
229.266	0.28
229.641	0.2
230.017	0.25
230.392	0.16
230.767	0.32
231.142	0.24
231.517	0.24
231.892	0.17
232.267	0.23
232.642	0.28
233.017	0.21
233.392	0.19
233.767	0.32
234.142	0.31
234.517	0.16
234.892	0.41
235.267	0.15
235.641	0.28
236.016	0.14
236.391	0.28
236.766	0.27
237.14	0.27
237.515	0.16
237.89	0.25
238.264	0.2
238.639	0.2
239.014	0.2
239.388	0.24
239.763	0.24
240.137	0.17
240.512	0.28
240.886	0.23
241.261	0.12
241.635	0.09
242.009	0.29
242.384	0.19
242.758	0.25
243.132	0.25
243.507	0.19
243.881	0.26
244.255	0.32
244.629	0.28
245.004	0.27
245.378	0.24
245.752	0.31
246.126	0.32
246.5	0.23
246.874	0.2
247.248	0.23
247.622	0.35
247.996	0.21
248.37	0.25
248.744	0.23
249.118	0.19
249.492	0.4
249.866	0.23
250.24	0.31
250.613	0.23
250.987	0.29
251.361	0.2
251.735	0.21
252.108	0.21
252.482	0.36
252.856	0.14
253.229	0.26
253.603	0.18
253.977	0.32
254.35	0.26
254.724	0.28
255.097	0.34
255.471	0.23
255.844	0.26
256.218	0.25
256.591	0.22
256.964	0.26
257.338	0.19
257.711	0.34
258.084	0.26
258.458	0.26
258.831	0.33
259.204	0.33
259.577	0.34
259.95	0.3
260.323	0.39
260.697	0.42
261.07	0.29
261.443	0.26
261.816	0.27
262.189	0.31
262.562	0.24
262.935	0.19
263.308	0.22
263.68	0.34
264.053	0.32
264.426	0.32
264.799	0.22
265.172	0.4
265.545	0.29
265.917	0.33
266.29	0.19
266.663	0.29
267.035	0.28
267.408	0.25
267.781	0.24
268.153	0.26
268.526	0.35
268.898	0.23
269.271	0.24
269.643	0.29
270.016	0.18
270.388	0.34
270.76	0.37
271.133	0.36
271.505	0.31
271.877	0.27
272.25	0.28
272.622	0.29
272.994	0.26
273.366	0.32
273.739	0.31
274.111	0.23
274.483	0.28
274.855	0.25
275.227	0.22
275.599	0.28
275.971	0.28
276.343	0.25
276.715	0.38
277.087	0.3
277.459	0.29
277.831	0.16
278.203	0.26
278.574	0.25
278.946	0.37
279.318	0.37
279.69	0.36
280.061	0.31
280.433	0.39
280.805	0.26
281.176	0.33
281.548	0.19
281.92	0.22
282.291	0.26
282.663	0.31
283.034	0.23
283.406	0.24
283.777	0.3
284.148	0.29
284.52	0.32
284.891	0.29
285.262	0.23
285.634	0.3
286.005	0.34
286.376	0.29
286.747	0.31
287.119	0.33
287.49	0.32
287.861	0.29
288.232	0.19
288.603	0.25
288.974	0.22
289.345	0.36
289.716	0.33
290.087	0.25
290.458	0.28
290.829	0.35
291.2	0.3
291.571	0.32
291.941	0.27
292.312	0.25
292.683	0.3
293.054	0.21
293.424	0.36
293.795	0.27
294.166	0.28
294.536	0.22
294.907	0.29
295.277	0.26
295.648	0.32
296.018	0.28
296.389	0.37
296.759	0.27
297.13	0.29
297.5	0.21
297.871	0.3
298.241	0.31
298.611	0.33
298.981	0.31
299.352	0.28
299.722	0.26
300.092	0.21
300.462	0.24
300.832	0.27
301.202	0.29
301.573	0.21
301.943	0.25
302.313	0.26
302.683	0.25
303.053	0.24
303.422	0.22
303.792	0.25
304.162	0.23
304.532	0.24
304.902	0.23
305.272	0.25
305.641	0.26
306.011	0.26
306.381	0.26
306.75	0.26
307.12	0.28
307.49	0.27
307.859	0.28
308.229	0.29
308.598	0.28
308.968	0.28
309.337	0.3
309.707	0.31
310.076	0.3
310.445	0.31
310.815	0.31
311.184	0.31
311.553	0.32
311.923	0.31
312.292	0.32
312.661	0.32
313.03	0.32
313.399	0.32
313.768	0.33
314.137	0.33
314.506	0.33
314.875	0.33
315.244	0.33
315.613	0.32
315.982	0.33
316.351	0.33
316.72	0.31
317.089	0.31
317.458	0.31
317.826	0.32
318.195	0.32
318.564	0.31
318.933	0.31
319.301	0.31
319.67	0.3
320.038	0.3
320.407	0.3
320.775	0.3
321.144	0.3
321.512	0.29
321.881	0.29
322.249	0.29
322.618	0.28
322.986	0.28
323.354	0.28
323.723	0.28
324.091	0.28
324.459	0.27
324.827	0.27
325.195	0.27
325.564	0.27
325.932	0.27
326.3	0.27
326.668	0.27
327.036	0.27
327.404	0.27
327.772	0.27
328.14	0.28
328.508	0.27
328.875	0.27
329.243	0.27
329.611	0.27
329.979	0.28
330.346	0.28
330.714	0.28
331.082	0.29
331.449	0.28
331.817	0.28
332.185	0.28
332.552	0.29
332.92	0.29
333.287	0.3
333.655	0.3
334.022	0.3
334.389	0.3
334.757	0.31
335.124	0.31
335.491	0.32
335.859	0.32
336.226	0.32
336.593	0.32
336.96	0.33
337.327	0.33
337.695	0.34
338.062	0.34
338.429	0.34
338.796	0.35
339.163	0.35
339.53	0.36
339.897	0.36
340.263	0.37
340.63	0.38
340.997	0.39
341.364	0.39
341.731	0.4
342.097	0.4
342.464	0.41
342.831	0.42
343.197	0.43
343.564	0.43
343.931	0.44
344.297	0.45
344.664	0.46
345.03	0.46
345.396	0.47
345.763	0.47
346.129	0.48
346.496	0.48
346.862	0.49
347.228	0.49
347.594	0.5
347.961	0.51
348.327	0.52
348.693	0.52
349.059	0.53
349.425	0.54
349.791	0.55
350.157	0.57
350.523	0.57
350.889	0.58
351.255	0.59
351.621	0.6
351.987	0.62
352.353	0.62
352.719	0.64
353.084	0.65
353.45	0.66
353.816	0.68
354.181	0.69
354.547	0.7
354.913	0.71
355.278	0.73
355.644	0.74
356.009	0.77
356.375	0.77
356.74	0.79
357.106	0.81
357.471	0.82
357.836	0.84
358.202	0.85
358.567	0.87
358.932	0.87
359.297	0.89
359.663	0.91
360.028	0.92
360.393	0.94
360.758	0.94
361.123	0.96
361.488	0.98
361.853	0.97
362.218	0.99
362.583	0.98
362.948	1
363.312	1.02
363.677	1.03
364.042	1.05
364.407	1.05
364.772	1.09
365.136	1.1
365.501	1.12
365.865	1.14
366.23	1.14
366.595	1.17
366.959	1.2
367.324	1.23
367.688	1.23
368.052	1.25
368.417	1.26
368.781	1.27
369.145	1.3
369.51	1.29
369.874	1.31
370.238	1.3
370.602	1.31
370.967	1.29
371.331	1.29
371.695	1.28
372.059	1.27
372.423	1.27
372.787	1.26
373.151	1.26
373.515	1.27
373.878	1.25
374.242	1.26
374.606	1.26
374.97	1.25
375.334	1.25
375.697	1.26
376.061	1.26
376.425	1.26
376.788	1.27
377.152	1.26
377.515	1.3
377.879	1.31
378.242	1.31
378.606	1.32
378.969	1.33
379.333	1.36
379.696	1.35
380.059	1.39
380.422	1.39
380.786	1.42
381.149	1.44
381.512	1.48
381.875	1.5
382.238	1.53
382.601	1.56
382.964	1.59
383.327	1.64
383.69	1.67
384.053	1.68
384.416	1.74
384.779	1.73
385.142	1.78
385.504	1.83
385.867	1.8
386.23	1.81
386.593	1.86
386.955	1.85
387.318	1.82
387.68	1.86
388.043	1.79
388.405	1.85
388.768	1.8
389.13	1.78
389.493	1.78
389.855	1.78
390.217	1.76
390.58	1.79
390.942	1.8
391.304	1.79
391.666	1.77
392.028	1.83
392.391	1.88
392.753	1.88
393.115	1.92
393.477	1.93
393.839	1.96
394.201	2.02
394.563	2.05
394.924	2.13
395.286	2.12
395.648	2.11
396.01	2.16
396.371	2.14
396.733	2.14
397.095	2.12
397.456	2.09
397.818	2.14
398.18	2.13
398.541	2.13
398.903	2.19
399.264	2.09
399.625	2.08
399.987	2.03
400.348	2.03
400.709	1.96
401.071	1.95
401.432	1.88
401.793	1.77
402.154	1.71
402.515	1.61
402.876	1.53
403.238	1.43
403.599	1.34
403.96	1.26
404.32	1.17
404.681	1.09
405.042	1.01
405.403	0.96
405.764	0.89
406.125	0.83
406.485	0.78
406.846	0.73
407.207	0.68
407.567	0.64
407.928	0.61
408.288	0.57
408.649	0.55
409.009	0.51
409.37	0.48
409.73	0.46
410.091	0.44
410.451	0.41
410.811	0.4
411.171	0.39
411.532	0.37
411.892	0.35
412.252	0.34
412.612	0.32
412.972	0.31
413.332	0.3
413.692	0.29
414.052	0.28
414.412	0.28
414.772	0.26
415.132	0.26
415.492	0.25
415.851	0.24
416.211	0.23
416.571	0.23
416.931	0.22
417.29	0.22
417.65	0.21
418.009	0.21
418.369	0.2
418.728	0.2
419.088	0.2
419.447	0.2
419.807	0.19
420.166	0.19
420.525	0.18
420.884	0.18
421.244	0.17
421.603	0.17
421.962	0.17
422.321	0.16
422.68	0.16
423.039	0.16
423.398	0.16
423.757	0.16
424.116	0.16
424.475	0.15
424.834	0.15
425.193	0.15
425.551	0.14
425.91	0.15
426.269	0.14
426.628	0.15
426.986	0.14
427.345	0.14
427.703	0.14
428.062	0.14
428.42	0.13
428.779	0.13
429.137	0.14
429.496	0.13
429.854	0.13
430.212	0.13
430.57	0.13
430.929	0.13
431.287	0.12
431.645	0.12
432.003	0.12
432.361	0.12
432.719	0.12
433.077	0.12
433.435	0.12
433.793	0.12
434.151	0.11
434.509	0.11
434.866	0.11
435.224	0.11
435.582	0.11
435.94	0.11
436.297	0.11
436.655	0.11
437.012	0.12
437.37	0.11
437.727	0.1
438.085	0.1
438.442	0.1
438.8	0.11
439.157	0.11
439.514	0.1
439.872	0.1
440.229	0.1
440.586	0.11
440.943	0.09
441.3	0.1
441.657	0.1
442.014	0.1
442.371	0.1
442.728	0.1
443.085	0.09
443.442	0.09
443.799	0.09
444.156	0.09
444.513	0.09
444.869	0.09
445.226	0.09
445.583	0.09
445.939	0.08
446.296	0.08
446.652	0.09
447.009	0.09
447.365	0.08
447.722	0.09
448.078	0.08
448.434	0.08
448.791	0.08
449.147	0.09
449.503	0.09
449.859	0.08
450.215	0.08
450.571	0.08
450.928	0.08
451.284	0.07
451.64	0.07
451.995	0.07
452.351	0.07
452.707	0.07
453.063	0.07
453.419	0.07
453.775	0.07
454.13	0.07
454.486	0.06
454.842	0.06
455.197	0.05
455.553	0.07
455.908	0.06
456.264	0.06
456.619	0.06
456.975	0.06
457.33	0.05
457.685	0.05
458.04	0.05
458.396	0.05
458.751	0.04
459.106	0.05
459.461	0.05
459.816	0.05
460.171	0.05
460.526	0.05
460.881	0.03
461.236	0.04
461.591	0.03
461.946	0.03
462.301	0.03
462.655	0.03
463.01	0.02
463.365	0.03
463.719	0.03
464.074	0.02
464.428	0.02
464.783	0.02
465.137	0.01
465.492	0.01
465.846	0.01
466.201	0.02
466.555	0.02
466.909	0.02
467.263	0.02
467.618	0.02
467.972	0.02
468.326	0.01
468.68	0.01
469.034	0.01
469.388	0.01
469.742	0.01
470.096	0.01
470.45	0.02
470.804	0.02
471.157	0.02
471.511	0.02
471.865	0.02
472.218	0.02
472.572	0.02
472.926	0.02
473.279	0.03
473.633	0.03
473.986	0.03
474.34	0.04
474.693	0.04
475.046	0.05
475.4	0.05
475.753	0.06
476.106	0.06
476.459	0.06
476.812	0.07
477.165	0.08
477.519	0.07
477.872	0.08
478.224	0.08
478.577	0.08
478.93	0.09
479.283	0.09
479.636	0.09
479.989	0.1
480.341	0.09
480.694	0.1
481.047	0.11
481.399	0.11
481.752	0.11
482.104	0.11
482.457	0.12
482.809	0.12
483.162	0.12
483.514	0.12
483.866	0.13
484.219	0.13
484.571	0.13
484.923	0.13
485.275	0.13
485.627	0.14
485.979	0.13
486.331	0.14
486.683	0.14
487.035	0.14
487.387	0.14
487.739	0.15
488.091	0.15
488.443	0.16
488.794	0.15
489.146	0.16
489.498	0.16
489.849	0.16
490.201	0.16
490.552	0.16
490.904	0.17
491.255	0.17
491.607	0.17
491.958	0.17
492.309	0.17
492.661	0.18
493.012	0.18
493.363	0.18
493.714	0.19
494.065	0.19
494.416	0.19
494.767	0.19
495.118	0.19
495.469	0.2
495.82	0.2
496.171	0.2
496.522	0.21
496.872	0.2
497.223	0.21
497.574	0.21
497.924	0.21
498.275	0.21
498.626	0.22
498.976	0.22
499.327	0.22
499.677	0.23
500.027	0.23
500.378	0.23
500.728	0.23
501.078	0.24
501.428	0.24
501.779	0.24
502.129	0.24
502.479	0.25
502.829	0.25
503.179	0.25
503.529	0.26
503.879	0.25
504.229	0.26
504.578	0.26
504.928	0.26
505.278	0.27
505.628	0.27
505.977	0.27
506.327	0.28
506.676	0.28
507.026	0.28
507.375	0.28
507.725	0.29
508.074	0.29
508.424	0.29
508.773	0.29
509.122	0.29
509.471	0.29
509.82	0.3
510.17	0.31
510.519	0.31
510.868	0.31
511.217	0.31
511.566	0.31
511.915	0.32
512.263	0.32
512.612	0.33
512.961	0.32
513.31	0.33
513.659	0.33
514.007	0.33
514.356	0.34
514.704	0.34
515.053	0.34
515.401	0.34
515.75	0.35
516.098	0.35
516.447	0.35
516.795	0.35
517.143	0.36
517.491	0.35
517.839	0.36
518.188	0.37
518.536	0.37
518.884	0.37
519.232	0.37
519.58	0.37
519.928	0.38
520.275	0.38
520.623	0.38
520.971	0.38
521.319	0.39
521.666	0.4
522.014	0.4
522.362	0.4
522.709	0.4
523.057	0.4
523.404	0.4
523.752	0.41
524.099	0.41
524.446	0.41
524.794	0.41
525.141	0.42
525.488	0.42
525.835	0.42
526.182	0.43
526.529	0.43
526.876	0.43
527.223	0.44
527.57	0.44
527.917	0.44
528.264	0.44
528.611	0.45
528.958	0.45
529.304	0.46
529.651	0.46
529.998	0.46
530.344	0.46
530.691	0.47
531.037	0.47
531.384	0.48
531.73	0.48
532.076	0.48
532.423	0.48
532.769	0.48
533.115	0.48
533.461	0.49
533.807	0.5
534.154	0.5
534.5	0.5
534.846	0.51
535.192	0.51
535.537	0.51
535.883	0.51
536.229	0.51
536.575	0.52
536.921	0.53
537.266	0.53
537.612	0.53
537.957	0.53
538.303	0.54
538.649	0.54
538.994	0.54
539.339	0.55
539.685	0.56
540.03	0.56
540.375	0.56
540.721	0.57
541.066	0.57
541.411	0.57
541.756	0.57
542.101	0.58
542.446	0.59
542.791	0.59
543.136	0.59
543.481	0.6
543.825	0.6
544.17	0.6
544.515	0.6
544.86	0.61
545.204	0.62
545.549	0.62
545.893	0.62
546.238	0.63
546.582	0.63
546.927	0.64
547.271	0.64
547.615	0.64
547.96	0.65
548.304	0.65
548.648	0.66
548.992	0.66
549.336	0.66
549.68	0.66
550.024	0.67
550.368	0.67
550.712	0.67
551.056	0.68
551.4	0.68
551.743	0.69
552.087	0.69
552.431	0.69
552.774	0.69
553.118	0.7
553.462	0.7
553.805	0.7
554.148	0.7
554.492	0.71
554.835	0.71
555.178	0.7
555.522	0.71
555.865	0.71
556.208	0.71
556.551	0.72
556.894	0.73
557.237	0.72
557.58	0.73
557.923	0.73
558.266	0.73
558.609	0.74
558.952	0.73
559.294	0.73
559.637	0.74
559.98	0.74
560.322	0.75
560.665	0.74
561.007	0.74
561.35	0.75
561.692	0.75
562.034	0.75
562.377	0.76
562.719	0.75
563.061	0.75
563.403	0.76
563.745	0.75
564.088	0.76
564.43	0.76
564.772	0.76
565.113	0.76
565.455	0.77
565.797	0.77
566.139	0.77
566.481	0.77
566.822	0.77
567.164	0.77
567.506	0.77
567.847	0.77
568.189	0.77
568.53	0.78
568.872	0.78
569.213	0.78
569.554	0.78
569.895	0.78
570.237	0.78
570.578	0.78
570.919	0.78
571.26	0.78
571.601	0.78
571.942	0.78
572.283	0.78
572.624	0.78
572.965	0.78
573.306	0.79
573.646	0.78
573.987	0.78
574.328	0.78
574.668	0.79
575.009	0.79
575.349	0.79
575.69	0.79
576.03	0.79
576.37	0.78
576.711	0.78
577.051	0.78
577.391	0.79
577.731	0.79
578.072	0.79
578.412	0.8
578.752	0.8
579.092	0.79
579.431	0.79
579.771	0.77
580.111	0.75
580.451	0.77
580.791	0.79
581.13	0.79
581.47	0.8
581.81	0.8
582.149	0.8
582.489	0.8
582.828	0.8
583.167	0.77
583.507	0.74
583.846	0.72
584.185	0.75
584.525	0.78
584.864	0.8
585.203	0.82
585.542	0.82
585.881	0.82
586.22	0.83
586.559	0.82
586.898	0.82
587.236	0.81
587.575	0.81
587.914	0.82
588.252	0.83
588.591	0.84
588.93	0.85
589.268	0.84
589.607	0.85
589.945	0.85
590.283	0.85
590.622	0.86
590.96	0.86
591.298	0.87
591.636	0.87
591.974	0.88
592.313	0.88
592.651	0.88
592.989	0.88
593.326	0.89
593.664	0.89
594.002	0.9
594.34	0.89
594.678	0.9
595.015	0.9
595.353	0.89
595.691	0.9
596.028	0.91
596.366	0.91
596.703	0.92
597.04	0.93
597.378	0.93
597.715	0.94
598.052	0.93
598.389	0.94
598.726	0.94
599.064	0.94
599.401	0.94
599.738	0.94
600.074	0.95
600.411	0.95
600.748	0.95
601.085	0.95
601.422	0.95
601.758	0.95
602.095	0.95
602.432	0.95
602.768	0.95
603.105	0.95
603.441	0.96
603.777	0.96
604.114	0.96
604.45	0.96
604.786	0.96
605.122	0.96
605.459	0.96
605.795	0.96
606.131	0.96
606.467	0.96
606.803	0.96
607.139	0.96
607.474	0.96
607.81	0.95
608.146	0.95
608.482	0.95
608.817	0.95
609.153	0.95
609.488	0.94
609.824	0.94
610.159	0.94
610.495	0.94
610.83	0.94
611.165	0.93
611.5	0.93
611.836	0.92
612.171	0.92
612.506	0.93
612.841	0.92
613.176	0.92
613.511	0.92
613.845	0.91
614.18	0.91
614.515	0.91
614.85	0.9
615.184	0.91
615.519	0.9
615.854	0.9
616.188	0.9
616.523	0.89
616.857	0.89
617.191	0.89
617.526	0.88
617.86	0.89
618.194	0.88
618.528	0.88
618.862	0.88
619.196	0.87
619.53	0.88
619.864	0.87
620.198	0.87
620.532	0.87
620.866	0.87
621.2	0.86
621.533	0.86
621.867	0.87
622.201	0.86
622.534	0.85
622.868	0.85
623.201	0.85
623.534	0.83
623.868	0.83
624.201	0.84
624.534	0.83
624.868	0.83
625.201	0.83
625.534	0.82
625.867	0.82
626.2	0.81
626.533	0.81
626.865	0.81
627.198	0.8
627.531	0.8
627.864	0.79
628.196	0.79
628.529	0.79
628.862	0.79
629.194	0.78
629.527	0.78
629.859	0.77
630.191	0.77
630.524	0.77
630.856	0.77
631.188	0.76
631.52	0.75
631.852	0.74
632.184	0.74
632.516	0.73
632.848	0.73
633.18	0.73
633.512	0.72
633.844	0.72
634.175	0.71
634.507	0.7
634.839	0.7
635.17	0.69
635.502	0.68
635.833	0.68
636.165	0.68
636.496	0.67
636.827	0.66
637.159	0.66
637.49	0.65
637.821	0.65
638.152	0.64
638.483	0.64
638.814	0.64
639.145	0.63
639.476	0.63
639.807	0.62
640.137	0.62
640.468	0.61
640.799	0.61
641.129	0.61
641.46	0.6
641.791	0.59
642.121	0.59
642.451	0.59
642.782	0.58
643.112	0.58
643.442	0.57
643.773	0.57
644.103	0.57
644.433	0.56
644.763	0.56
645.093	0.56
645.423	0.56
645.753	0.55
646.082	0.55
646.412	0.55
646.742	0.54
647.072	0.54
647.401	0.54
647.731	0.54
648.06	0.54
648.39	0.54
648.719	0.53
649.048	0.53
649.378	0.53
649.707	0.53
650.036	0.52
650.365	0.52
650.694	0.52
651.023	0.52
651.352	0.51
651.681	0.51
652.01	0.51
652.339	0.51
652.668	0.52
652.996	0.52
653.325	0.52
653.654	0.51
653.982	0.51
654.311	0.51
654.639	0.51
654.967	0.51
655.296	0.51
655.624	0.51
655.952	0.51
656.28	0.51
656.609	0.5
656.937	0.51
657.265	0.51
657.593	0.41
657.92	0.28
658.248	0.23
658.576	0.24
658.904	0.35
659.231	0.44
659.559	0.49
659.887	0.49
660.214	0.5
660.542	0.5
660.869	0.5
661.196	0.5
661.524	0.5
661.851	0.49
662.178	0.49
662.505	0.49
662.832	0.49
663.159	0.5
663.486	0.49
663.813	0.49
664.14	0.49
664.467	0.49
664.794	0.49
665.12	0.49
665.447	0.49
665.774	0.48
666.1	0.48
666.427	0.48
666.753	0.48
667.079	0.48
667.406	0.47
667.732	0.47
668.058	0.47
668.384	0.48
668.71	0.48
669.036	0.47
669.362	0.47
669.688	0.46
670.014	0.46
670.34	0.46
670.666	0.46
670.991	0.46
671.317	0.46
671.643	0.45
671.968	0.45
672.294	0.45
672.619	0.45
672.945	0.44
673.27	0.44
673.595	0.44
673.92	0.43
674.246	0.43
674.571	0.43
674.896	0.43
675.221	0.43
675.546	0.42
675.87	0.42
676.195	0.41
676.52	0.41
676.845	0.41
677.169	0.41
677.494	0.41
677.819	0.4
678.143	0.4
678.468	0.39
678.792	0.39
679.116	0.39
679.44	0.39
679.765	0.39
680.089	0.38
680.413	0.37
680.737	0.37
681.061	0.37
681.385	0.37
681.709	0.37
682.033	0.36
682.356	0.36
682.68	0.36
683.004	0.35
683.327	0.35
683.651	0.34
683.974	0.34
684.298	0.34
684.621	0.33
684.944	0.32
685.268	0.32
685.591	0.32
685.914	0.32
686.237	0.32
686.56	0.31
686.883	0.31
687.206	0.3
687.529	0.3
687.852	0.29
688.175	0.29
688.497	0.29
688.82	0.29
689.142	0.29
689.465	0.28
689.787	0.28
690.11	0.28
690.432	0.28
690.755	0.27
691.077	0.27
691.399	0.26
691.721	0.26
692.043	0.26
692.365	0.25
692.687	0.25
693.009	0.25
693.331	0.24
693.653	0.24
693.974	0.24
694.296	0.24
694.618	0.23
694.939	0.23
695.261	0.23
695.582	0.22
695.904	0.22
696.225	0.22
696.546	0.22
696.868	0.22
697.189	0.21
697.51	0.21
697.831	0.21
698.152	0.21
698.473	0.21
698.794	0.2
699.114	0.2
699.435	0.19
699.756	0.19
700.077	0.19
700.397	0.19
700.718	0.19
701.038	0.19
701.359	0.19
701.679	0.19
701.999	0.19
702.32	0.18
702.64	0.18
702.96	0.18
703.28	0.18
703.6	0.18
703.92	0.18
704.24	0.17
704.56	0.17
704.879	0.17
705.199	0.17
705.519	0.17
705.838	0.17
706.158	0.17
706.478	0.17
706.797	0.17
707.116	0.17
707.436	0.17
707.755	0.16
708.074	0.16
708.393	0.16
708.712	0.16
709.031	0.15
709.35	0.15
709.669	0.15
709.988	0.15
710.307	0.15
710.626	0.15
710.944	0.16
711.263	0.16
711.582	0.16
711.9	0.16
712.219	0.16
712.537	0.16
712.855	0.16
713.174	0.16
713.492	0.16
713.81	0.16
714.128	0.16
714.446	0.16
714.764	0.15
715.082	0.15
715.4	0.15
715.718	0.15
716.035	0.15
716.353	0.16
716.671	0.16
716.988	0.16
717.306	0.15
717.623	0.16
717.941	0.16
718.258	0.16
718.575	0.16
718.893	0.16
719.21	0.16
719.527	0.16
719.844	0.16
720.161	0.16
720.478	0.16
720.795	0.16
721.112	0.16
721.428	0.16
721.745	0.16
722.062	0.16
722.378	0.16
722.695	0.17
723.011	0.16
723.328	0.16
723.644	0.17
723.96	0.17
724.276	0.17
724.593	0.17
724.909	0.17
725.225	0.17
725.541	0.17
725.857	0.17
726.173	0.17
726.488	0.17
726.804	0.17
727.12	0.17
727.435	0.17
727.751	0.17
728.067	0.17
728.382	0.17
728.697	0.17
729.013	0.17
729.328	0.17
729.643	0.18
729.958	0.18
730.273	0.18
730.588	0.18
730.903	0.18
731.218	0.18
731.533	0.18
731.848	0.18
732.163	0.18
732.477	0.18
732.792	0.18
733.107	0.17
733.421	0.18
733.736	0.18
734.05	0.18
734.364	0.18
734.678	0.18
734.993	0.18
735.307	0.18
735.621	0.17
735.935	0.17
736.249	0.18
736.563	0.18
736.877	0.18
737.19	0.17
737.504	0.18
737.818	0.17
738.131	0.18
738.445	0.18
738.758	0.18
739.072	0.18
739.385	0.17
739.698	0.17
740.012	0.17
740.325	0.17
740.638	0.17
740.951	0.16
741.264	0.16
741.577	0.16
741.89	0.16
742.203	0.16
742.515	0.16
742.828	0.16
743.141	0.16
743.453	0.16
743.766	0.16
744.078	0.15
744.391	0.16
744.703	0.15
745.015	0.15
745.327	0.15
745.639	0.15
745.952	0.15
746.264	0.15
746.575	0.15
746.887	0.15
747.199	0.14
747.511	0.14
747.823	0.14
748.134	0.14
748.446	0.14
748.757	0.14
749.069	0.13
749.38	0.13
749.692	0.13
750.003	0.13
750.314	0.13
750.625	0.13
750.936	0.12
751.248	0.12
751.559	0.12
751.869	0.12
752.18	0.12
752.491	0.12
752.802	0.11
753.112	0.11
753.423	0.11
753.734	0.11
754.044	0.11
754.355	0.11
754.665	0.1
754.975	0.1
755.285	0.1
755.596	0.1
755.906	0.09
756.216	0.09
756.526	0.09
756.836	0.09
757.146	0.09
757.455	0.09
757.765	0.09
758.075	0.08
758.385	0.08
758.694	0.08
759.004	0.08
759.313	0.08
759.622	0.08
759.932	0.08
760.241	0.07
760.55	0.07
760.859	0.07
761.168	0.07
761.477	0.07
761.786	0.07
762.095	0.07
762.404	0.07
762.713	0.07
763.021	0.07
763.33	0.07
763.639	0.07
763.947	0.07
764.256	0.07
764.564	0.07
764.872	0.07
765.181	0.07
765.489	0.07
765.797	0.07
766.105	0.07
766.413	0.07
766.721	0.06
767.029	0.06
767.337	0.06
767.644	0.06
767.952	0.06
768.26	0.06
768.567	0.06
768.875	0.06
769.182	0.05
769.49	0.05
769.797	0.05
770.104	0.05
770.411	0.05
770.718	0.06
771.026	0.06
771.333	0.06
771.639	0.06
771.946	0.06
772.253	0.06
772.56	0.06
772.867	0.05
773.173	0.05
773.48	0.05
773.786	0.05
774.093	0.05
774.399	0.05
774.705	0.05
775.012	0.05
775.318	0.05
775.624	0.05
775.93	0.05
776.236	0.05
776.542	0.05
776.848	0.05
777.154	0.05
777.459	0.05
777.765	0.05
778.071	0.05
778.376	0.05
778.682	0.05
778.987	0.04
779.292	0.04
779.598	0.04
779.903	0.04
780.208	0.04
780.513	0.04
780.818	0.04
781.123	0.04
781.428	0.04
781.733	0.04
782.038	0.04
782.343	0.04
782.647	0.04
782.952	0.04
783.256	0.04
783.561	0.04
783.865	0.04
784.17	0.04
784.474	0.04
784.778	0.04
785.082	0.04
785.386	0.04
785.69	0.04
785.994	0.04
786.298	0.04
786.602	0.04
786.906	0.04
787.209	0.04
787.513	0.04
787.817	0.04
788.12	0.04
788.424	0.04
788.727	0.04
789.03	0.05
789.333	0.05
789.637	0.05
789.94	0.05
790.243	0.05
790.546	0.04
790.849	0.05
791.152	0.05
791.454	0.04
791.757	0.05
792.06	0.05
792.362	0.05
792.665	0.05
792.967	0.04
793.27	0.04
793.572	0.04
793.874	0.04
794.177	0.04
794.479	0.04
794.781	0.04
795.083	0.04
795.385	0.04
795.687	0.04
795.989	0.04
796.29	0.04
796.592	0.04
796.894	0.04
797.195	0.04
797.497	0.04
797.798	0.05
798.1	0.04
798.401	0.04
798.702	0.05
799.003	0.04
799.304	0.05
799.605	0.05
799.906	0.05
800.207	0.05
800.508	0.05
800.809	0.04
801.11	0.05
801.41	0.05
801.711	0.05
802.011	0.05
802.312	0.05
802.612	0.05
802.913	0.05
803.213	0.05
803.513	0.05
803.813	0.05
804.113	0.04
804.413	0.04
804.713	0.04
805.013	0.04
805.313	0.04
805.613	0.04
805.912	0.03
806.212	0.04
806.511	0.03
806.811	0.03
807.11	0.03
807.41	0.03
807.709	0.03
808.008	0.03
808.307	0.03
808.606	0.03
808.905	0.03
809.204	0.04
809.503	0.04
809.802	0.04
810.101	0.04
810.399	0.04
810.698	0.04
810.997	0.03
811.295	0.03
811.593	0.04
811.892	0.04
812.19	0.04
812.488	0.04
812.786	0.04
813.084	0.04
813.383	0.04
813.68	0.04
813.978	0.04
814.276	0.04
814.574	0.04
814.872	0.04
815.169	0.05
815.467	0.05
815.764	0.05
816.062	0.05
816.359	0.04
816.656	0.05
816.954	0.04
817.251	0.04
817.548	0.04
817.845	0.04
818.142	0.04
818.439	0.04
818.735	0.04
819.032	0.05
819.329	0.04
819.626	0.04
819.922	0.04
820.219	0.04
820.515	0.04
820.811	0.04
821.108	0.04
821.404	0.04
821.7	0.04
821.996	0.04
822.292	0.05
822.588	0.04
822.884	0.05
823.18	0.05
823.475	0.05
823.771	0.05
824.067	0.05
824.362	0.05
824.658	0.05
824.953	0.05
825.249	0.05
825.544	0.05
825.839	0.05
826.134	0.04
826.429	0.04
826.724	0.04
827.019	0.05
827.314	0.05
827.609	0.04
827.904	0.04
828.198	0.05
828.493	0.04
828.787	0.04
829.082	0.04
829.376	0.04
829.671	0.04
829.965	0.04
830.259	0.04
830.553	0.05
830.847	0.04
831.141	0.04
831.435	0.04
831.729	0.04
832.023	0.04
832.317	0.04
832.61	0.05
832.904	0.05
833.197	0.05
833.491	0.05
833.784	0.06
834.077	0.06
834.371	0.05
834.664	0.05
834.957	0.05
835.25	0.05
835.543	0.06
835.836	0.05
836.129	0.05
836.421	0.05
836.714	0.06
837.007	0.05
837.299	0.04
837.592	0.05
837.884	0.04
838.177	0.05
838.469	0.06
838.761	0.04
839.053	0.05
839.345	0.05
839.637	0.04
839.929	0.03
840.221	0.04
840.513	0.03
840.805	0.04
841.096	0.04
841.388	0.05
841.68	0.05
841.971	0.04
842.262	0.03
842.554	0.05
842.845	0.04
843.136	0.05
843.427	0.05
843.718	0.04
844.009	0.03
844.3	0.05
844.591	0.05
844.882	0.05
845.173	0.05
845.463	0.04
845.754	0.04
846.044	0.05
846.335	0.04
846.625	0.05
846.915	0.04
847.206	0.05
847.496	0.04
847.786	0.05
848.076	0.06
848.366	0.04
848.656	0.04
848.945	0.04
849.235	0.05
849.525	0.05
849.814	0.03
850.104	0.05
850.393	0.04
850.683	0.05
850.972	0.04
851.261	0.05
851.551	0.05
851.84	0.05
852.129	0.04
852.418	0.04
852.707	0.06
852.995	0.04
853.284	0.06
853.573	0.02
853.862	0.04
854.15	0.05
854.439	0.05
854.727	0.05
855.015	0.03
855.304	0.03
855.592	0.04
855.88	0.05
856.168	0.04
856.456	0.03
856.744	0.04
857.032	0.03
857.32	0.05
857.607	0.05
857.895	0.04
858.183	0.05
858.47	0.06
858.757	0.04
859.045	0.05
859.332	0.05
859.619	0.03
859.907	0.04
860.194	0.04
860.481	0.04
860.768	0.05
861.054	0.04
861.341	0.03
861.628	0.03
861.915	0.03
862.201	0.04
862.488	0.05
862.774	0.03
863.061	0.03
863.347	0.03
863.633	0.05
863.919	0.05
864.205	0.03
864.491	0.03
864.777	0.03
865.063	0.03
865.349	0.05
865.635	0.01
865.92	0.03
866.206	0.04
866.492	0.04
866.777	0.05
867.062	0.01
867.348	0.06
867.633	0.04
867.918	0.01
868.203	0.06
868.488	0.03
868.773	0.06
869.058	0.01
869.343	0.06
869.628	0.01
869.912	-0
870.197	0.03
870.482	0.03
870.766	0.01
871.05	-0.02
871.335	-0
871.619	-0
871.903	0.03
872.187	0.05
872.471	0.06
872.755	0
873.039	0.03
873.323	0.01
873.607	0.04
873.89	-0
874.174	-0.02
874.458	-0.05
874.741	0
875.024	-0.01
875.308	-0.04
875.591	0.02
875.874	0.05
876.157	-0.07
876.44	-0.02
876.723	0.03
877.006	-0.01
877.289	-0.03
877.572	0.05
877.854	-0.02
878.137	0.07
878.42	-0.04
878.702	0.01
878.984	-0.04
879.267	-0.06
879.549	0.06
879.831	-0.03
880.113	0.03
880.395	-0.01
880.677	-0.09
880.959	-0.09
