Data from Rubpy_EV_1200_EDTA_Buffered_Absorbance_14-23-37-588.txt Node
Date: Tue Jun 30 14:23:37 BST 2026
User: fpm-admin
Spectrometer: OFX00224
Trigger mode: 0
Integration Time (sec): 7.000000E-2
Scans to average: 3
Nonlinearity correction enabled: false
Boxcar width: 0
Storing dark spectrum: false
XAxis mode: Wavelengths
Number of Pixels in Spectrum: 2136
>>>>>Begin Spectral Data<<<<<
154.91	0.03
155.289	-0
155.669	-0.24
156.048	-0.1
156.428	0.15
156.807	-0
157.186	0.28
157.566	-0
157.945	0.5
158.325	-0.27
158.704	-0
159.083	-0
159.462	0.09
159.842	-0.08
160.221	-0.04
160.6	-0.27
160.979	0.27
161.359	-0.11
161.738	-0.15
162.117	-0
162.496	-0
162.875	-0.3
163.254	0.92
163.633	-0
164.012	-0
164.391	-0.15
164.77	-0.48
165.149	-0.08
165.528	-0
165.907	-0.28
166.286	-0
166.665	-0.41
167.044	0.06
167.423	-0.22
167.802	-0
168.181	-0
168.559	0.03
168.938	-0.06
169.317	-0.32
169.696	-1.15
170.074	-1.46
170.453	-0.15
170.832	-0.73
171.21	-0.37
171.589	0.37
171.968	0.78
172.346	0.03
172.725	-0
173.103	-0
173.482	-0
173.861	1.06
174.239	-0
174.617	-0
174.996	-0.1
175.374	-0.15
175.753	-0.92
176.131	-0
176.51	-0.16
176.888	-0
177.266	-0
177.645	-0.06
178.023	0.96
178.401	-0.41
178.779	0.01
179.158	-0.31
179.536	-0
179.914	-0.24
180.292	-0
180.67	-0.61
181.048	-0.24
181.427	-0.14
181.805	0.67
182.183	-0
182.561	-0
182.939	-0
183.317	-0.24
183.695	0.35
184.073	-0.8
184.451	-0.92
184.829	0.24
185.206	-0
185.584	0.79
185.962	-0.41
186.34	-0.23
186.718	-0
187.096	-0.35
187.473	-0
187.851	-0
188.229	-0.33
188.607	0.12
188.984	0.24
189.362	0.33
189.74	0.13
190.117	0.24
190.495	0.11
190.872	0.27
191.25	0.29
191.627	0.26
192.005	0.21
192.382	0.18
192.76	0.15
193.137	0.4
193.515	0.25
193.892	0.07
194.269	0.29
194.647	0.21
195.024	0.26
195.401	0.25
195.779	0.28
196.156	0.19
196.533	0.12
196.91	0.15
197.288	0.14
197.665	0.25
198.042	0.43
198.419	0.34
198.796	0.2
199.173	0.2
199.55	0.17
199.927	0.19
200.304	0.14
200.681	0.16
201.058	0.19
201.435	0.2
201.812	0.27
202.189	0.22
202.566	0.21
202.943	0.29
203.32	0.23
203.697	0.2
204.073	0.15
204.45	0.24
204.827	0.17
205.204	0.18
205.58	0.16
205.957	0.21
206.334	0.15
206.71	0.14
207.087	0.24
207.464	0.29
207.84	0.25
208.217	0.33
208.593	0.28
208.97	0.27
209.346	0.24
209.723	0.3
210.099	0.21
210.476	0.27
210.852	0.27
211.228	0.34
211.605	0.28
211.981	0.3
212.357	0.25
212.733	0.21
213.11	0.23
213.486	0.11
213.862	0.31
214.238	0.24
214.614	0.19
214.991	0.18
215.367	0.2
215.743	0.37
216.119	0.27
216.495	0.18
216.871	0.35
217.247	0.27
217.623	0.27
217.999	0.24
218.375	0.22
218.751	0.3
219.127	0.48
219.502	0.26
219.878	0.23
220.254	0.19
220.63	0.39
221.006	0.16
221.381	0.26
221.757	0.13
222.133	0.31
222.508	0.16
222.884	0.29
223.26	0.27
223.635	0.28
224.011	0.29
224.386	0.18
224.762	0.22
225.137	0.24
225.513	0.28
225.888	0.31
226.264	0.24
226.639	0.26
227.014	0.27
227.39	0.23
227.765	0.28
228.14	0.24
228.516	0.22
228.891	0.24
229.266	0.43
229.641	0.27
230.017	0.31
230.392	0.13
230.767	0.26
231.142	0.17
231.517	0.22
231.892	0.28
232.267	0.25
232.642	0.3
233.017	0.17
233.392	0.29
233.767	0.21
234.142	0.24
234.517	0.24
234.892	0.37
235.267	0.26
235.641	0.28
236.016	0.2
236.391	0.26
236.766	0.23
237.14	0.3
237.515	0.23
237.89	0.17
238.264	0.19
238.639	0.19
239.014	0.33
239.388	0.22
239.763	0.26
240.137	0.34
240.512	0.17
240.886	0.21
241.261	0.22
241.635	0.19
242.009	0.27
242.384	0.15
242.758	0.28
243.132	0.19
243.507	0.25
243.881	0.16
244.255	0.43
244.629	0.2
245.004	0.18
245.378	0.27
245.752	0.21
246.126	0.38
246.5	0.21
246.874	0.36
247.248	0.27
247.622	0.21
247.996	0.36
248.37	0.18
248.744	0.25
249.118	0.4
249.492	0.39
249.866	0.21
250.24	0.26
250.613	0.31
250.987	0.28
251.361	0.29
251.735	0.16
252.108	0.15
252.482	0.41
252.856	0.26
253.229	0.3
253.603	0.19
253.977	0.27
254.35	0.17
254.724	0.31
255.097	0.32
255.471	0.22
255.844	0.34
256.218	0.19
256.591	0.26
256.964	0.21
257.338	0.16
257.711	0.25
258.084	0.34
258.458	0.21
258.831	0.19
259.204	0.28
259.577	0.21
259.95	0.22
260.323	0.27
260.697	0.3
261.07	0.3
261.443	0.29
261.816	0.29
262.189	0.25
262.562	0.25
262.935	0.19
263.308	0.25
263.68	0.26
264.053	0.26
264.426	0.18
264.799	0.24
265.172	0.26
265.545	0.26
265.917	0.3
266.29	0.22
266.663	0.3
267.035	0.3
267.408	0.22
267.781	0.25
268.153	0.32
268.526	0.39
268.898	0.29
269.271	0.29
269.643	0.24
270.016	0.23
270.388	0.26
270.76	0.28
271.133	0.31
271.505	0.25
271.877	0.24
272.25	0.3
272.622	0.24
272.994	0.31
273.366	0.26
273.739	0.42
274.111	0.25
274.483	0.25
274.855	0.2
275.227	0.21
275.599	0.28
275.971	0.27
276.343	0.21
276.715	0.26
277.087	0.27
277.459	0.21
277.831	0.23
278.203	0.24
278.574	0.22
278.946	0.47
279.318	0.25
279.69	0.32
280.061	0.25
280.433	0.35
280.805	0.29
281.176	0.28
281.548	0.34
281.92	0.2
282.291	0.3
282.663	0.26
283.034	0.28
283.406	0.22
283.777	0.3
284.148	0.28
284.52	0.34
284.891	0.28
285.262	0.33
285.634	0.2
286.005	0.32
286.376	0.27
286.747	0.29
287.119	0.3
287.49	0.39
287.861	0.3
288.232	0.24
288.603	0.39
288.974	0.21
289.345	0.34
289.716	0.29
290.087	0.32
290.458	0.22
290.829	0.31
291.2	0.33
291.571	0.32
291.941	0.29
292.312	0.29
292.683	0.32
293.054	0.24
293.424	0.27
293.795	0.3
294.166	0.25
294.536	0.27
294.907	0.31
295.277	0.29
295.648	0.25
296.018	0.21
296.389	0.31
296.759	0.26
297.13	0.3
297.5	0.18
297.871	0.31
298.241	0.33
298.611	0.33
298.981	0.26
299.352	0.25
299.722	0.23
300.092	0.23
300.462	0.21
300.832	0.24
301.202	0.25
301.573	0.18
301.943	0.2
302.313	0.23
302.683	0.22
303.053	0.21
303.422	0.2
303.792	0.22
304.162	0.23
304.532	0.22
304.902	0.21
305.272	0.22
305.641	0.23
306.011	0.24
306.381	0.23
306.75	0.26
307.12	0.25
307.49	0.25
307.859	0.25
308.229	0.26
308.598	0.25
308.968	0.26
309.337	0.27
309.707	0.27
310.076	0.28
310.445	0.28
310.815	0.28
311.184	0.29
311.553	0.29
311.923	0.29
312.292	0.3
312.661	0.29
313.03	0.29
313.399	0.3
313.768	0.29
314.137	0.29
314.506	0.29
314.875	0.3
315.244	0.29
315.613	0.29
315.982	0.29
316.351	0.29
316.72	0.29
317.089	0.29
317.458	0.28
317.826	0.29
318.195	0.29
318.564	0.28
318.933	0.28
319.301	0.28
319.67	0.28
320.038	0.28
320.407	0.27
320.775	0.27
321.144	0.27
321.512	0.27
321.881	0.26
322.249	0.26
322.618	0.25
322.986	0.26
323.354	0.25
323.723	0.25
324.091	0.25
324.459	0.25
324.827	0.25
325.195	0.25
325.564	0.25
325.932	0.24
326.3	0.25
326.668	0.24
327.036	0.24
327.404	0.25
327.772	0.24
328.14	0.24
328.508	0.24
328.875	0.25
329.243	0.25
329.611	0.24
329.979	0.25
330.346	0.25
330.714	0.25
331.082	0.26
331.449	0.25
331.817	0.26
332.185	0.26
332.552	0.27
332.92	0.26
333.287	0.27
333.655	0.27
334.022	0.27
334.389	0.27
334.757	0.27
335.124	0.28
335.491	0.28
335.859	0.29
336.226	0.29
336.593	0.29
336.96	0.29
337.327	0.3
337.695	0.3
338.062	0.31
338.429	0.31
338.796	0.32
339.163	0.32
339.53	0.32
339.897	0.33
340.263	0.33
340.63	0.34
340.997	0.34
341.364	0.35
341.731	0.36
342.097	0.36
342.464	0.37
342.831	0.37
343.197	0.38
343.564	0.39
343.931	0.4
344.297	0.4
344.664	0.41
345.03	0.41
345.396	0.41
345.763	0.42
346.129	0.43
346.496	0.44
346.862	0.44
347.228	0.45
347.594	0.44
347.961	0.46
348.327	0.47
348.693	0.47
349.059	0.48
349.425	0.49
349.791	0.5
350.157	0.5
350.523	0.52
350.889	0.53
351.255	0.53
351.621	0.54
351.987	0.55
352.353	0.56
352.719	0.57
353.084	0.58
353.45	0.59
353.816	0.61
354.181	0.62
354.547	0.63
354.913	0.65
355.278	0.65
355.644	0.67
356.009	0.68
356.375	0.69
356.74	0.71
357.106	0.73
357.471	0.73
357.836	0.75
358.202	0.77
358.567	0.78
358.932	0.79
359.297	0.81
359.663	0.82
360.028	0.84
360.393	0.84
360.758	0.85
361.123	0.86
361.488	0.86
361.853	0.88
362.218	0.88
362.583	0.9
362.948	0.91
363.312	0.92
363.677	0.92
364.042	0.94
364.407	0.96
364.772	0.97
365.136	1
365.501	1
365.865	1.03
366.23	1.05
366.595	1.07
366.959	1.09
367.324	1.11
367.688	1.12
368.052	1.14
368.417	1.15
368.781	1.17
369.145	1.18
369.51	1.17
369.874	1.18
370.238	1.17
370.602	1.18
370.967	1.19
371.331	1.18
371.695	1.17
372.059	1.17
372.423	1.16
372.787	1.16
373.151	1.15
373.515	1.15
373.878	1.15
374.242	1.14
374.606	1.14
374.97	1.14
375.334	1.13
375.697	1.15
376.061	1.16
376.425	1.16
376.788	1.17
377.152	1.18
377.515	1.18
377.879	1.19
378.242	1.21
378.606	1.21
378.969	1.23
379.333	1.24
379.696	1.24
380.059	1.28
380.422	1.28
380.786	1.32
381.149	1.33
381.512	1.35
381.875	1.38
382.238	1.4
382.601	1.44
382.964	1.48
383.327	1.49
383.69	1.55
384.053	1.57
384.416	1.58
384.779	1.61
385.142	1.66
385.504	1.67
385.867	1.68
386.23	1.7
386.593	1.72
386.955	1.71
387.318	1.7
387.68	1.73
388.043	1.67
388.405	1.68
388.768	1.69
389.13	1.67
389.493	1.65
389.855	1.66
390.217	1.64
390.58	1.64
390.942	1.65
391.304	1.67
391.666	1.69
392.028	1.71
392.391	1.71
392.753	1.75
393.115	1.78
393.477	1.81
393.839	1.88
394.201	1.89
394.563	1.97
394.924	2
395.286	2.04
395.648	2.06
396.01	2.09
396.371	2.06
396.733	2.07
397.095	2.06
397.456	2.06
397.818	2.03
398.18	2.09
398.541	2.04
398.903	2.1
399.264	2.03
399.625	2.03
399.987	1.99
400.348	1.95
400.709	1.89
401.071	1.81
401.432	1.76
401.793	1.69
402.154	1.57
402.515	1.5
402.876	1.42
403.238	1.33
403.599	1.23
403.96	1.15
404.32	1.07
404.681	1.01
405.042	0.93
405.403	0.86
405.764	0.81
406.125	0.77
406.485	0.71
406.846	0.67
407.207	0.61
407.567	0.58
407.928	0.56
408.288	0.52
408.649	0.5
409.009	0.47
409.37	0.44
409.73	0.43
410.091	0.4
410.451	0.38
410.811	0.37
411.171	0.35
411.532	0.34
411.892	0.32
412.252	0.31
412.612	0.3
412.972	0.28
413.332	0.28
413.692	0.27
414.052	0.25
414.412	0.25
414.772	0.24
415.132	0.23
415.492	0.23
415.851	0.22
416.211	0.21
416.571	0.21
416.931	0.21
417.29	0.2
417.65	0.19
418.009	0.19
418.369	0.19
418.728	0.18
419.088	0.19
419.447	0.18
419.807	0.18
420.166	0.17
420.525	0.17
420.884	0.16
421.244	0.16
421.603	0.16
421.962	0.16
422.321	0.15
422.68	0.15
423.039	0.15
423.398	0.15
423.757	0.14
424.116	0.14
424.475	0.13
424.834	0.13
425.193	0.14
425.551	0.13
425.91	0.14
426.269	0.13
426.628	0.13
426.986	0.13
427.345	0.13
427.703	0.13
428.062	0.13
428.42	0.12
428.779	0.12
429.137	0.12
429.496	0.12
429.854	0.12
430.212	0.12
430.57	0.12
430.929	0.12
431.287	0.11
431.645	0.11
432.003	0.11
432.361	0.1
432.719	0.1
433.077	0.1
433.435	0.1
433.793	0.11
434.151	0.11
434.509	0.11
434.866	0.11
435.224	0.1
435.582	0.1
435.94	0.1
436.297	0.11
436.655	0.1
437.012	0.1
437.37	0.1
437.727	0.1
438.085	0.1
438.442	0.1
438.8	0.09
439.157	0.1
439.514	0.09
439.872	0.09
440.229	0.09
440.586	0.08
440.943	0.09
441.3	0.09
441.657	0.09
442.014	0.09
442.371	0.08
442.728	0.09
443.085	0.08
443.442	0.09
443.799	0.08
444.156	0.09
444.513	0.08
444.869	0.09
445.226	0.08
445.583	0.08
445.939	0.08
446.296	0.08
446.652	0.07
447.009	0.08
447.365	0.08
447.722	0.08
448.078	0.08
448.434	0.07
448.791	0.08
449.147	0.08
449.503	0.07
449.859	0.07
450.215	0.08
450.571	0.07
450.928	0.06
451.284	0.07
451.64	0.07
451.995	0.06
452.351	0.07
452.707	0.06
453.063	0.07
453.419	0.06
453.775	0.07
454.13	0.06
454.486	0.06
454.842	0.05
455.197	0.04
455.553	0.05
455.908	0.06
456.264	0.05
456.619	0.06
456.975	0.05
457.33	0.05
457.685	0.05
458.04	0.03
458.396	0.04
458.751	0.03
459.106	0.04
459.461	0.04
459.816	0.04
460.171	0.04
460.526	0.03
460.881	0.03
461.236	0.03
461.591	0.03
461.946	0.03
462.301	0.02
462.655	0.02
463.01	0.02
463.365	0.02
463.719	0.02
464.074	0.01
464.428	0.01
464.783	0.01
465.137	0.01
465.492	0
465.846	0.01
466.201	0.01
466.555	0.01
466.909	0.01
467.263	0.01
467.618	0.01
467.972	0.02
468.326	0.01
468.68	0.01
469.034	0.01
469.388	0
469.742	0.01
470.096	0
470.45	0.01
470.804	0.01
471.157	0.01
471.511	0.01
471.865	0.01
472.218	0.01
472.572	0.02
472.926	0.01
473.279	0.02
473.633	0.03
473.986	0.02
474.34	0.03
474.693	0.04
475.046	0.04
475.4	0.04
475.753	0.05
476.106	0.05
476.459	0.06
476.812	0.06
477.165	0.06
477.519	0.06
477.872	0.07
478.224	0.07
478.577	0.07
478.93	0.08
479.283	0.08
479.636	0.08
479.989	0.08
480.341	0.08
480.694	0.08
481.047	0.09
481.399	0.09
481.752	0.1
482.104	0.1
482.457	0.11
482.809	0.1
483.162	0.11
483.514	0.11
483.866	0.1
484.219	0.11
484.571	0.11
484.923	0.12
485.275	0.12
485.627	0.12
485.979	0.12
486.331	0.12
486.683	0.13
487.035	0.13
487.387	0.13
487.739	0.14
488.091	0.14
488.443	0.13
488.794	0.13
489.146	0.14
489.498	0.14
489.849	0.14
490.201	0.15
490.552	0.14
490.904	0.15
491.255	0.15
491.607	0.16
491.958	0.16
492.309	0.16
492.661	0.16
493.012	0.16
493.363	0.16
493.714	0.17
494.065	0.17
494.416	0.17
494.767	0.17
495.118	0.18
495.469	0.18
495.82	0.18
496.171	0.18
496.522	0.18
496.872	0.18
497.223	0.19
497.574	0.19
497.924	0.19
498.275	0.19
498.626	0.19
498.976	0.2
499.327	0.2
499.677	0.2
500.027	0.2
500.378	0.21
500.728	0.21
501.078	0.22
501.428	0.21
501.779	0.21
502.129	0.22
502.479	0.22
502.829	0.22
503.179	0.23
503.529	0.23
503.879	0.23
504.229	0.23
504.578	0.23
504.928	0.24
505.278	0.24
505.628	0.24
505.977	0.24
506.327	0.25
506.676	0.25
507.026	0.25
507.375	0.25
507.725	0.25
508.074	0.26
508.424	0.26
508.773	0.27
509.122	0.26
509.471	0.27
509.82	0.27
510.17	0.28
510.519	0.28
510.868	0.28
511.217	0.28
511.566	0.28
511.915	0.28
512.263	0.29
512.612	0.29
512.961	0.29
513.31	0.29
513.659	0.29
514.007	0.3
514.356	0.3
514.704	0.31
515.053	0.31
515.401	0.31
515.75	0.31
516.098	0.32
516.447	0.32
516.795	0.32
517.143	0.32
517.491	0.32
517.839	0.33
518.188	0.33
518.536	0.33
518.884	0.34
519.232	0.33
519.58	0.34
519.928	0.34
520.275	0.34
520.623	0.35
520.971	0.35
521.319	0.36
521.666	0.36
522.014	0.36
522.362	0.36
522.709	0.36
523.057	0.37
523.404	0.36
523.752	0.37
524.099	0.37
524.446	0.37
524.794	0.37
525.141	0.37
525.488	0.38
525.835	0.38
526.182	0.38
526.529	0.39
526.876	0.39
527.223	0.39
527.57	0.4
527.917	0.4
528.264	0.4
528.611	0.41
528.958	0.41
529.304	0.41
529.651	0.41
529.998	0.42
530.344	0.41
530.691	0.42
531.037	0.42
531.384	0.43
531.73	0.43
532.076	0.43
532.423	0.44
532.769	0.43
533.115	0.44
533.461	0.44
533.807	0.44
534.154	0.45
534.5	0.46
534.846	0.46
535.192	0.46
535.537	0.47
535.883	0.46
536.229	0.47
536.575	0.47
536.921	0.48
537.266	0.48
537.612	0.48
537.957	0.49
538.303	0.49
538.649	0.49
538.994	0.5
539.339	0.5
539.685	0.51
540.03	0.51
540.375	0.51
540.721	0.51
541.066	0.52
541.411	0.52
541.756	0.52
542.101	0.53
542.446	0.53
542.791	0.53
543.136	0.53
543.481	0.54
543.825	0.54
544.17	0.55
544.515	0.55
544.86	0.56
545.204	0.56
545.549	0.56
545.893	0.57
546.238	0.57
546.582	0.57
546.927	0.58
547.271	0.58
547.615	0.59
547.96	0.58
548.304	0.59
548.648	0.59
548.992	0.59
549.336	0.6
549.68	0.6
550.024	0.61
550.368	0.61
550.712	0.61
551.056	0.62
551.4	0.62
551.743	0.63
552.087	0.62
552.431	0.63
552.774	0.63
553.118	0.64
553.462	0.63
553.805	0.64
554.148	0.64
554.492	0.65
554.835	0.64
555.178	0.64
555.522	0.65
555.865	0.65
556.208	0.65
556.551	0.65
556.894	0.66
557.237	0.66
557.58	0.66
557.923	0.66
558.266	0.67
558.609	0.67
558.952	0.67
559.294	0.67
559.637	0.67
559.98	0.68
560.322	0.67
560.665	0.67
561.007	0.68
561.35	0.69
561.692	0.68
562.034	0.69
562.377	0.68
562.719	0.69
563.061	0.69
563.403	0.69
563.745	0.69
564.088	0.69
564.43	0.69
564.772	0.69
565.113	0.7
565.455	0.7
565.797	0.69
566.139	0.7
566.481	0.7
566.822	0.7
567.164	0.7
567.506	0.7
567.847	0.7
568.189	0.71
568.53	0.71
568.872	0.71
569.213	0.71
569.554	0.71
569.895	0.71
570.237	0.71
570.578	0.71
570.919	0.71
571.26	0.71
571.601	0.71
571.942	0.71
572.283	0.71
572.624	0.71
572.965	0.72
573.306	0.72
573.646	0.71
573.987	0.71
574.328	0.71
574.668	0.72
575.009	0.72
575.349	0.72
575.69	0.71
576.03	0.71
576.37	0.71
576.711	0.71
577.051	0.71
577.391	0.72
577.731	0.71
578.072	0.72
578.412	0.72
578.752	0.72
579.092	0.72
579.431	0.72
579.771	0.7
580.111	0.68
580.451	0.69
580.791	0.72
581.13	0.72
581.47	0.72
581.81	0.73
582.149	0.73
582.489	0.73
582.828	0.73
583.167	0.7
583.507	0.67
583.846	0.65
584.185	0.68
584.525	0.7
584.864	0.73
585.203	0.74
585.542	0.75
585.881	0.75
586.22	0.76
586.559	0.75
586.898	0.74
587.236	0.74
587.575	0.73
587.914	0.74
588.252	0.76
588.591	0.76
588.93	0.77
589.268	0.77
589.607	0.77
589.945	0.77
590.283	0.78
590.622	0.78
590.96	0.79
591.298	0.8
591.636	0.79
591.974	0.8
592.313	0.8
592.651	0.81
592.989	0.81
593.326	0.81
593.664	0.82
594.002	0.82
594.34	0.82
594.678	0.82
595.015	0.81
595.353	0.81
595.691	0.82
596.028	0.83
596.366	0.84
596.703	0.84
597.04	0.85
597.378	0.84
597.715	0.85
598.052	0.86
598.389	0.86
598.726	0.86
599.064	0.87
599.401	0.86
599.738	0.87
600.074	0.87
600.411	0.87
600.748	0.86
601.085	0.86
601.422	0.86
601.758	0.86
602.095	0.87
602.432	0.87
602.768	0.86
603.105	0.87
603.441	0.87
603.777	0.87
604.114	0.87
604.45	0.87
604.786	0.88
605.122	0.88
605.459	0.88
605.795	0.87
606.131	0.87
606.467	0.87
606.803	0.87
607.139	0.87
607.474	0.87
607.81	0.87
608.146	0.87
608.482	0.86
608.817	0.86
609.153	0.86
609.488	0.86
609.824	0.86
610.159	0.86
610.495	0.85
610.83	0.85
611.165	0.85
611.5	0.85
611.836	0.85
612.171	0.84
612.506	0.85
612.841	0.84
613.176	0.84
613.511	0.84
613.845	0.84
614.18	0.83
614.515	0.83
614.85	0.83
615.184	0.82
615.519	0.83
615.854	0.82
616.188	0.82
616.523	0.82
616.857	0.81
617.191	0.81
617.526	0.81
617.86	0.81
618.194	0.81
618.528	0.81
618.862	0.81
619.196	0.8
619.53	0.8
619.864	0.8
620.198	0.79
620.532	0.8
620.866	0.79
621.2	0.79
621.533	0.79
621.867	0.79
622.201	0.78
622.534	0.78
622.868	0.77
623.201	0.78
623.534	0.77
623.868	0.76
624.201	0.76
624.534	0.76
624.868	0.76
625.201	0.76
625.534	0.75
625.867	0.74
626.2	0.75
626.533	0.74
626.865	0.74
627.198	0.73
627.531	0.73
627.864	0.72
628.196	0.73
628.529	0.72
628.862	0.72
629.194	0.72
629.527	0.71
629.859	0.71
630.191	0.71
630.524	0.7
630.856	0.7
631.188	0.69
631.52	0.69
631.852	0.68
632.184	0.68
632.516	0.67
632.848	0.67
633.18	0.66
633.512	0.66
633.844	0.65
634.175	0.65
634.507	0.65
634.839	0.64
635.17	0.63
635.502	0.63
635.833	0.62
636.165	0.62
636.496	0.61
636.827	0.61
637.159	0.6
637.49	0.6
637.821	0.59
638.152	0.59
638.483	0.58
638.814	0.58
639.145	0.58
639.476	0.57
639.807	0.57
640.137	0.57
640.468	0.56
640.799	0.55
641.129	0.55
641.46	0.55
641.791	0.54
642.121	0.54
642.451	0.54
642.782	0.54
643.112	0.53
643.442	0.53
643.773	0.52
644.103	0.52
644.433	0.52
644.763	0.51
645.093	0.51
645.423	0.51
645.753	0.5
646.082	0.5
646.412	0.5
646.742	0.49
647.072	0.49
647.401	0.5
647.731	0.49
648.06	0.49
648.39	0.49
648.719	0.49
649.048	0.49
649.378	0.49
649.707	0.48
650.036	0.48
650.365	0.48
650.694	0.47
651.023	0.47
651.352	0.46
651.681	0.47
652.01	0.46
652.339	0.46
652.668	0.47
652.996	0.47
653.325	0.47
653.654	0.47
653.982	0.47
654.311	0.46
654.639	0.46
654.967	0.46
655.296	0.46
655.624	0.46
655.952	0.46
656.28	0.46
656.609	0.46
656.937	0.46
657.265	0.47
657.593	0.38
657.92	0.24
658.248	0.19
658.576	0.2
658.904	0.3
659.231	0.39
659.559	0.44
659.887	0.45
660.214	0.45
660.542	0.45
660.869	0.45
661.196	0.45
661.524	0.45
661.851	0.45
662.178	0.45
662.505	0.45
662.832	0.45
663.159	0.45
663.486	0.45
663.813	0.45
664.14	0.45
664.467	0.45
664.794	0.45
665.12	0.45
665.447	0.44
665.774	0.44
666.1	0.44
666.427	0.44
666.753	0.44
667.079	0.43
667.406	0.43
667.732	0.43
668.058	0.43
668.384	0.43
668.71	0.43
669.036	0.42
669.362	0.43
669.688	0.42
670.014	0.42
670.34	0.42
670.666	0.42
670.991	0.42
671.317	0.42
671.643	0.41
671.968	0.41
672.294	0.41
672.619	0.41
672.945	0.41
673.27	0.41
673.595	0.4
673.92	0.4
674.246	0.39
674.571	0.4
674.896	0.39
675.221	0.39
675.546	0.38
675.87	0.38
676.195	0.37
676.52	0.38
676.845	0.37
677.169	0.37
677.494	0.37
677.819	0.37
678.143	0.37
678.468	0.36
678.792	0.36
679.116	0.36
679.44	0.35
679.765	0.35
680.089	0.34
680.413	0.34
680.737	0.34
681.061	0.34
681.385	0.33
681.709	0.33
682.033	0.33
682.356	0.32
682.68	0.32
683.004	0.32
683.327	0.32
683.651	0.31
683.974	0.31
684.298	0.3
684.621	0.3
684.944	0.3
685.268	0.3
685.591	0.29
685.914	0.29
686.237	0.29
686.56	0.28
686.883	0.28
687.206	0.27
687.529	0.27
687.852	0.27
688.175	0.27
688.497	0.27
688.82	0.26
689.142	0.26
689.465	0.26
689.787	0.26
690.11	0.25
690.432	0.25
690.755	0.25
691.077	0.25
691.399	0.24
691.721	0.24
692.043	0.23
692.365	0.23
692.687	0.23
693.009	0.23
693.331	0.22
693.653	0.22
693.974	0.22
694.296	0.22
694.618	0.21
694.939	0.21
695.261	0.21
695.582	0.21
695.904	0.2
696.225	0.2
696.546	0.2
696.868	0.2
697.189	0.2
697.51	0.19
697.831	0.19
698.152	0.19
698.473	0.19
698.794	0.18
699.114	0.18
699.435	0.17
699.756	0.17
700.077	0.17
700.397	0.17
700.718	0.17
701.038	0.17
701.359	0.17
701.679	0.17
701.999	0.17
702.32	0.16
702.64	0.16
702.96	0.16
703.28	0.16
703.6	0.16
703.92	0.16
704.24	0.16
704.56	0.15
704.879	0.15
705.199	0.16
705.519	0.16
705.838	0.16
706.158	0.16
706.478	0.15
706.797	0.15
707.116	0.15
707.436	0.15
707.755	0.15
708.074	0.15
708.393	0.15
708.712	0.14
709.031	0.14
709.35	0.14
709.669	0.13
709.988	0.14
710.307	0.14
710.626	0.14
710.944	0.14
711.263	0.14
711.582	0.14
711.9	0.14
712.219	0.14
712.537	0.15
712.855	0.14
713.174	0.14
713.492	0.14
713.81	0.14
714.128	0.15
714.446	0.15
714.764	0.14
715.082	0.14
715.4	0.14
715.718	0.14
716.035	0.14
716.353	0.14
716.671	0.14
716.988	0.14
717.306	0.14
717.623	0.14
717.941	0.15
718.258	0.15
718.575	0.15
718.893	0.15
719.21	0.15
719.527	0.14
719.844	0.14
720.161	0.14
720.478	0.14
720.795	0.15
721.112	0.15
721.428	0.15
721.745	0.15
722.062	0.15
722.378	0.15
722.695	0.15
723.011	0.15
723.328	0.15
723.644	0.15
723.96	0.15
724.276	0.15
724.593	0.15
724.909	0.15
725.225	0.15
725.541	0.15
725.857	0.15
726.173	0.15
726.488	0.16
726.804	0.15
727.12	0.15
727.435	0.16
727.751	0.16
728.067	0.16
728.382	0.16
728.697	0.16
729.013	0.16
729.328	0.16
729.643	0.16
729.958	0.16
730.273	0.16
730.588	0.16
730.903	0.16
731.218	0.16
731.533	0.16
731.848	0.16
732.163	0.16
732.477	0.16
732.792	0.16
733.107	0.16
733.421	0.16
733.736	0.16
734.05	0.16
734.364	0.16
734.678	0.16
734.993	0.16
735.307	0.16
735.621	0.16
735.935	0.16
736.249	0.16
736.563	0.16
736.877	0.16
737.19	0.16
737.504	0.16
737.818	0.16
738.131	0.16
738.445	0.16
738.758	0.16
739.072	0.16
739.385	0.16
739.698	0.16
740.012	0.16
740.325	0.15
740.638	0.16
740.951	0.15
741.264	0.15
741.577	0.15
741.89	0.15
742.203	0.15
742.515	0.15
742.828	0.15
743.141	0.15
743.453	0.15
743.766	0.15
744.078	0.14
744.391	0.14
744.703	0.14
745.015	0.14
745.327	0.14
745.639	0.14
745.952	0.14
746.264	0.14
746.575	0.14
746.887	0.13
747.199	0.13
747.511	0.13
747.823	0.13
748.134	0.13
748.446	0.13
748.757	0.13
749.069	0.12
749.38	0.12
749.692	0.12
750.003	0.12
750.314	0.11
750.625	0.11
750.936	0.11
751.248	0.11
751.559	0.11
751.869	0.11
752.18	0.11
752.491	0.1
752.802	0.1
753.112	0.1
753.423	0.1
753.734	0.1
754.044	0.1
754.355	0.09
754.665	0.09
754.975	0.09
755.285	0.09
755.596	0.08
755.906	0.08
756.216	0.08
756.526	0.09
756.836	0.08
757.146	0.08
757.455	0.08
757.765	0.08
758.075	0.08
758.385	0.08
758.694	0.07
759.004	0.07
759.313	0.07
759.622	0.07
759.932	0.07
760.241	0.07
760.55	0.07
760.859	0.07
761.168	0.07
761.477	0.07
761.786	0.07
762.095	0.07
762.404	0.07
762.713	0.07
763.021	0.06
763.33	0.07
763.639	0.06
763.947	0.06
764.256	0.06
764.564	0.06
764.872	0.06
765.181	0.06
765.489	0.06
765.797	0.06
766.105	0.06
766.413	0.06
766.721	0.06
767.029	0.06
767.337	0.06
767.644	0.06
767.952	0.06
768.26	0.06
768.567	0.06
768.875	0.05
769.182	0.05
769.49	0.05
769.797	0.05
770.104	0.05
770.411	0.05
770.718	0.05
771.026	0.05
771.333	0.06
771.639	0.06
771.946	0.05
772.253	0.06
772.56	0.05
772.867	0.05
773.173	0.05
773.48	0.05
773.786	0.05
774.093	0.05
774.399	0.05
774.705	0.05
775.012	0.05
775.318	0.05
775.624	0.05
775.93	0.05
776.236	0.05
776.542	0.05
776.848	0.05
777.154	0.04
777.459	0.04
777.765	0.04
778.071	0.04
778.376	0.04
778.682	0.04
778.987	0.04
779.292	0.04
779.598	0.04
779.903	0.04
780.208	0.04
780.513	0.04
780.818	0.04
781.123	0.04
781.428	0.04
781.733	0.04
782.038	0.04
782.343	0.04
782.647	0.04
782.952	0.04
783.256	0.04
783.561	0.04
783.865	0.04
784.17	0.04
784.474	0.04
784.778	0.04
785.082	0.04
785.386	0.04
785.69	0.04
785.994	0.03
786.298	0.04
786.602	0.04
786.906	0.04
787.209	0.04
787.513	0.04
787.817	0.04
788.12	0.04
788.424	0.04
788.727	0.04
789.03	0.04
789.333	0.04
789.637	0.04
789.94	0.05
790.243	0.04
790.546	0.04
790.849	0.04
791.152	0.04
791.454	0.04
791.757	0.04
792.06	0.04
792.362	0.04
792.665	0.04
792.967	0.04
793.27	0.04
793.572	0.04
793.874	0.04
794.177	0.04
794.479	0.04
794.781	0.04
795.083	0.04
795.385	0.04
795.687	0.04
795.989	0.04
796.29	0.04
796.592	0.04
796.894	0.04
797.195	0.04
797.497	0.04
797.798	0.04
798.1	0.04
798.401	0.04
798.702	0.04
799.003	0.04
799.304	0.04
799.605	0.04
799.906	0.04
800.207	0.04
800.508	0.04
800.809	0.04
801.11	0.04
801.41	0.04
801.711	0.04
802.011	0.05
802.312	0.04
802.612	0.05
802.913	0.05
803.213	0.04
803.513	0.04
803.813	0.04
804.113	0.04
804.413	0.04
804.713	0.04
805.013	0.04
805.313	0.04
805.613	0.03
805.912	0.04
806.212	0.04
806.511	0.03
806.811	0.03
807.11	0.03
807.41	0.03
807.709	0.03
808.008	0.03
808.307	0.03
808.606	0.03
808.905	0.03
809.204	0.04
809.503	0.04
809.802	0.04
810.101	0.04
810.399	0.04
810.698	0.03
810.997	0.03
811.295	0.03
811.593	0.04
811.892	0.04
812.19	0.04
812.488	0.04
812.786	0.04
813.084	0.04
813.383	0.04
813.68	0.04
813.978	0.04
814.276	0.04
814.574	0.04
814.872	0.04
815.169	0.04
815.467	0.04
815.764	0.04
816.062	0.04
816.359	0.04
816.656	0.04
816.954	0.04
817.251	0.04
817.548	0.04
817.845	0.03
818.142	0.04
818.439	0.03
818.735	0.04
819.032	0.04
819.329	0.04
819.626	0.03
819.922	0.03
820.219	0.03
820.515	0.03
820.811	0.04
821.108	0.04
821.404	0.04
821.7	0.04
821.996	0.03
822.292	0.04
822.588	0.03
822.884	0.04
823.18	0.04
823.475	0.05
823.771	0.04
824.067	0.04
824.362	0.04
824.658	0.04
824.953	0.05
825.249	0.04
825.544	0.04
825.839	0.04
826.134	0.04
826.429	0.04
826.724	0.04
827.019	0.04
827.314	0.04
827.609	0.04
827.904	0.04
828.198	0.04
828.493	0.04
828.787	0.04
829.082	0.04
829.376	0.05
829.671	0.04
829.965	0.04
830.259	0.03
830.553	0.04
830.847	0.04
831.141	0.04
831.435	0.04
831.729	0.04
832.023	0.04
832.317	0.04
832.61	0.05
832.904	0.04
833.197	0.05
833.491	0.05
833.784	0.06
834.077	0.05
834.371	0.05
834.664	0.05
834.957	0.05
835.25	0.04
835.543	0.05
835.836	0.05
836.129	0.05
836.421	0.05
836.714	0.05
837.007	0.04
837.299	0.05
837.592	0.04
837.884	0.04
838.177	0.05
838.469	0.05
838.761	0.04
839.053	0.05
839.345	0.04
839.637	0.04
839.929	0.03
840.221	0.04
840.513	0.03
840.805	0.04
841.096	0.04
841.388	0.05
841.68	0.04
841.971	0.04
842.262	0.03
842.554	0.05
842.845	0.04
843.136	0.04
843.427	0.04
843.718	0.03
844.009	0.03
844.3	0.04
844.591	0.03
844.882	0.04
845.173	0.04
845.463	0.04
845.754	0.03
846.044	0.04
846.335	0.04
846.625	0.04
846.915	0.03
847.206	0.05
847.496	0.04
847.786	0.05
848.076	0.04
848.366	0.04
848.656	0.05
848.945	0.04
849.235	0.05
849.525	0.04
849.814	0.04
850.104	0.05
850.393	0.04
850.683	0.04
850.972	0.05
851.261	0.06
851.551	0.04
851.84	0.03
852.129	0.03
852.418	0.03
852.707	0.04
852.995	0.03
853.284	0.04
853.573	0.02
853.862	0.03
854.15	0.04
854.439	0.04
854.727	0.04
855.015	0.04
855.304	0.02
855.592	0.04
855.88	0.05
856.168	0.03
856.456	0.04
856.744	0.04
857.032	0.02
857.32	0.05
857.607	0.03
857.895	0.03
858.183	0.05
858.47	0.05
858.757	0.05
859.045	0.03
859.332	0.04
859.619	0.03
859.907	0.05
860.194	0.05
860.481	0.05
860.768	0.05
861.054	0.04
861.341	0.03
861.628	0.06
861.915	0.04
862.201	0.04
862.488	0.04
862.774	0.03
863.061	0.04
863.347	0.03
863.633	0.04
863.919	0.04
864.205	0.04
864.491	0.04
864.777	0.07
865.063	0.01
865.349	0.02
865.635	0.02
865.92	0.04
866.206	0.04
866.492	0.06
866.777	0.06
867.062	0.03
867.348	0.04
867.633	0.03
867.918	0.01
868.203	0.08
868.488	0.02
868.773	0.05
869.058	0.02
869.343	0.02
869.628	0.01
869.912	0.03
870.197	0.02
870.482	0
870.766	0
871.05	-0
871.335	0.02
871.619	0.05
871.903	0.03
872.187	0.03
872.471	0.01
872.755	0.03
873.039	-0.02
873.323	-0
873.607	-0.03
873.89	0.01
874.174	-0.08
874.458	-0.05
874.741	-0
875.024	0.03
875.308	-0
875.591	0.04
875.874	0.04
876.157	-0.05
876.44	0.01
876.723	0.04
877.006	-0.01
877.289	-0.02
877.572	0.06
877.854	-0.03
878.137	-0.01
878.42	-0.03
878.702	0.06
878.984	0.01
879.267	0.01
879.549	0.04
879.831	-0.03
880.113	0.03
880.395	-0
880.677	-0.03
880.959	-0.11
