Data from Rubpy_EV_1200_EDTA_Buffered_Absorbance_14-24-13-607.txt Node
Date: Tue Jun 30 14:24:13 BST 2026
User: fpm-admin
Spectrometer: OFX00224
Trigger mode: 0
Integration Time (sec): 7.000000E-2
Scans to average: 3
Nonlinearity correction enabled: false
Boxcar width: 0
Storing dark spectrum: false
XAxis mode: Wavelengths
Number of Pixels in Spectrum: 2136
>>>>>Begin Spectral Data<<<<<
154.91	0.02
155.289	-0
155.669	-0.17
156.048	0.13
156.428	-0
156.807	-0.07
157.186	-0.06
157.566	0.15
157.945	-0
158.325	-0
158.704	0.02
159.083	-0
159.462	-0
159.842	0.05
160.221	1.06
160.6	-0
160.979	0.37
161.359	0.48
161.738	-0
162.117	-0.33
162.496	-0
162.875	-0.6
163.254	1.15
163.633	-0
164.012	0.18
164.391	0.02
164.77	-1.26
165.149	0.03
165.528	-0
165.907	-0.23
166.286	-0
166.665	-0.5
167.044	-0.44
167.423	-0.08
167.802	-0
168.181	-0
168.559	-0
168.938	-0.54
169.317	-0.12
169.696	-1.45
170.074	-0
170.453	-0.48
170.832	-0.26
171.21	-0.01
171.589	-0
171.968	0.6
172.346	-0
172.725	-0
173.103	-0
173.482	-0
173.861	0.76
174.239	0.17
174.617	-0.36
174.996	-0.76
175.374	0.08
175.753	-0.86
176.131	-0
176.51	-0.25
176.888	-0
177.266	-0
177.645	-0.1
178.023	0.71
178.401	-0.29
178.779	0.22
179.158	-0
179.536	1.02
179.914	-0.18
180.292	-0.74
180.67	-0
181.048	-0
181.427	0.22
181.805	0.33
182.183	-0
182.561	-0
182.939	-0
183.317	-0.07
183.695	0.37
184.073	-0.48
184.451	-0.46
184.829	0.42
185.206	1.48
185.584	0.4
185.962	-0.2
186.34	0.28
186.718	-0
187.096	-0.32
187.473	-0
187.851	0.43
188.229	-0
188.607	0.19
188.984	0.2
189.362	0.27
189.74	0.06
190.117	0.16
190.495	0.17
190.872	0.27
191.25	0.25
191.627	0.25
192.005	0.23
192.382	0.27
192.76	0.1
193.137	0.33
193.515	0.26
193.892	0.19
194.269	0.16
194.647	0.3
195.024	0.28
195.401	0.25
195.779	0.23
196.156	0.15
196.533	0.1
196.91	0.12
197.288	0.11
197.665	0.32
198.042	0.28
198.419	0.27
198.796	0.27
199.173	0.18
199.55	0.13
199.927	0.2
200.304	0.1
200.681	0.26
201.058	0.21
201.435	0.13
201.812	0.24
202.189	0.24
202.566	0.29
202.943	0.36
203.32	0.3
203.697	0.25
204.073	0.22
204.45	0.17
204.827	0.27
205.204	0.34
205.58	0.29
205.957	0.19
206.334	0.25
206.71	0.18
207.087	0.49
207.464	0.28
207.84	0.21
208.217	0.37
208.593	0.18
208.97	0.26
209.346	0.18
209.723	0.28
210.099	0.24
210.476	0.27
210.852	0.3
211.228	0.42
211.605	0.38
211.981	0.23
212.357	0.24
212.733	0.21
213.11	0.16
213.486	0.09
213.862	0.17
214.238	0.4
214.614	0.18
214.991	0.17
215.367	0.2
215.743	0.37
216.119	0.41
216.495	0.33
216.871	0.19
217.247	0.21
217.623	0.17
217.999	0.18
218.375	0.25
218.751	0.16
219.127	0.21
219.502	0.24
219.878	0.23
220.254	0.25
220.63	0.17
221.006	0.27
221.381	0.23
221.757	0.14
222.133	0.38
222.508	0.28
222.884	0.24
223.26	0.21
223.635	0.23
224.011	0.21
224.386	0.22
224.762	0.23
225.137	0.3
225.513	0.3
225.888	0.39
226.264	0.31
226.639	0.26
227.014	0.23
227.39	0.26
227.765	0.18
228.14	0.18
228.516	0.26
228.891	0.14
229.266	0.28
229.641	0.18
230.017	0.24
230.392	0.21
230.767	0.26
231.142	0.29
231.517	0.28
231.892	0.43
232.267	0.45
232.642	0.33
233.017	0.2
233.392	0.3
233.767	0.38
234.142	0.28
234.517	0.29
234.892	0.62
235.267	0.24
235.641	0.32
236.016	0.16
236.391	0.33
236.766	0.26
237.14	0.25
237.515	0.22
237.89	0.32
238.264	0.25
238.639	0.19
239.014	0.31
239.388	0.3
239.763	0.39
240.137	0.25
240.512	0.24
240.886	0.25
241.261	0.22
241.635	0.13
242.009	0.24
242.384	0.17
242.758	0.18
243.132	0.21
243.507	0.3
243.881	0.32
244.255	0.38
244.629	0.28
245.004	0.32
245.378	0.27
245.752	0.34
246.126	0.33
246.5	0.23
246.874	0.38
247.248	0.27
247.622	0.28
247.996	0.29
248.37	0.19
248.744	0.2
249.118	0.34
249.492	0.26
249.866	0.22
250.24	0.28
250.613	0.23
250.987	0.26
251.361	0.27
251.735	0.23
252.108	0.2
252.482	0.32
252.856	0.25
253.229	0.21
253.603	0.24
253.977	0.3
254.35	0.25
254.724	0.31
255.097	0.28
255.471	0.33
255.844	0.23
256.218	0.21
256.591	0.27
256.964	0.25
257.338	0.27
257.711	0.33
258.084	0.32
258.458	0.16
258.831	0.29
259.204	0.37
259.577	0.28
259.95	0.19
260.323	0.34
260.697	0.35
261.07	0.26
261.443	0.28
261.816	0.21
262.189	0.23
262.562	0.24
262.935	0.24
263.308	0.29
263.68	0.21
264.053	0.37
264.426	0.38
264.799	0.24
265.172	0.34
265.545	0.24
265.917	0.25
266.29	0.23
266.663	0.29
267.035	0.34
267.408	0.23
267.781	0.34
268.153	0.32
268.526	0.33
268.898	0.33
269.271	0.24
269.643	0.25
270.016	0.29
270.388	0.27
270.76	0.31
271.133	0.33
271.505	0.28
271.877	0.27
272.25	0.29
272.622	0.26
272.994	0.29
273.366	0.29
273.739	0.16
274.111	0.26
274.483	0.24
274.855	0.23
275.227	0.18
275.599	0.23
275.971	0.23
276.343	0.3
276.715	0.23
277.087	0.29
277.459	0.21
277.831	0.21
278.203	0.33
278.574	0.28
278.946	0.4
279.318	0.27
279.69	0.29
280.061	0.3
280.433	0.31
280.805	0.26
281.176	0.32
281.548	0.23
281.92	0.19
282.291	0.33
282.663	0.25
283.034	0.27
283.406	0.24
283.777	0.31
284.148	0.33
284.52	0.4
284.891	0.35
285.262	0.24
285.634	0.32
286.005	0.35
286.376	0.2
286.747	0.26
287.119	0.26
287.49	0.33
287.861	0.37
288.232	0.36
288.603	0.31
288.974	0.24
289.345	0.27
289.716	0.23
290.087	0.25
290.458	0.25
290.829	0.41
291.2	0.3
291.571	0.25
291.941	0.29
292.312	0.33
292.683	0.27
293.054	0.31
293.424	0.26
293.795	0.28
294.166	0.33
294.536	0.27
294.907	0.28
295.277	0.3
295.648	0.27
296.018	0.27
296.389	0.32
296.759	0.29
297.13	0.21
297.5	0.18
297.871	0.28
298.241	0.23
298.611	0.3
298.981	0.29
299.352	0.25
299.722	0.23
300.092	0.26
300.462	0.25
300.832	0.27
301.202	0.22
301.573	0.21
301.943	0.22
302.313	0.23
302.683	0.24
303.053	0.2
303.422	0.19
303.792	0.23
304.162	0.22
304.532	0.22
304.902	0.23
305.272	0.24
305.641	0.25
306.011	0.24
306.381	0.24
306.75	0.25
307.12	0.25
307.49	0.26
307.859	0.25
308.229	0.27
308.598	0.26
308.968	0.26
309.337	0.27
309.707	0.29
310.076	0.28
310.445	0.28
310.815	0.29
311.184	0.29
311.553	0.29
311.923	0.3
312.292	0.29
312.661	0.3
313.03	0.3
313.399	0.3
313.768	0.3
314.137	0.3
314.506	0.3
314.875	0.3
315.244	0.29
315.613	0.3
315.982	0.3
316.351	0.3
316.72	0.29
317.089	0.29
317.458	0.29
317.826	0.29
318.195	0.3
318.564	0.28
318.933	0.28
319.301	0.28
319.67	0.27
320.038	0.28
320.407	0.28
320.775	0.27
321.144	0.27
321.512	0.27
321.881	0.26
322.249	0.27
322.618	0.26
322.986	0.26
323.354	0.26
323.723	0.26
324.091	0.25
324.459	0.26
324.827	0.26
325.195	0.25
325.564	0.25
325.932	0.25
326.3	0.25
326.668	0.25
327.036	0.25
327.404	0.25
327.772	0.25
328.14	0.25
328.508	0.25
328.875	0.25
329.243	0.25
329.611	0.25
329.979	0.26
330.346	0.26
330.714	0.26
331.082	0.26
331.449	0.26
331.817	0.26
332.185	0.26
332.552	0.26
332.92	0.27
333.287	0.28
333.655	0.28
334.022	0.28
334.389	0.28
334.757	0.29
335.124	0.28
335.491	0.29
335.859	0.29
336.226	0.29
336.593	0.3
336.96	0.3
337.327	0.31
337.695	0.31
338.062	0.31
338.429	0.31
338.796	0.32
339.163	0.33
339.53	0.33
339.897	0.34
340.263	0.34
340.63	0.35
340.997	0.35
341.364	0.36
341.731	0.37
342.097	0.37
342.464	0.37
342.831	0.39
343.197	0.39
343.564	0.39
343.931	0.4
344.297	0.41
344.664	0.42
345.03	0.42
345.396	0.43
345.763	0.43
346.129	0.43
346.496	0.44
346.862	0.45
347.228	0.46
347.594	0.46
347.961	0.46
348.327	0.48
348.693	0.48
349.059	0.49
349.425	0.49
349.791	0.51
350.157	0.51
350.523	0.53
350.889	0.53
351.255	0.55
351.621	0.56
351.987	0.56
352.353	0.58
352.719	0.58
353.084	0.59
353.45	0.6
353.816	0.62
354.181	0.63
354.547	0.64
354.913	0.66
355.278	0.67
355.644	0.68
356.009	0.7
356.375	0.7
356.74	0.72
357.106	0.74
357.471	0.75
357.836	0.77
358.202	0.78
358.567	0.79
358.932	0.81
359.297	0.83
359.663	0.83
360.028	0.84
360.393	0.86
360.758	0.87
361.123	0.88
361.488	0.89
361.853	0.89
362.218	0.9
362.583	0.91
362.948	0.93
363.312	0.94
363.677	0.94
364.042	0.97
364.407	0.99
364.772	0.99
365.136	1.01
365.501	1.03
365.865	1.04
366.23	1.06
366.595	1.1
366.959	1.11
367.324	1.13
367.688	1.14
368.052	1.14
368.417	1.17
368.781	1.2
369.145	1.2
369.51	1.2
369.874	1.21
370.238	1.2
370.602	1.2
370.967	1.19
371.331	1.19
371.695	1.2
372.059	1.18
372.423	1.18
372.787	1.18
373.151	1.16
373.515	1.17
373.878	1.17
374.242	1.16
374.606	1.16
374.97	1.17
375.334	1.17
375.697	1.16
376.061	1.19
376.425	1.18
376.788	1.18
377.152	1.2
377.515	1.2
377.879	1.21
378.242	1.23
378.606	1.23
378.969	1.24
379.333	1.28
379.696	1.27
380.059	1.29
380.422	1.29
380.786	1.34
381.149	1.34
381.512	1.37
381.875	1.4
382.238	1.43
382.601	1.47
382.964	1.51
383.327	1.52
383.69	1.54
384.053	1.58
384.416	1.63
384.779	1.62
385.142	1.68
385.504	1.71
385.867	1.7
386.23	1.73
386.593	1.74
386.955	1.75
387.318	1.76
387.68	1.73
388.043	1.71
388.405	1.72
388.768	1.7
389.13	1.71
389.493	1.68
389.855	1.67
390.217	1.68
390.58	1.66
390.942	1.67
391.304	1.68
391.666	1.69
392.028	1.72
392.391	1.75
392.753	1.78
393.115	1.81
393.477	1.82
393.839	1.91
394.201	1.93
394.563	2
394.924	2.03
395.286	2.05
395.648	2.06
396.01	2.09
396.371	2.11
396.733	2.11
397.095	2.08
397.456	2.06
397.818	2.07
398.18	2.04
398.541	2.09
398.903	2.12
399.264	2.03
399.625	2.01
399.987	1.98
400.348	1.95
400.709	1.91
401.071	1.85
401.432	1.78
401.793	1.68
402.154	1.63
402.515	1.5
402.876	1.45
403.238	1.34
403.599	1.24
403.96	1.16
404.32	1.09
404.681	1.02
405.042	0.95
405.403	0.88
405.764	0.82
406.125	0.77
406.485	0.73
406.846	0.68
407.207	0.63
407.567	0.6
407.928	0.57
408.288	0.54
408.649	0.51
409.009	0.48
409.37	0.45
409.73	0.44
410.091	0.41
410.451	0.38
410.811	0.38
411.171	0.36
411.532	0.35
411.892	0.33
412.252	0.31
412.612	0.31
412.972	0.29
413.332	0.28
413.692	0.27
414.052	0.27
414.412	0.26
414.772	0.24
415.132	0.24
415.492	0.23
415.851	0.22
416.211	0.22
416.571	0.22
416.931	0.2
417.29	0.2
417.65	0.2
418.009	0.19
418.369	0.19
418.728	0.19
419.088	0.19
419.447	0.18
419.807	0.17
420.166	0.17
420.525	0.17
420.884	0.16
421.244	0.17
421.603	0.16
421.962	0.16
422.321	0.15
422.68	0.16
423.039	0.15
423.398	0.15
423.757	0.15
424.116	0.14
424.475	0.14
424.834	0.14
425.193	0.14
425.551	0.14
425.91	0.14
426.269	0.13
426.628	0.14
426.986	0.13
427.345	0.13
427.703	0.13
428.062	0.13
428.42	0.12
428.779	0.12
429.137	0.12
429.496	0.13
429.854	0.12
430.212	0.11
430.57	0.12
430.929	0.12
431.287	0.11
431.645	0.11
432.003	0.1
432.361	0.12
432.719	0.11
433.077	0.11
433.435	0.11
433.793	0.11
434.151	0.1
434.509	0.11
434.866	0.1
435.224	0.1
435.582	0.1
435.94	0.1
436.297	0.1
436.655	0.11
437.012	0.1
437.37	0.1
437.727	0.1
438.085	0.09
438.442	0.1
438.8	0.1
439.157	0.1
439.514	0.09
439.872	0.1
440.229	0.09
440.586	0.09
440.943	0.09
441.3	0.09
441.657	0.09
442.014	0.08
442.371	0.09
442.728	0.09
443.085	0.09
443.442	0.09
443.799	0.09
444.156	0.09
444.513	0.08
444.869	0.09
445.226	0.09
445.583	0.09
445.939	0.08
446.296	0.08
446.652	0.08
447.009	0.08
447.365	0.08
447.722	0.09
448.078	0.08
448.434	0.07
448.791	0.08
449.147	0.08
449.503	0.08
449.859	0.08
450.215	0.07
450.571	0.07
450.928	0.07
451.284	0.07
451.64	0.07
451.995	0.07
452.351	0.06
452.707	0.06
453.063	0.06
453.419	0.06
453.775	0.06
454.13	0.06
454.486	0.06
454.842	0.05
455.197	0.05
455.553	0.06
455.908	0.05
456.264	0.05
456.619	0.05
456.975	0.05
457.33	0.04
457.685	0.05
458.04	0.04
458.396	0.04
458.751	0.04
459.106	0.04
459.461	0.04
459.816	0.04
460.171	0.03
460.526	0.03
460.881	0.03
461.236	0.03
461.591	0.03
461.946	0.02
462.301	0.02
462.655	0.02
463.01	0.02
463.365	0.02
463.719	0.02
464.074	0.01
464.428	0.01
464.783	0.01
465.137	0.01
465.492	0.01
465.846	0.01
466.201	0.01
466.555	0.02
466.909	0.01
467.263	0.01
467.618	0.01
467.972	0.02
468.326	0.01
468.68	0.01
469.034	0
469.388	0.01
469.742	0.01
470.096	0
470.45	0.01
470.804	0.01
471.157	0.01
471.511	0.01
471.865	0.01
472.218	0.01
472.572	0.02
472.926	0.02
473.279	0.02
473.633	0.03
473.986	0.03
474.34	0.03
474.693	0.04
475.046	0.04
475.4	0.04
475.753	0.05
476.106	0.05
476.459	0.05
476.812	0.06
477.165	0.07
477.519	0.07
477.872	0.07
478.224	0.07
478.577	0.08
478.93	0.08
479.283	0.08
479.636	0.09
479.989	0.09
480.341	0.09
480.694	0.09
481.047	0.09
481.399	0.1
481.752	0.1
482.104	0.1
482.457	0.11
482.809	0.11
483.162	0.11
483.514	0.11
483.866	0.11
484.219	0.11
484.571	0.12
484.923	0.12
485.275	0.12
485.627	0.12
485.979	0.12
486.331	0.13
486.683	0.13
487.035	0.13
487.387	0.13
487.739	0.14
488.091	0.14
488.443	0.14
488.794	0.14
489.146	0.15
489.498	0.14
489.849	0.15
490.201	0.15
490.552	0.15
490.904	0.15
491.255	0.15
491.607	0.16
491.958	0.16
492.309	0.16
492.661	0.16
493.012	0.16
493.363	0.17
493.714	0.17
494.065	0.17
494.416	0.17
494.767	0.17
495.118	0.18
495.469	0.18
495.82	0.18
496.171	0.19
496.522	0.19
496.872	0.19
497.223	0.19
497.574	0.19
497.924	0.2
498.275	0.2
498.626	0.2
498.976	0.2
499.327	0.2
499.677	0.21
500.027	0.21
500.378	0.21
500.728	0.21
501.078	0.22
501.428	0.22
501.779	0.22
502.129	0.23
502.479	0.23
502.829	0.23
503.179	0.23
503.529	0.24
503.879	0.23
504.229	0.23
504.578	0.24
504.928	0.24
505.278	0.25
505.628	0.24
505.977	0.25
506.327	0.25
506.676	0.25
507.026	0.26
507.375	0.26
507.725	0.26
508.074	0.26
508.424	0.26
508.773	0.27
509.122	0.27
509.471	0.27
509.82	0.27
510.17	0.28
510.519	0.28
510.868	0.28
511.217	0.29
511.566	0.29
511.915	0.29
512.263	0.29
512.612	0.3
512.961	0.3
513.31	0.3
513.659	0.31
514.007	0.31
514.356	0.31
514.704	0.32
515.053	0.31
515.401	0.31
515.75	0.32
516.098	0.32
516.447	0.32
516.795	0.33
517.143	0.33
517.491	0.33
517.839	0.33
518.188	0.34
518.536	0.34
518.884	0.34
519.232	0.34
519.58	0.35
519.928	0.35
520.275	0.35
520.623	0.35
520.971	0.35
521.319	0.36
521.666	0.36
522.014	0.36
522.362	0.37
522.709	0.37
523.057	0.37
523.404	0.37
523.752	0.37
524.099	0.38
524.446	0.38
524.794	0.38
525.141	0.39
525.488	0.38
525.835	0.39
526.182	0.4
526.529	0.4
526.876	0.4
527.223	0.4
527.57	0.4
527.917	0.4
528.264	0.41
528.611	0.41
528.958	0.41
529.304	0.42
529.651	0.42
529.998	0.42
530.344	0.43
530.691	0.44
531.037	0.44
531.384	0.44
531.73	0.44
532.076	0.44
532.423	0.44
532.769	0.45
533.115	0.44
533.461	0.45
533.807	0.46
534.154	0.46
534.5	0.46
534.846	0.47
535.192	0.47
535.537	0.47
535.883	0.48
536.229	0.48
536.575	0.48
536.921	0.49
537.266	0.49
537.612	0.49
537.957	0.49
538.303	0.5
538.649	0.5
538.994	0.5
539.339	0.51
539.685	0.51
540.03	0.52
540.375	0.52
540.721	0.53
541.066	0.53
541.411	0.53
541.756	0.53
542.101	0.54
542.446	0.54
542.791	0.55
543.136	0.55
543.481	0.55
543.825	0.55
544.17	0.56
544.515	0.56
544.86	0.57
545.204	0.57
545.549	0.57
545.893	0.58
546.238	0.58
546.582	0.58
546.927	0.58
547.271	0.59
547.615	0.6
547.96	0.59
548.304	0.6
548.648	0.6
548.992	0.61
549.336	0.61
549.68	0.61
550.024	0.62
550.368	0.62
550.712	0.62
551.056	0.63
551.4	0.63
551.743	0.63
552.087	0.63
552.431	0.64
552.774	0.64
553.118	0.65
553.462	0.64
553.805	0.64
554.148	0.65
554.492	0.66
554.835	0.65
555.178	0.65
555.522	0.66
555.865	0.66
556.208	0.66
556.551	0.67
556.894	0.67
557.237	0.67
557.58	0.67
557.923	0.68
558.266	0.68
558.609	0.68
558.952	0.68
559.294	0.68
559.637	0.68
559.98	0.68
560.322	0.68
560.665	0.69
561.007	0.69
561.35	0.69
561.692	0.7
562.034	0.7
562.377	0.7
562.719	0.69
563.061	0.7
563.403	0.7
563.745	0.7
564.088	0.7
564.43	0.7
564.772	0.71
565.113	0.71
565.455	0.71
565.797	0.71
566.139	0.71
566.481	0.71
566.822	0.71
567.164	0.71
567.506	0.71
567.847	0.72
568.189	0.72
568.53	0.72
568.872	0.72
569.213	0.72
569.554	0.72
569.895	0.72
570.237	0.72
570.578	0.72
570.919	0.72
571.26	0.73
571.601	0.73
571.942	0.72
572.283	0.73
572.624	0.72
572.965	0.73
573.306	0.73
573.646	0.72
573.987	0.73
574.328	0.73
574.668	0.73
575.009	0.73
575.349	0.73
575.69	0.73
576.03	0.73
576.37	0.73
576.711	0.72
577.051	0.73
577.391	0.72
577.731	0.73
578.072	0.73
578.412	0.73
578.752	0.73
579.092	0.74
579.431	0.73
579.771	0.71
580.111	0.7
580.451	0.71
580.791	0.73
581.13	0.74
581.47	0.74
581.81	0.74
582.149	0.74
582.489	0.74
582.828	0.74
583.167	0.71
583.507	0.68
583.846	0.66
584.185	0.69
584.525	0.72
584.864	0.74
585.203	0.75
585.542	0.76
585.881	0.76
586.22	0.77
586.559	0.76
586.898	0.76
587.236	0.75
587.575	0.74
587.914	0.76
588.252	0.77
588.591	0.78
588.93	0.78
589.268	0.78
589.607	0.78
589.945	0.78
590.283	0.79
590.622	0.79
590.96	0.8
591.298	0.81
591.636	0.81
591.974	0.81
592.313	0.81
592.651	0.82
592.989	0.82
593.326	0.82
593.664	0.83
594.002	0.83
594.34	0.83
594.678	0.83
595.015	0.83
595.353	0.82
595.691	0.84
596.028	0.85
596.366	0.85
596.703	0.86
597.04	0.86
597.378	0.86
597.715	0.86
598.052	0.87
598.389	0.87
598.726	0.88
599.064	0.88
599.401	0.88
599.738	0.88
600.074	0.88
600.411	0.88
600.748	0.88
601.085	0.88
601.422	0.88
601.758	0.88
602.095	0.88
602.432	0.88
602.768	0.88
603.105	0.89
603.441	0.89
603.777	0.89
604.114	0.89
604.45	0.89
604.786	0.9
605.122	0.89
605.459	0.89
605.795	0.89
606.131	0.89
606.467	0.89
606.803	0.89
607.139	0.89
607.474	0.89
607.81	0.88
608.146	0.88
608.482	0.88
608.817	0.88
609.153	0.88
609.488	0.88
609.824	0.87
610.159	0.87
610.495	0.87
610.83	0.87
611.165	0.87
611.5	0.87
611.836	0.86
612.171	0.86
612.506	0.86
612.841	0.86
613.176	0.86
613.511	0.85
613.845	0.85
614.18	0.85
614.515	0.85
614.85	0.84
615.184	0.84
615.519	0.84
615.854	0.83
616.188	0.83
616.523	0.83
616.857	0.83
617.191	0.83
617.526	0.82
617.86	0.82
618.194	0.82
618.528	0.82
618.862	0.82
619.196	0.82
619.53	0.82
619.864	0.81
620.198	0.81
620.532	0.81
620.866	0.8
621.2	0.79
621.533	0.8
621.867	0.8
622.201	0.8
622.534	0.79
622.868	0.79
623.201	0.79
623.534	0.78
623.868	0.78
624.201	0.78
624.534	0.77
624.868	0.77
625.201	0.77
625.534	0.76
625.867	0.77
626.2	0.76
626.533	0.76
626.865	0.75
627.198	0.75
627.531	0.74
627.864	0.74
628.196	0.74
628.529	0.73
628.862	0.74
629.194	0.72
629.527	0.73
629.859	0.72
630.191	0.72
630.524	0.72
630.856	0.71
631.188	0.7
631.52	0.7
631.852	0.69
632.184	0.69
632.516	0.69
632.848	0.68
633.18	0.68
633.512	0.67
633.844	0.66
634.175	0.67
634.507	0.65
634.839	0.65
635.17	0.64
635.502	0.64
635.833	0.63
636.165	0.63
636.496	0.62
636.827	0.62
637.159	0.62
637.49	0.61
637.821	0.6
638.152	0.6
638.483	0.6
638.814	0.59
639.145	0.59
639.476	0.59
639.807	0.58
640.137	0.58
640.468	0.57
640.799	0.57
641.129	0.56
641.46	0.56
641.791	0.55
642.121	0.55
642.451	0.55
642.782	0.55
643.112	0.54
643.442	0.54
643.773	0.53
644.103	0.53
644.433	0.53
644.763	0.52
645.093	0.52
645.423	0.52
645.753	0.52
646.082	0.51
646.412	0.51
646.742	0.5
647.072	0.5
647.401	0.5
647.731	0.5
648.06	0.5
648.39	0.5
648.719	0.5
649.048	0.49
649.378	0.5
649.707	0.49
650.036	0.48
650.365	0.48
650.694	0.48
651.023	0.48
651.352	0.48
651.681	0.47
652.01	0.47
652.339	0.47
652.668	0.48
652.996	0.48
653.325	0.48
653.654	0.48
653.982	0.48
654.311	0.47
654.639	0.47
654.967	0.47
655.296	0.47
655.624	0.47
655.952	0.47
656.28	0.47
656.609	0.47
656.937	0.46
657.265	0.47
657.593	0.39
657.92	0.25
658.248	0.2
658.576	0.21
658.904	0.31
659.231	0.4
659.559	0.45
659.887	0.46
660.214	0.46
660.542	0.46
660.869	0.46
661.196	0.46
661.524	0.46
661.851	0.46
662.178	0.46
662.505	0.46
662.832	0.46
663.159	0.46
663.486	0.46
663.813	0.46
664.14	0.46
664.467	0.46
664.794	0.46
665.12	0.46
665.447	0.45
665.774	0.45
666.1	0.45
666.427	0.45
666.753	0.45
667.079	0.44
667.406	0.44
667.732	0.44
668.058	0.44
668.384	0.44
668.71	0.44
669.036	0.44
669.362	0.44
669.688	0.43
670.014	0.43
670.34	0.43
670.666	0.43
670.991	0.43
671.317	0.42
671.643	0.42
671.968	0.42
672.294	0.42
672.619	0.41
672.945	0.41
673.27	0.41
673.595	0.41
673.92	0.41
674.246	0.4
674.571	0.4
674.896	0.4
675.221	0.4
675.546	0.39
675.87	0.39
676.195	0.38
676.52	0.38
676.845	0.38
677.169	0.38
677.494	0.38
677.819	0.38
678.143	0.37
678.468	0.37
678.792	0.37
679.116	0.37
679.44	0.36
679.765	0.36
680.089	0.35
680.413	0.35
680.737	0.35
681.061	0.34
681.385	0.34
681.709	0.34
682.033	0.34
682.356	0.33
682.68	0.33
683.004	0.33
683.327	0.32
683.651	0.31
683.974	0.31
684.298	0.31
684.621	0.31
684.944	0.3
685.268	0.3
685.591	0.3
685.914	0.3
686.237	0.29
686.56	0.29
686.883	0.28
687.206	0.28
687.529	0.27
687.852	0.27
688.175	0.27
688.497	0.27
688.82	0.27
689.142	0.27
689.465	0.27
689.787	0.26
690.11	0.26
690.432	0.25
690.755	0.25
691.077	0.25
691.399	0.24
691.721	0.24
692.043	0.24
692.365	0.24
692.687	0.23
693.009	0.23
693.331	0.23
693.653	0.22
693.974	0.23
694.296	0.22
694.618	0.22
694.939	0.22
695.261	0.22
695.582	0.21
695.904	0.2
696.225	0.21
696.546	0.21
696.868	0.2
697.189	0.2
697.51	0.2
697.831	0.2
698.152	0.2
698.473	0.19
698.794	0.19
699.114	0.18
699.435	0.18
699.756	0.18
700.077	0.18
700.397	0.18
700.718	0.18
701.038	0.17
701.359	0.17
701.679	0.17
701.999	0.17
702.32	0.17
702.64	0.17
702.96	0.17
703.28	0.17
703.6	0.17
703.92	0.16
704.24	0.16
704.56	0.16
704.879	0.16
705.199	0.16
705.519	0.16
705.838	0.16
706.158	0.16
706.478	0.16
706.797	0.16
707.116	0.16
707.436	0.16
707.755	0.15
708.074	0.15
708.393	0.15
708.712	0.15
709.031	0.14
709.35	0.14
709.669	0.14
709.988	0.14
710.307	0.14
710.626	0.14
710.944	0.15
711.263	0.15
711.582	0.15
711.9	0.15
712.219	0.15
712.537	0.15
712.855	0.15
713.174	0.15
713.492	0.14
713.81	0.15
714.128	0.15
714.446	0.15
714.764	0.14
715.082	0.14
715.4	0.14
715.718	0.15
716.035	0.14
716.353	0.15
716.671	0.15
716.988	0.15
717.306	0.14
717.623	0.14
717.941	0.15
718.258	0.15
718.575	0.15
718.893	0.15
719.21	0.15
719.527	0.15
719.844	0.15
720.161	0.15
720.478	0.15
720.795	0.15
721.112	0.15
721.428	0.15
721.745	0.15
722.062	0.15
722.378	0.15
722.695	0.16
723.011	0.16
723.328	0.15
723.644	0.15
723.96	0.15
724.276	0.15
724.593	0.15
724.909	0.15
725.225	0.16
725.541	0.15
725.857	0.16
726.173	0.16
726.488	0.16
726.804	0.16
727.12	0.16
727.435	0.16
727.751	0.16
728.067	0.16
728.382	0.16
728.697	0.16
729.013	0.17
729.328	0.17
729.643	0.17
729.958	0.17
730.273	0.17
730.588	0.16
730.903	0.16
731.218	0.17
731.533	0.17
731.848	0.17
732.163	0.17
732.477	0.17
732.792	0.17
733.107	0.16
733.421	0.16
733.736	0.16
734.05	0.17
734.364	0.16
734.678	0.16
734.993	0.16
735.307	0.17
735.621	0.17
735.935	0.16
736.249	0.16
736.563	0.17
736.877	0.16
737.19	0.17
737.504	0.16
737.818	0.16
738.131	0.16
738.445	0.17
738.758	0.17
739.072	0.16
739.385	0.16
739.698	0.16
740.012	0.16
740.325	0.16
740.638	0.16
740.951	0.15
741.264	0.15
741.577	0.15
741.89	0.15
742.203	0.15
742.515	0.16
742.828	0.15
743.141	0.15
743.453	0.15
743.766	0.15
744.078	0.15
744.391	0.15
744.703	0.14
745.015	0.14
745.327	0.14
745.639	0.14
745.952	0.14
746.264	0.14
746.575	0.14
746.887	0.14
747.199	0.13
747.511	0.13
747.823	0.13
748.134	0.13
748.446	0.13
748.757	0.13
749.069	0.13
749.38	0.12
749.692	0.12
750.003	0.12
750.314	0.12
750.625	0.11
750.936	0.11
751.248	0.11
751.559	0.11
751.869	0.11
752.18	0.11
752.491	0.11
752.802	0.11
753.112	0.1
753.423	0.1
753.734	0.1
754.044	0.1
754.355	0.1
754.665	0.09
754.975	0.09
755.285	0.09
755.596	0.09
755.906	0.09
756.216	0.09
756.526	0.09
756.836	0.09
757.146	0.09
757.455	0.08
757.765	0.08
758.075	0.08
758.385	0.08
758.694	0.08
759.004	0.07
759.313	0.07
759.622	0.07
759.932	0.07
760.241	0.07
760.55	0.07
760.859	0.07
761.168	0.07
761.477	0.07
761.786	0.07
762.095	0.07
762.404	0.07
762.713	0.07
763.021	0.07
763.33	0.07
763.639	0.06
763.947	0.06
764.256	0.06
764.564	0.06
764.872	0.07
765.181	0.06
765.489	0.06
765.797	0.06
766.105	0.06
766.413	0.06
766.721	0.06
767.029	0.06
767.337	0.06
767.644	0.06
767.952	0.06
768.26	0.06
768.567	0.06
768.875	0.06
769.182	0.06
769.49	0.06
769.797	0.05
770.104	0.05
770.411	0.06
770.718	0.06
771.026	0.06
771.333	0.06
771.639	0.06
771.946	0.06
772.253	0.06
772.56	0.06
772.867	0.05
773.173	0.05
773.48	0.05
773.786	0.05
774.093	0.05
774.399	0.05
774.705	0.05
775.012	0.05
775.318	0.05
775.624	0.05
775.93	0.05
776.236	0.05
776.542	0.05
776.848	0.05
777.154	0.04
777.459	0.04
777.765	0.05
778.071	0.05
778.376	0.05
778.682	0.04
778.987	0.04
779.292	0.04
779.598	0.04
779.903	0.04
780.208	0.04
780.513	0.04
780.818	0.04
781.123	0.04
781.428	0.04
781.733	0.04
782.038	0.04
782.343	0.04
782.647	0.04
782.952	0.04
783.256	0.04
783.561	0.04
783.865	0.05
784.17	0.04
784.474	0.04
784.778	0.04
785.082	0.04
785.386	0.04
785.69	0.04
785.994	0.04
786.298	0.04
786.602	0.04
786.906	0.04
787.209	0.04
787.513	0.04
787.817	0.04
788.12	0.04
788.424	0.04
788.727	0.04
789.03	0.04
789.333	0.04
789.637	0.05
789.94	0.05
790.243	0.05
790.546	0.05
790.849	0.04
791.152	0.05
791.454	0.04
791.757	0.04
792.06	0.04
792.362	0.04
792.665	0.04
792.967	0.04
793.27	0.04
793.572	0.04
793.874	0.04
794.177	0.04
794.479	0.04
794.781	0.04
795.083	0.04
795.385	0.04
795.687	0.04
795.989	0.04
796.29	0.04
796.592	0.04
796.894	0.04
797.195	0.04
797.497	0.04
797.798	0.04
798.1	0.04
798.401	0.04
798.702	0.04
799.003	0.04
799.304	0.04
799.605	0.05
799.906	0.05
800.207	0.05
800.508	0.05
800.809	0.05
801.11	0.04
801.41	0.05
801.711	0.05
802.011	0.05
802.312	0.05
802.612	0.05
802.913	0.05
803.213	0.05
803.513	0.04
803.813	0.05
804.113	0.04
804.413	0.04
804.713	0.05
805.013	0.04
805.313	0.04
805.613	0.04
805.912	0.04
806.212	0.04
806.511	0.03
806.811	0.03
807.11	0.03
807.41	0.03
807.709	0.03
808.008	0.03
808.307	0.03
808.606	0.03
808.905	0.03
809.204	0.04
809.503	0.04
809.802	0.04
810.101	0.04
810.399	0.04
810.698	0.03
810.997	0.03
811.295	0.04
811.593	0.03
811.892	0.04
812.19	0.04
812.488	0.04
812.786	0.04
813.084	0.05
813.383	0.04
813.68	0.04
813.978	0.04
814.276	0.04
814.574	0.04
814.872	0.04
815.169	0.05
815.467	0.05
815.764	0.04
816.062	0.04
816.359	0.04
816.656	0.04
816.954	0.04
817.251	0.04
817.548	0.03
817.845	0.03
818.142	0.04
818.439	0.04
818.735	0.04
819.032	0.04
819.329	0.04
819.626	0.03
819.922	0.03
820.219	0.03
820.515	0.03
820.811	0.04
821.108	0.04
821.404	0.04
821.7	0.04
821.996	0.04
822.292	0.04
822.588	0.04
822.884	0.04
823.18	0.05
823.475	0.05
823.771	0.04
824.067	0.04
824.362	0.04
824.658	0.05
824.953	0.05
825.249	0.05
825.544	0.04
825.839	0.04
826.134	0.04
826.429	0.04
826.724	0.04
827.019	0.04
827.314	0.05
827.609	0.05
827.904	0.05
828.198	0.05
828.493	0.04
828.787	0.04
829.082	0.04
829.376	0.05
829.671	0.04
829.965	0.05
830.259	0.04
830.553	0.05
830.847	0.04
831.141	0.04
831.435	0.04
831.729	0.04
832.023	0.03
832.317	0.04
832.61	0.04
832.904	0.04
833.197	0.05
833.491	0.05
833.784	0.06
834.077	0.06
834.371	0.05
834.664	0.06
834.957	0.05
835.25	0.05
835.543	0.05
835.836	0.06
836.129	0.05
836.421	0.06
836.714	0.05
837.007	0.05
837.299	0.05
837.592	0.05
837.884	0.04
838.177	0.06
838.469	0.05
838.761	0.05
839.053	0.05
839.345	0.05
839.637	0.04
839.929	0.03
840.221	0.04
840.513	0.03
840.805	0.04
841.096	0.04
841.388	0.05
841.68	0.05
841.971	0.04
842.262	0.03
842.554	0.05
842.845	0.04
843.136	0.04
843.427	0.05
843.718	0.03
844.009	0.04
844.3	0.05
844.591	0.05
844.882	0.04
845.173	0.04
845.463	0.04
845.754	0.04
846.044	0.04
846.335	0.04
846.625	0.04
846.915	0.04
847.206	0.05
847.496	0.04
847.786	0.05
848.076	0.05
848.366	0.05
848.656	0.04
848.945	0.04
849.235	0.06
849.525	0.06
849.814	0.04
850.104	0.05
850.393	0.04
850.683	0.05
850.972	0.06
851.261	0.05
851.551	0.05
851.84	0.05
852.129	0.04
852.418	0.04
852.707	0.04
852.995	0.04
853.284	0.06
853.573	0.02
853.862	0.04
854.15	0.04
854.439	0.04
854.727	0.04
855.015	0.04
855.304	0.03
855.592	0.04
855.88	0.06
856.168	0.05
856.456	0.04
856.744	0.04
857.032	0.02
857.32	0.05
857.607	0.04
857.895	0.03
858.183	0.05
858.47	0.05
858.757	0.03
859.045	0.05
859.332	0.04
859.619	0.04
859.907	0.04
860.194	0.05
860.481	0.03
860.768	0.05
861.054	0.03
861.341	0.03
861.628	0.06
861.915	0.05
862.201	0.06
862.488	0.05
862.774	0.03
863.061	0.03
863.347	0.04
863.633	0.05
863.919	0.06
864.205	0.02
864.491	0.04
864.777	0.05
865.063	0.03
865.349	0.01
865.635	0.03
865.92	0.04
866.206	0.03
866.492	0.03
866.777	0.03
867.062	0.03
867.348	0.06
867.633	0.06
867.918	0.04
868.203	0.06
868.488	0.05
868.773	0.06
869.058	0.04
869.343	0.06
869.628	0.02
869.912	-0.01
870.197	0.06
870.482	-0
870.766	0.02
871.05	0.01
871.335	0.02
871.619	0.02
871.903	0.07
872.187	-0
872.471	-0.04
872.755	0.05
873.039	0.03
873.323	0.02
873.607	-0
873.89	0.01
874.174	0.01
874.458	0
874.741	-0.02
875.024	0.07
875.308	-0.05
875.591	0.05
875.874	0.05
876.157	-0.02
876.44	-0.05
876.723	0.03
877.006	0.01
877.289	-0.02
877.572	0.07
877.854	0.03
878.137	0.01
878.42	-0.05
878.702	0
878.984	-0.04
879.267	-0.04
879.549	0.07
879.831	-0
880.113	0.04
880.395	0.01
880.677	0.11
880.959	-0.02
