Data from Rubpy_EV_1200_EDTA_Buffered_Absorbance_14-21-46-617.txt Node
Date: Tue Jun 30 14:21:46 BST 2026
User: fpm-admin
Spectrometer: OFX00224
Trigger mode: 0
Integration Time (sec): 7.000000E-2
Scans to average: 3
Nonlinearity correction enabled: false
Boxcar width: 0
Storing dark spectrum: false
XAxis mode: Wavelengths
Number of Pixels in Spectrum: 2136
>>>>>Begin Spectral Data<<<<<
154.91	0.18
155.289	0.01
155.669	-0
156.048	0.2
156.428	-0
156.807	-0.19
157.186	-0
157.566	-0
157.945	-0.06
158.325	0.05
158.704	-0.42
159.083	-0.27
159.462	1.04
159.842	-0.17
160.221	-0.16
160.6	-0
160.979	0.07
161.359	0.56
161.738	-0
162.117	-0
162.496	-0
162.875	0.02
163.254	0.28
163.633	-0.7
164.012	0.42
164.391	-0
164.77	-1.2
165.149	-0.14
165.528	-0
165.907	0.3
166.286	-0
166.665	-0
167.044	0.06
167.423	0.24
167.802	0.3
168.181	0.36
168.559	0.03
168.938	-0.67
169.317	0.35
169.696	-0.95
170.074	-1.11
170.453	-0
170.832	-0
171.21	0.33
171.589	0.85
171.968	0.04
172.346	-0
172.725	-0.7
173.103	-0
173.482	0.75
173.861	0.16
174.239	0.17
174.617	0.03
174.996	-0.74
175.374	-0.18
175.753	-0
176.131	-0
176.51	-0.59
176.888	-0
177.266	-0
177.645	-0.05
178.023	0.93
178.401	-0.32
178.779	-0
179.158	0.88
179.536	-0
179.914	-0.04
180.292	-0.63
180.67	0.43
181.048	-0
181.427	0.14
181.805	-0
182.183	-0
182.561	-1.46
182.939	-0
183.317	-0
183.695	-0
184.073	-0
184.451	-0
184.829	0.1
185.206	0.61
185.584	0.63
185.962	-0.06
186.34	1.19
186.718	-0
187.096	-0
187.473	0.53
187.851	-0
188.229	-0
188.607	0.29
188.984	0.17
189.362	0.3
189.74	0.1
190.117	0.19
190.495	0.18
190.872	0.18
191.25	0.32
191.627	0.12
192.005	0.17
192.382	0.36
192.76	0.15
193.137	0.39
193.515	0.19
193.892	0.3
194.269	0.17
194.647	0.18
195.024	0.12
195.401	0.31
195.779	0.26
196.156	0.22
196.533	0.13
196.91	0.21
197.288	0.1
197.665	0.47
198.042	0.26
198.419	0.29
198.796	0.31
199.173	0.25
199.55	0.35
199.927	0.18
200.304	0.23
200.681	0.33
201.058	0.2
201.435	0.14
201.812	0.3
202.189	0.4
202.566	0.35
202.943	0.33
203.32	0.29
203.697	0.2
204.073	0.28
204.45	0.17
204.827	0.22
205.204	0.29
205.58	0.24
205.957	0.18
206.334	0.26
206.71	0.21
207.087	0.29
207.464	0.19
207.84	0.27
208.217	0.37
208.593	0.22
208.97	0.19
209.346	0.17
209.723	0.42
210.099	0.3
210.476	0.31
210.852	0.25
211.228	0.46
211.605	0.41
211.981	0.23
212.357	0.27
212.733	0.36
213.11	0.33
213.486	0.19
213.862	0.21
214.238	0.29
214.614	0.21
214.991	0.22
215.367	0.29
215.743	0.43
216.119	0.17
216.495	0.29
216.871	0.29
217.247	0.18
217.623	0.29
217.999	0.38
218.375	0.3
218.751	0.34
219.127	0.27
219.502	0.31
219.878	0.24
220.254	0.23
220.63	0.28
221.006	0.26
221.381	0.25
221.757	0.21
222.133	0.23
222.508	0.23
222.884	0.27
223.26	0.28
223.635	0.13
224.011	0.21
224.386	0.29
224.762	0.24
225.137	0.23
225.513	0.3
225.888	0.28
226.264	0.19
226.639	0.27
227.014	0.33
227.39	0.31
227.765	0.21
228.14	0.16
228.516	0.23
228.891	0.25
229.266	0.24
229.641	0.25
230.017	0.45
230.392	0.26
230.767	0.3
231.142	0.29
231.517	0.35
231.892	0.28
232.267	0.29
232.642	0.23
233.017	0.14
233.392	0.26
233.767	0.25
234.142	0.14
234.517	0.22
234.892	0.29
235.267	0.26
235.641	0.31
236.016	0.11
236.391	0.37
236.766	0.08
237.14	0.26
237.515	0.26
237.89	0.26
238.264	0.27
238.639	0.17
239.014	0.33
239.388	0.24
239.763	0.37
240.137	0.23
240.512	0.25
240.886	0.17
241.261	0.28
241.635	0.29
242.009	0.27
242.384	0.25
242.758	0.26
243.132	0.24
243.507	0.21
243.881	0.31
244.255	0.38
244.629	0.35
245.004	0.3
245.378	0.24
245.752	0.23
246.126	0.31
246.5	0.28
246.874	0.22
247.248	0.26
247.622	0.2
247.996	0.29
248.37	0.24
248.744	0.19
249.118	0.28
249.492	0.38
249.866	0.15
250.24	0.21
250.613	0.2
250.987	0.31
251.361	0.21
251.735	0.31
252.108	0.25
252.482	0.37
252.856	0.19
253.229	0.23
253.603	0.21
253.977	0.33
254.35	0.27
254.724	0.27
255.097	0.34
255.471	0.28
255.844	0.22
256.218	0.25
256.591	0.25
256.964	0.22
257.338	0.13
257.711	0.2
258.084	0.25
258.458	0.19
258.831	0.21
259.204	0.25
259.577	0.28
259.95	0.26
260.323	0.28
260.697	0.38
261.07	0.21
261.443	0.3
261.816	0.22
262.189	0.35
262.562	0.3
262.935	0.27
263.308	0.13
263.68	0.3
264.053	0.27
264.426	0.4
264.799	0.22
265.172	0.33
265.545	0.28
265.917	0.32
266.29	0.22
266.663	0.26
267.035	0.33
267.408	0.33
267.781	0.26
268.153	0.32
268.526	0.28
268.898	0.28
269.271	0.31
269.643	0.17
270.016	0.25
270.388	0.29
270.76	0.32
271.133	0.36
271.505	0.19
271.877	0.26
272.25	0.25
272.622	0.26
272.994	0.26
273.366	0.27
273.739	0.26
274.111	0.26
274.483	0.27
274.855	0.25
275.227	0.23
275.599	0.23
275.971	0.27
276.343	0.29
276.715	0.35
277.087	0.35
277.459	0.22
277.831	0.26
278.203	0.25
278.574	0.25
278.946	0.28
279.318	0.32
279.69	0.33
280.061	0.3
280.433	0.17
280.805	0.23
281.176	0.28
281.548	0.23
281.92	0.22
282.291	0.37
282.663	0.42
283.034	0.19
283.406	0.22
283.777	0.29
284.148	0.31
284.52	0.31
284.891	0.27
285.262	0.29
285.634	0.3
286.005	0.36
286.376	0.29
286.747	0.31
287.119	0.3
287.49	0.3
287.861	0.29
288.232	0.22
288.603	0.32
288.974	0.26
289.345	0.37
289.716	0.3
290.087	0.26
290.458	0.24
290.829	0.41
291.2	0.3
291.571	0.29
291.941	0.21
292.312	0.25
292.683	0.3
293.054	0.28
293.424	0.27
293.795	0.26
294.166	0.25
294.536	0.23
294.907	0.23
295.277	0.27
295.648	0.27
296.018	0.2
296.389	0.29
296.759	0.26
297.13	0.22
297.5	0.24
297.871	0.26
298.241	0.29
298.611	0.29
298.981	0.27
299.352	0.22
299.722	0.21
300.092	0.25
300.462	0.2
300.832	0.21
301.202	0.2
301.573	0.17
301.943	0.21
302.313	0.24
302.683	0.2
303.053	0.19
303.422	0.2
303.792	0.21
304.162	0.2
304.532	0.21
304.902	0.21
305.272	0.21
305.641	0.22
306.011	0.23
306.381	0.21
306.75	0.22
307.12	0.24
307.49	0.24
307.859	0.24
308.229	0.24
308.598	0.24
308.968	0.24
309.337	0.24
309.707	0.26
310.076	0.26
310.445	0.26
310.815	0.27
311.184	0.26
311.553	0.26
311.923	0.26
312.292	0.27
312.661	0.27
313.03	0.27
313.399	0.28
313.768	0.27
314.137	0.27
314.506	0.28
314.875	0.28
315.244	0.27
315.613	0.27
315.982	0.27
316.351	0.27
316.72	0.27
317.089	0.27
317.458	0.26
317.826	0.26
318.195	0.27
318.564	0.26
318.933	0.26
319.301	0.25
319.67	0.25
320.038	0.26
320.407	0.25
320.775	0.24
321.144	0.25
321.512	0.24
321.881	0.24
322.249	0.23
322.618	0.24
322.986	0.23
323.354	0.23
323.723	0.23
324.091	0.23
324.459	0.23
324.827	0.22
325.195	0.22
325.564	0.23
325.932	0.22
326.3	0.23
326.668	0.22
327.036	0.23
327.404	0.23
327.772	0.23
328.14	0.23
328.508	0.22
328.875	0.23
329.243	0.22
329.611	0.22
329.979	0.23
330.346	0.23
330.714	0.23
331.082	0.23
331.449	0.23
331.817	0.23
332.185	0.23
332.552	0.24
332.92	0.24
333.287	0.25
333.655	0.25
334.022	0.25
334.389	0.24
334.757	0.25
335.124	0.25
335.491	0.26
335.859	0.26
336.226	0.26
336.593	0.26
336.96	0.26
337.327	0.28
337.695	0.28
338.062	0.27
338.429	0.28
338.796	0.29
339.163	0.29
339.53	0.3
339.897	0.3
340.263	0.3
340.63	0.31
340.997	0.31
341.364	0.32
341.731	0.33
342.097	0.33
342.464	0.33
342.831	0.34
343.197	0.35
343.564	0.35
343.931	0.36
344.297	0.36
344.664	0.37
345.03	0.37
345.396	0.38
345.763	0.39
346.129	0.39
346.496	0.4
346.862	0.4
347.228	0.41
347.594	0.41
347.961	0.42
348.327	0.43
348.693	0.43
349.059	0.44
349.425	0.44
349.791	0.45
350.157	0.46
350.523	0.47
350.889	0.47
351.255	0.49
351.621	0.49
351.987	0.5
352.353	0.51
352.719	0.53
353.084	0.54
353.45	0.54
353.816	0.56
354.181	0.56
354.547	0.57
354.913	0.59
355.278	0.6
355.644	0.61
356.009	0.63
356.375	0.63
356.74	0.65
357.106	0.66
357.471	0.67
357.836	0.7
358.202	0.7
358.567	0.72
358.932	0.73
359.297	0.74
359.663	0.75
360.028	0.76
360.393	0.78
360.758	0.78
361.123	0.79
361.488	0.8
361.853	0.81
362.218	0.81
362.583	0.82
362.948	0.83
363.312	0.85
363.677	0.84
364.042	0.87
364.407	0.88
364.772	0.9
365.136	0.91
365.501	0.93
365.865	0.94
366.23	0.95
366.595	0.97
366.959	1.01
367.324	1.03
367.688	1.04
368.052	1.05
368.417	1.07
368.781	1.09
369.145	1.09
369.51	1.09
369.874	1.1
370.238	1.09
370.602	1.09
370.967	1.09
371.331	1.09
371.695	1.08
372.059	1.08
372.423	1.08
372.787	1.07
373.151	1.06
373.515	1.06
373.878	1.07
374.242	1.06
374.606	1.07
374.97	1.06
375.334	1.06
375.697	1.07
376.061	1.07
376.425	1.09
376.788	1.08
377.152	1.08
377.515	1.1
377.879	1.11
378.242	1.12
378.606	1.13
378.969	1.14
379.333	1.15
379.696	1.15
380.059	1.19
380.422	1.19
380.786	1.21
381.149	1.24
381.512	1.26
381.875	1.28
382.238	1.31
382.601	1.33
382.964	1.38
383.327	1.4
383.69	1.43
384.053	1.45
384.416	1.49
384.779	1.49
385.142	1.55
385.504	1.6
385.867	1.59
386.23	1.6
386.593	1.6
386.955	1.61
387.318	1.62
387.68	1.61
388.043	1.59
388.405	1.6
388.768	1.58
389.13	1.58
389.493	1.54
389.855	1.56
390.217	1.54
390.58	1.57
390.942	1.58
391.304	1.55
391.666	1.58
392.028	1.6
392.391	1.62
392.753	1.64
393.115	1.7
393.477	1.73
393.839	1.77
394.201	1.8
394.563	1.85
394.924	1.96
395.286	2
395.648	1.96
396.01	2.05
396.371	2.01
396.733	2.05
397.095	2.05
397.456	2.03
397.818	2.04
398.18	2.01
398.541	2.03
398.903	2.03
399.264	1.96
399.625	1.96
399.987	1.91
400.348	1.9
400.709	1.82
401.071	1.76
401.432	1.67
401.793	1.58
402.154	1.5
402.515	1.42
402.876	1.32
403.238	1.22
403.599	1.15
403.96	1.07
404.32	1
404.681	0.93
405.042	0.87
405.403	0.81
405.764	0.75
406.125	0.7
406.485	0.66
406.846	0.62
407.207	0.58
407.567	0.55
407.928	0.52
408.288	0.48
408.649	0.46
409.009	0.43
409.37	0.41
409.73	0.4
410.091	0.37
410.451	0.35
410.811	0.34
411.171	0.32
411.532	0.31
411.892	0.29
412.252	0.29
412.612	0.28
412.972	0.26
413.332	0.26
413.692	0.25
414.052	0.24
414.412	0.23
414.772	0.22
415.132	0.22
415.492	0.21
415.851	0.2
416.211	0.2
416.571	0.19
416.931	0.19
417.29	0.18
417.65	0.18
418.009	0.17
418.369	0.17
418.728	0.17
419.088	0.16
419.447	0.17
419.807	0.16
420.166	0.16
420.525	0.16
420.884	0.15
421.244	0.15
421.603	0.15
421.962	0.15
422.321	0.14
422.68	0.14
423.039	0.13
423.398	0.13
423.757	0.13
424.116	0.13
424.475	0.13
424.834	0.13
425.193	0.13
425.551	0.11
425.91	0.12
426.269	0.12
426.628	0.12
426.986	0.12
427.345	0.12
427.703	0.12
428.062	0.12
428.42	0.11
428.779	0.12
429.137	0.11
429.496	0.12
429.854	0.11
430.212	0.1
430.57	0.11
430.929	0.11
431.287	0.11
431.645	0.1
432.003	0.1
432.361	0.1
432.719	0.09
433.077	0.1
433.435	0.1
433.793	0.1
434.151	0.09
434.509	0.1
434.866	0.09
435.224	0.1
435.582	0.1
435.94	0.09
436.297	0.08
436.655	0.1
437.012	0.1
437.37	0.09
437.727	0.09
438.085	0.08
438.442	0.08
438.8	0.09
439.157	0.09
439.514	0.09
439.872	0.09
440.229	0.09
440.586	0.08
440.943	0.08
441.3	0.08
441.657	0.08
442.014	0.08
442.371	0.08
442.728	0.08
443.085	0.08
443.442	0.08
443.799	0.08
444.156	0.08
444.513	0.08
444.869	0.08
445.226	0.08
445.583	0.08
445.939	0.07
446.296	0.07
446.652	0.07
447.009	0.08
447.365	0.08
447.722	0.08
448.078	0.07
448.434	0.06
448.791	0.07
449.147	0.07
449.503	0.07
449.859	0.07
450.215	0.06
450.571	0.06
450.928	0.06
451.284	0.07
451.64	0.05
451.995	0.05
452.351	0.06
452.707	0.05
453.063	0.06
453.419	0.06
453.775	0.06
454.13	0.06
454.486	0.05
454.842	0.05
455.197	0.04
455.553	0.05
455.908	0.04
456.264	0.04
456.619	0.05
456.975	0.04
457.33	0.04
457.685	0.04
458.04	0.03
458.396	0.03
458.751	0.03
459.106	0.04
459.461	0.03
459.816	0.03
460.171	0.03
460.526	0.03
460.881	0.03
461.236	0.02
461.591	0.02
461.946	0.02
462.301	0.02
462.655	0.01
463.01	0.01
463.365	0.01
463.719	0.01
464.074	0.01
464.428	0
464.783	0.01
465.137	-0
465.492	0
465.846	0
466.201	-0
466.555	0.01
466.909	0.01
467.263	0
467.618	-0
467.972	0.01
468.326	-0
468.68	0
469.034	-0
469.388	0
469.742	-0.01
470.096	-0
470.45	-0
470.804	-0
471.157	0.01
471.511	0
471.865	0.01
472.218	0
472.572	0.01
472.926	0.01
473.279	0.01
473.633	0.01
473.986	0.02
474.34	0.02
474.693	0.03
475.046	0.03
475.4	0.03
475.753	0.05
476.106	0.05
476.459	0.04
476.812	0.05
477.165	0.05
477.519	0.05
477.872	0.06
478.224	0.06
478.577	0.06
478.93	0.07
479.283	0.07
479.636	0.07
479.989	0.07
480.341	0.07
480.694	0.07
481.047	0.08
481.399	0.08
481.752	0.09
482.104	0.09
482.457	0.09
482.809	0.1
483.162	0.1
483.514	0.09
483.866	0.1
484.219	0.1
484.571	0.1
484.923	0.1
485.275	0.1
485.627	0.11
485.979	0.11
486.331	0.11
486.683	0.11
487.035	0.12
487.387	0.11
487.739	0.12
488.091	0.12
488.443	0.12
488.794	0.12
489.146	0.13
489.498	0.13
489.849	0.13
490.201	0.13
490.552	0.13
490.904	0.14
491.255	0.14
491.607	0.13
491.958	0.14
492.309	0.14
492.661	0.14
493.012	0.15
493.363	0.15
493.714	0.15
494.065	0.15
494.416	0.15
494.767	0.15
495.118	0.16
495.469	0.16
495.82	0.16
496.171	0.17
496.522	0.17
496.872	0.16
497.223	0.17
497.574	0.16
497.924	0.17
498.275	0.17
498.626	0.17
498.976	0.18
499.327	0.18
499.677	0.18
500.027	0.18
500.378	0.18
500.728	0.19
501.078	0.2
501.428	0.19
501.779	0.19
502.129	0.2
502.479	0.2
502.829	0.2
503.179	0.21
503.529	0.21
503.879	0.21
504.229	0.21
504.578	0.22
504.928	0.21
505.278	0.22
505.628	0.22
505.977	0.22
506.327	0.23
506.676	0.23
507.026	0.22
507.375	0.22
507.725	0.23
508.074	0.23
508.424	0.23
508.773	0.24
509.122	0.24
509.471	0.24
509.82	0.24
510.17	0.25
510.519	0.25
510.868	0.25
511.217	0.25
511.566	0.25
511.915	0.26
512.263	0.26
512.612	0.26
512.961	0.27
513.31	0.27
513.659	0.27
514.007	0.27
514.356	0.27
514.704	0.28
515.053	0.28
515.401	0.28
515.75	0.28
516.098	0.29
516.447	0.29
516.795	0.29
517.143	0.29
517.491	0.29
517.839	0.3
518.188	0.3
518.536	0.3
518.884	0.3
519.232	0.31
519.58	0.31
519.928	0.31
520.275	0.31
520.623	0.31
520.971	0.31
521.319	0.32
521.666	0.32
522.014	0.33
522.362	0.33
522.709	0.33
523.057	0.33
523.404	0.33
523.752	0.34
524.099	0.34
524.446	0.34
524.794	0.34
525.141	0.34
525.488	0.35
525.835	0.35
526.182	0.35
526.529	0.36
526.876	0.36
527.223	0.36
527.57	0.36
527.917	0.36
528.264	0.36
528.611	0.38
528.958	0.37
529.304	0.37
529.651	0.38
529.998	0.38
530.344	0.38
530.691	0.39
531.037	0.39
531.384	0.39
531.73	0.4
532.076	0.39
532.423	0.4
532.769	0.4
533.115	0.4
533.461	0.4
533.807	0.41
534.154	0.41
534.5	0.41
534.846	0.42
535.192	0.42
535.537	0.43
535.883	0.43
536.229	0.43
536.575	0.43
536.921	0.44
537.266	0.44
537.612	0.44
537.957	0.44
538.303	0.45
538.649	0.45
538.994	0.45
539.339	0.46
539.685	0.46
540.03	0.47
540.375	0.47
540.721	0.47
541.066	0.47
541.411	0.48
541.756	0.48
542.101	0.48
542.446	0.49
542.791	0.49
543.136	0.49
543.481	0.5
543.825	0.5
544.17	0.51
544.515	0.5
544.86	0.51
545.204	0.51
545.549	0.52
545.893	0.52
546.238	0.52
546.582	0.53
546.927	0.53
547.271	0.53
547.615	0.54
547.96	0.54
548.304	0.54
548.648	0.54
548.992	0.55
549.336	0.55
549.68	0.55
550.024	0.56
550.368	0.56
550.712	0.56
551.056	0.57
551.4	0.57
551.743	0.58
552.087	0.57
552.431	0.58
552.774	0.58
553.118	0.58
553.462	0.58
553.805	0.59
554.148	0.59
554.492	0.59
554.835	0.59
555.178	0.59
555.522	0.6
555.865	0.6
556.208	0.6
556.551	0.6
556.894	0.61
557.237	0.61
557.58	0.61
557.923	0.61
558.266	0.61
558.609	0.62
558.952	0.62
559.294	0.62
559.637	0.62
559.98	0.62
560.322	0.62
560.665	0.62
561.007	0.62
561.35	0.62
561.692	0.63
562.034	0.64
562.377	0.64
562.719	0.64
563.061	0.63
563.403	0.64
563.745	0.63
564.088	0.63
564.43	0.64
564.772	0.64
565.113	0.64
565.455	0.64
565.797	0.64
566.139	0.65
566.481	0.65
566.822	0.65
567.164	0.65
567.506	0.65
567.847	0.65
568.189	0.65
568.53	0.65
568.872	0.65
569.213	0.66
569.554	0.66
569.895	0.65
570.237	0.66
570.578	0.66
570.919	0.65
571.26	0.65
571.601	0.66
571.942	0.65
572.283	0.66
572.624	0.66
572.965	0.66
573.306	0.66
573.646	0.65
573.987	0.66
574.328	0.65
574.668	0.66
575.009	0.66
575.349	0.66
575.69	0.66
576.03	0.66
576.37	0.66
576.711	0.65
577.051	0.66
577.391	0.66
577.731	0.66
578.072	0.66
578.412	0.67
578.752	0.67
579.092	0.67
579.431	0.66
579.771	0.64
580.111	0.63
580.451	0.64
580.791	0.66
581.13	0.67
581.47	0.67
581.81	0.67
582.149	0.67
582.489	0.67
582.828	0.67
583.167	0.65
583.507	0.61
583.846	0.59
584.185	0.62
584.525	0.65
584.864	0.67
585.203	0.68
585.542	0.69
585.881	0.69
586.22	0.7
586.559	0.69
586.898	0.69
587.236	0.68
587.575	0.67
587.914	0.68
588.252	0.7
588.591	0.71
588.93	0.71
589.268	0.71
589.607	0.71
589.945	0.71
590.283	0.72
590.622	0.72
590.96	0.72
591.298	0.73
591.636	0.73
591.974	0.73
592.313	0.74
592.651	0.74
592.989	0.74
593.326	0.75
593.664	0.75
594.002	0.76
594.34	0.75
594.678	0.75
595.015	0.76
595.353	0.75
595.691	0.76
596.028	0.77
596.366	0.77
596.703	0.78
597.04	0.78
597.378	0.78
597.715	0.79
598.052	0.79
598.389	0.79
598.726	0.8
599.064	0.8
599.401	0.8
599.738	0.8
600.074	0.81
600.411	0.8
600.748	0.8
601.085	0.8
601.422	0.8
601.758	0.79
602.095	0.8
602.432	0.8
602.768	0.8
603.105	0.8
603.441	0.81
603.777	0.81
604.114	0.81
604.45	0.82
604.786	0.81
605.122	0.81
605.459	0.81
605.795	0.81
606.131	0.81
606.467	0.81
606.803	0.81
607.139	0.81
607.474	0.81
607.81	0.8
608.146	0.81
608.482	0.8
608.817	0.8
609.153	0.8
609.488	0.79
609.824	0.79
610.159	0.79
610.495	0.79
610.83	0.79
611.165	0.79
611.5	0.79
611.836	0.79
612.171	0.79
612.506	0.78
612.841	0.78
613.176	0.78
613.511	0.78
613.845	0.77
614.18	0.77
614.515	0.77
614.85	0.76
615.184	0.76
615.519	0.76
615.854	0.76
616.188	0.76
616.523	0.76
616.857	0.75
617.191	0.75
617.526	0.75
617.86	0.75
618.194	0.74
618.528	0.74
618.862	0.75
619.196	0.74
619.53	0.74
619.864	0.74
620.198	0.74
620.532	0.73
620.866	0.73
621.2	0.73
621.533	0.73
621.867	0.74
622.201	0.72
622.534	0.72
622.868	0.71
623.201	0.71
623.534	0.71
623.868	0.71
624.201	0.7
624.534	0.7
624.868	0.7
625.201	0.7
625.534	0.69
625.867	0.69
626.2	0.69
626.533	0.69
626.865	0.68
627.198	0.68
627.531	0.67
627.864	0.68
628.196	0.67
628.529	0.67
628.862	0.67
629.194	0.66
629.527	0.67
629.859	0.66
630.191	0.65
630.524	0.65
630.856	0.65
631.188	0.64
631.52	0.64
631.852	0.63
632.184	0.63
632.516	0.62
632.848	0.62
633.18	0.62
633.512	0.61
633.844	0.6
634.175	0.6
634.507	0.6
634.839	0.59
635.17	0.58
635.502	0.58
635.833	0.58
636.165	0.57
636.496	0.57
636.827	0.57
637.159	0.56
637.49	0.55
637.821	0.55
638.152	0.54
638.483	0.54
638.814	0.54
639.145	0.54
639.476	0.53
639.807	0.52
640.137	0.53
640.468	0.52
640.799	0.52
641.129	0.51
641.46	0.51
641.791	0.5
642.121	0.5
642.451	0.49
642.782	0.5
643.112	0.49
643.442	0.49
643.773	0.48
644.103	0.48
644.433	0.48
644.763	0.48
645.093	0.47
645.423	0.47
645.753	0.47
646.082	0.47
646.412	0.46
646.742	0.46
647.072	0.46
647.401	0.46
647.731	0.46
648.06	0.46
648.39	0.45
648.719	0.45
649.048	0.45
649.378	0.45
649.707	0.45
650.036	0.44
650.365	0.44
650.694	0.44
651.023	0.43
651.352	0.43
651.681	0.43
652.01	0.43
652.339	0.43
652.668	0.43
652.996	0.44
653.325	0.44
653.654	0.44
653.982	0.43
654.311	0.43
654.639	0.43
654.967	0.43
655.296	0.43
655.624	0.43
655.952	0.43
656.28	0.42
656.609	0.43
656.937	0.43
657.265	0.43
657.593	0.35
657.92	0.21
658.248	0.16
658.576	0.16
658.904	0.27
659.231	0.36
659.559	0.41
659.887	0.41
660.214	0.42
660.542	0.42
660.869	0.42
661.196	0.42
661.524	0.42
661.851	0.42
662.178	0.42
662.505	0.42
662.832	0.42
663.159	0.42
663.486	0.42
663.813	0.42
664.14	0.41
664.467	0.41
664.794	0.42
665.12	0.42
665.447	0.41
665.774	0.41
666.1	0.41
666.427	0.41
666.753	0.4
667.079	0.4
667.406	0.4
667.732	0.4
668.058	0.4
668.384	0.4
668.71	0.4
669.036	0.39
669.362	0.39
669.688	0.39
670.014	0.39
670.34	0.39
670.666	0.39
670.991	0.39
671.317	0.38
671.643	0.38
671.968	0.38
672.294	0.38
672.619	0.38
672.945	0.38
673.27	0.37
673.595	0.37
673.92	0.37
674.246	0.37
674.571	0.36
674.896	0.36
675.221	0.36
675.546	0.35
675.87	0.35
676.195	0.35
676.52	0.35
676.845	0.35
677.169	0.34
677.494	0.34
677.819	0.34
678.143	0.34
678.468	0.33
678.792	0.33
679.116	0.33
679.44	0.33
679.765	0.32
680.089	0.32
680.413	0.31
680.737	0.31
681.061	0.31
681.385	0.31
681.709	0.31
682.033	0.3
682.356	0.3
682.68	0.3
683.004	0.3
683.327	0.29
683.651	0.29
683.974	0.29
684.298	0.28
684.621	0.28
684.944	0.28
685.268	0.28
685.591	0.27
685.914	0.27
686.237	0.26
686.56	0.26
686.883	0.26
687.206	0.25
687.529	0.25
687.852	0.25
688.175	0.25
688.497	0.25
688.82	0.25
689.142	0.24
689.465	0.24
689.787	0.24
690.11	0.23
690.432	0.23
690.755	0.23
691.077	0.23
691.399	0.22
691.721	0.22
692.043	0.22
692.365	0.21
692.687	0.21
693.009	0.21
693.331	0.21
693.653	0.2
693.974	0.2
694.296	0.2
694.618	0.2
694.939	0.2
695.261	0.2
695.582	0.19
695.904	0.19
696.225	0.19
696.546	0.19
696.868	0.18
697.189	0.18
697.51	0.18
697.831	0.18
698.152	0.18
698.473	0.17
698.794	0.17
699.114	0.16
699.435	0.15
699.756	0.16
700.077	0.16
700.397	0.16
700.718	0.16
701.038	0.16
701.359	0.16
701.679	0.15
701.999	0.15
702.32	0.15
702.64	0.15
702.96	0.15
703.28	0.15
703.6	0.15
703.92	0.15
704.24	0.14
704.56	0.14
704.879	0.14
705.199	0.14
705.519	0.14
705.838	0.14
706.158	0.15
706.478	0.14
706.797	0.14
707.116	0.14
707.436	0.14
707.755	0.14
708.074	0.14
708.393	0.13
708.712	0.13
709.031	0.13
709.35	0.12
709.669	0.12
709.988	0.12
710.307	0.12
710.626	0.13
710.944	0.13
711.263	0.13
711.582	0.13
711.9	0.13
712.219	0.13
712.537	0.13
712.855	0.13
713.174	0.13
713.492	0.13
713.81	0.13
714.128	0.13
714.446	0.13
714.764	0.13
715.082	0.12
715.4	0.13
715.718	0.13
716.035	0.13
716.353	0.13
716.671	0.13
716.988	0.13
717.306	0.13
717.623	0.13
717.941	0.13
718.258	0.13
718.575	0.14
718.893	0.13
719.21	0.13
719.527	0.13
719.844	0.13
720.161	0.13
720.478	0.13
720.795	0.13
721.112	0.13
721.428	0.14
721.745	0.14
722.062	0.14
722.378	0.14
722.695	0.14
723.011	0.14
723.328	0.14
723.644	0.14
723.96	0.14
724.276	0.14
724.593	0.14
724.909	0.14
725.225	0.14
725.541	0.14
725.857	0.14
726.173	0.14
726.488	0.14
726.804	0.14
727.12	0.14
727.435	0.14
727.751	0.14
728.067	0.14
728.382	0.15
728.697	0.15
729.013	0.15
729.328	0.15
729.643	0.15
729.958	0.15
730.273	0.15
730.588	0.15
730.903	0.15
731.218	0.15
731.533	0.15
731.848	0.15
732.163	0.15
732.477	0.15
732.792	0.15
733.107	0.14
733.421	0.15
733.736	0.15
734.05	0.15
734.364	0.15
734.678	0.15
734.993	0.15
735.307	0.15
735.621	0.15
735.935	0.15
736.249	0.15
736.563	0.15
736.877	0.15
737.19	0.15
737.504	0.15
737.818	0.15
738.131	0.15
738.445	0.15
738.758	0.15
739.072	0.15
739.385	0.15
739.698	0.14
740.012	0.15
740.325	0.14
740.638	0.14
740.951	0.14
741.264	0.14
741.577	0.14
741.89	0.14
742.203	0.14
742.515	0.14
742.828	0.14
743.141	0.14
743.453	0.13
743.766	0.13
744.078	0.13
744.391	0.13
744.703	0.13
745.015	0.13
745.327	0.12
745.639	0.13
745.952	0.12
746.264	0.12
746.575	0.12
746.887	0.12
747.199	0.12
747.511	0.12
747.823	0.12
748.134	0.12
748.446	0.12
748.757	0.12
749.069	0.11
749.38	0.11
749.692	0.11
750.003	0.1
750.314	0.1
750.625	0.1
750.936	0.1
751.248	0.1
751.559	0.1
751.869	0.09
752.18	0.1
752.491	0.1
752.802	0.09
753.112	0.09
753.423	0.09
753.734	0.08
754.044	0.09
754.355	0.09
754.665	0.08
754.975	0.08
755.285	0.08
755.596	0.08
755.906	0.08
756.216	0.08
756.526	0.08
756.836	0.08
757.146	0.08
757.455	0.07
757.765	0.07
758.075	0.07
758.385	0.07
758.694	0.06
759.004	0.06
759.313	0.06
759.622	0.06
759.932	0.06
760.241	0.06
760.55	0.06
760.859	0.06
761.168	0.06
761.477	0.06
761.786	0.06
762.095	0.06
762.404	0.06
762.713	0.06
763.021	0.06
763.33	0.06
763.639	0.06
763.947	0.06
764.256	0.06
764.564	0.06
764.872	0.06
765.181	0.06
765.489	0.06
765.797	0.06
766.105	0.06
766.413	0.06
766.721	0.06
767.029	0.06
767.337	0.06
767.644	0.05
767.952	0.05
768.26	0.05
768.567	0.05
768.875	0.05
769.182	0.05
769.49	0.05
769.797	0.05
770.104	0.05
770.411	0.05
770.718	0.05
771.026	0.05
771.333	0.05
771.639	0.05
771.946	0.05
772.253	0.05
772.56	0.05
772.867	0.05
773.173	0.04
773.48	0.04
773.786	0.04
774.093	0.04
774.399	0.04
774.705	0.05
775.012	0.04
775.318	0.05
775.624	0.04
775.93	0.04
776.236	0.04
776.542	0.04
776.848	0.04
777.154	0.04
777.459	0.04
777.765	0.04
778.071	0.04
778.376	0.04
778.682	0.04
778.987	0.04
779.292	0.04
779.598	0.03
779.903	0.03
780.208	0.03
780.513	0.03
780.818	0.03
781.123	0.04
781.428	0.04
781.733	0.04
782.038	0.04
782.343	0.04
782.647	0.04
782.952	0.04
783.256	0.04
783.561	0.04
783.865	0.04
784.17	0.04
784.474	0.04
784.778	0.04
785.082	0.04
785.386	0.03
785.69	0.03
785.994	0.03
786.298	0.03
786.602	0.04
786.906	0.03
787.209	0.03
787.513	0.03
787.817	0.03
788.12	0.04
788.424	0.04
788.727	0.03
789.03	0.04
789.333	0.04
789.637	0.04
789.94	0.04
790.243	0.04
790.546	0.04
790.849	0.04
791.152	0.04
791.454	0.04
791.757	0.04
792.06	0.04
792.362	0.04
792.665	0.03
792.967	0.03
793.27	0.03
793.572	0.03
793.874	0.03
794.177	0.03
794.479	0.03
794.781	0.04
795.083	0.03
795.385	0.03
795.687	0.03
795.989	0.03
796.29	0.03
796.592	0.03
796.894	0.04
797.195	0.03
797.497	0.03
797.798	0.04
798.1	0.04
798.401	0.03
798.702	0.03
799.003	0.04
799.304	0.04
799.605	0.04
799.906	0.04
800.207	0.04
800.508	0.04
800.809	0.04
801.11	0.04
801.41	0.04
801.711	0.04
802.011	0.04
802.312	0.04
802.612	0.04
802.913	0.04
803.213	0.04
803.513	0.03
803.813	0.04
804.113	0.03
804.413	0.04
804.713	0.04
805.013	0.03
805.313	0.03
805.613	0.03
805.912	0.03
806.212	0.03
806.511	0.02
806.811	0.02
807.11	0.02
807.41	0.02
807.709	0.02
808.008	0.02
808.307	0.02
808.606	0.03
808.905	0.03
809.204	0.03
809.503	0.03
809.802	0.03
810.101	0.03
810.399	0.04
810.698	0.03
810.997	0.03
811.295	0.03
811.593	0.03
811.892	0.04
812.19	0.04
812.488	0.04
812.786	0.04
813.084	0.04
813.383	0.03
813.68	0.04
813.978	0.03
814.276	0.03
814.574	0.04
814.872	0.03
815.169	0.04
815.467	0.03
815.764	0.03
816.062	0.03
816.359	0.04
816.656	0.03
816.954	0.03
817.251	0.03
817.548	0.03
817.845	0.02
818.142	0.03
818.439	0.03
818.735	0.03
819.032	0.03
819.329	0.03
819.626	0.03
819.922	0.02
820.219	0.03
820.515	0.02
820.811	0.03
821.108	0.03
821.404	0.03
821.7	0.04
821.996	0.03
822.292	0.04
822.588	0.03
822.884	0.04
823.18	0.04
823.475	0.04
823.771	0.04
824.067	0.04
824.362	0.04
824.658	0.04
824.953	0.04
825.249	0.04
825.544	0.04
825.839	0.04
826.134	0.03
826.429	0.03
826.724	0.03
827.019	0.04
827.314	0.04
827.609	0.04
827.904	0.03
828.198	0.03
828.493	0.03
828.787	0.03
829.082	0.03
829.376	0.03
829.671	0.03
829.965	0.04
830.259	0.03
830.553	0.04
830.847	0.03
831.141	0.04
831.435	0.04
831.729	0.03
832.023	0.03
832.317	0.04
832.61	0.04
832.904	0.04
833.197	0.04
833.491	0.04
833.784	0.05
834.077	0.05
834.371	0.04
834.664	0.05
834.957	0.04
835.25	0.05
835.543	0.04
835.836	0.04
836.129	0.04
836.421	0.05
836.714	0.05
837.007	0.04
837.299	0.04
837.592	0.04
837.884	0.03
838.177	0.04
838.469	0.04
838.761	0.04
839.053	0.04
839.345	0.03
839.637	0.03
839.929	0.02
840.221	0.03
840.513	0.03
840.805	0.03
841.096	0.04
841.388	0.05
841.68	0.04
841.971	0.04
842.262	0.03
842.554	0.04
842.845	0.03
843.136	0.04
843.427	0.04
843.718	0.04
844.009	0.03
844.3	0.04
844.591	0.04
844.882	0.04
845.173	0.04
845.463	0.04
845.754	0.03
846.044	0.04
846.335	0.03
846.625	0.04
846.915	0.03
847.206	0.04
847.496	0.04
847.786	0.05
848.076	0.04
848.366	0.03
848.656	0.05
848.945	0.04
849.235	0.05
849.525	0.04
849.814	0.04
850.104	0.04
850.393	0.04
850.683	0.04
850.972	0.04
851.261	0.05
851.551	0.03
851.84	0.03
852.129	0.03
852.418	0.02
852.707	0.04
852.995	0.02
853.284	0.03
853.573	0.03
853.862	0.04
854.15	0.03
854.439	0.04
854.727	0.03
855.015	0.03
855.304	0.03
855.592	0.03
855.88	0.04
856.168	0.05
856.456	0.03
856.744	0.04
857.032	0.02
857.32	0.02
857.607	0.04
857.895	0.04
858.183	0.04
858.47	0.04
858.757	0.03
859.045	0.03
859.332	0.03
859.619	0.03
859.907	0.04
860.194	0.05
860.481	0.04
860.768	0.04
861.054	0.03
861.341	0.02
861.628	0.05
861.915	0.03
862.201	0.05
862.488	0.03
862.774	0.03
863.061	0.03
863.347	0.01
863.633	0.04
863.919	0.04
864.205	0.04
864.491	0.03
864.777	0.02
865.063	0.03
865.349	0.04
865.635	0.04
865.92	0.04
866.206	0.04
866.492	0.05
866.777	0.03
867.062	0.02
867.348	0.05
867.633	0.03
867.918	0.02
868.203	0.04
868.488	0.05
868.773	0.07
869.058	0.02
869.343	0.02
869.628	0.01
869.912	0
870.197	0.03
870.482	0.04
870.766	0
871.05	-0.04
871.335	0.02
871.619	0.03
871.903	0.01
872.187	0.02
872.471	0.03
872.755	0.01
873.039	0.05
873.323	0.06
873.607	0.01
873.89	0.01
874.174	-0.07
874.458	-0.04
874.741	0
875.024	0.02
875.308	-0.01
875.591	0.03
875.874	0.07
876.157	0.01
876.44	-0.07
876.723	0.02
877.006	-0.02
877.289	-0
877.572	0.07
877.854	-0.01
878.137	0.03
878.42	-0.01
878.702	0.07
878.984	0.03
879.267	-0.06
879.549	0.04
879.831	-0.07
880.113	-0.02
880.395	0.06
880.677	0.01
880.959	-0.09
