Data from Rubpy_EV_1200_EDTA_Buffered_Absorbance_14-14-48-641.txt Node
Date: Tue Jun 30 14:14:48 BST 2026
User: fpm-admin
Spectrometer: OFX00224
Trigger mode: 0
Integration Time (sec): 7.000000E-2
Scans to average: 3
Nonlinearity correction enabled: false
Boxcar width: 0
Storing dark spectrum: false
XAxis mode: Wavelengths
Number of Pixels in Spectrum: 2136
>>>>>Begin Spectral Data<<<<<
154.91	0.19
155.289	1.07
155.669	-0.19
156.048	0.03
156.428	-0.05
156.807	1.38
157.186	-0.08
157.566	0.7
157.945	-0.17
158.325	-0.37
158.704	-0.1
159.083	-0.24
159.462	-0
159.842	-0.13
160.221	-0
160.6	-0.14
160.979	-0.08
161.359	0.22
161.738	-0.53
162.117	-0
162.496	-0
162.875	0.35
163.254	1.02
163.633	-1.11
164.012	0.47
164.391	0.41
164.77	-1
165.149	0.03
165.528	-0
165.907	-0.08
166.286	-0
166.665	0.28
167.044	-0.54
167.423	0.49
167.802	-0
168.181	-0
168.559	-0
168.938	-0
169.317	-0.52
169.696	-1.49
170.074	-0
170.453	-0
170.832	-0.76
171.21	-0.4
171.589	-0
171.968	0.23
172.346	0.06
172.725	-0.57
173.103	-0
173.482	-0
173.861	-0
174.239	0.17
174.617	0.2
174.996	0.12
175.374	-0
175.753	-0.65
176.131	-0.41
176.51	-0.3
176.888	-0
177.266	-0
177.645	-0.09
178.023	0.85
178.401	-0.33
178.779	0.03
179.158	0.25
179.536	0.21
179.914	-0.24
180.292	0.6
180.67	0.38
181.048	0.2
181.427	0.43
181.805	-0
182.183	-0
182.561	-0.85
182.939	-0
183.317	0.6
183.695	0.51
184.073	-0
184.451	-0.85
184.829	0.04
185.206	0.08
185.584	0.25
185.962	-0.59
186.34	0.55
186.718	-0
187.096	-0.2
187.473	-0
187.851	-0
188.229	-0
188.607	0.12
188.984	0.12
189.362	0.17
189.74	0.13
190.117	0.06
190.495	0.06
190.872	0.07
191.25	0.13
191.627	-0.02
192.005	0.11
192.382	0.14
192.76	0.04
193.137	0.27
193.515	0.27
193.892	-0.01
194.269	0.12
194.647	0.13
195.024	0.04
195.401	0.14
195.779	0.06
196.156	0.08
196.533	0.12
196.91	0.19
197.288	0.16
197.665	0.28
198.042	0.27
198.419	0.12
198.796	0.18
199.173	0.09
199.55	0.16
199.927	0.08
200.304	0.02
200.681	0.15
201.058	0.07
201.435	0.09
201.812	0.15
202.189	0.12
202.566	0.07
202.943	0.1
203.32	0.22
203.697	0.12
204.073	0.15
204.45	0.12
204.827	0.14
205.204	0.17
205.58	0.14
205.957	0.17
206.334	0.06
206.71	0.12
207.087	0.12
207.464	0.22
207.84	0.13
208.217	0.19
208.593	0.14
208.97	0.01
209.346	0.05
209.723	0.2
210.099	0.17
210.476	0.15
210.852	0.2
211.228	0.23
211.605	0.22
211.981	0.2
212.357	0.1
212.733	0.08
213.11	0.12
213.486	0.04
213.862	0.02
214.238	0.18
214.614	0.16
214.991	0.13
215.367	0.17
215.743	0.23
216.119	0.15
216.495	0.19
216.871	0.15
217.247	0.18
217.623	0.22
217.999	0.19
218.375	0.12
218.751	0.15
219.127	0.19
219.502	0.15
219.878	0.17
220.254	0.18
220.63	0.16
221.006	0.09
221.381	0.11
221.757	0.17
222.133	0.18
222.508	0.15
222.884	0.25
223.26	0.2
223.635	0.14
224.011	0.08
224.386	0.19
224.762	0.12
225.137	0.09
225.513	0.3
225.888	0.04
226.264	0.15
226.639	0.16
227.014	0.2
227.39	0.23
227.765	0.16
228.14	0.07
228.516	0.16
228.891	0.07
229.266	0.15
229.641	0.12
230.017	0.22
230.392	0.05
230.767	0.16
231.142	0.13
231.517	0.2
231.892	0.15
232.267	0.18
232.642	0.28
233.017	0.21
233.392	0.16
233.767	0.15
234.142	0.17
234.517	0.15
234.892	0.16
235.267	0.13
235.641	0.17
236.016	0.16
236.391	0.22
236.766	0.06
237.14	0.11
237.515	0.1
237.89	0.13
238.264	0.15
238.639	0.06
239.014	0.2
239.388	0.15
239.763	0.25
240.137	0.23
240.512	0.18
240.886	0.1
241.261	0.02
241.635	0.13
242.009	0.17
242.384	0.06
242.758	0.13
243.132	0.08
243.507	0.06
243.881	0.18
244.255	0.23
244.629	0.13
245.004	0.18
245.378	0.13
245.752	0.16
246.126	0.17
246.5	0.09
246.874	0.16
247.248	0.28
247.622	0.2
247.996	0.13
248.37	0.18
248.744	0.17
249.118	0.06
249.492	0.18
249.866	0.12
250.24	0.16
250.613	0.17
250.987	0.1
251.361	0.12
251.735	0.08
252.108	0.18
252.482	0.17
252.856	0.07
253.229	0.17
253.603	0.15
253.977	0.11
254.35	0.06
254.724	0.2
255.097	0.17
255.471	0.17
255.844	0.21
256.218	0.11
256.591	0.07
256.964	0.14
257.338	0.18
257.711	0.21
258.084	0.25
258.458	0.09
258.831	0.21
259.204	0.17
259.577	0.11
259.95	0.17
260.323	0.19
260.697	0.16
261.07	0.12
261.443	0.15
261.816	0.14
262.189	0.28
262.562	0.12
262.935	0.11
263.308	0.11
263.68	0.09
264.053	0.23
264.426	0.17
264.799	0.15
265.172	0.19
265.545	0.17
265.917	0.18
266.29	0.1
266.663	0.17
267.035	0.17
267.408	0.21
267.781	0.18
268.153	0.14
268.526	0.18
268.898	0.11
269.271	0.16
269.643	0.16
270.016	0.09
270.388	0.22
270.76	0.2
271.133	0.25
271.505	0.17
271.877	0.14
272.25	0.17
272.622	0.19
272.994	0.15
273.366	0.16
273.739	0.11
274.111	0.07
274.483	0.18
274.855	0.07
275.227	0.11
275.599	0.2
275.971	0.19
276.343	0.15
276.715	0.16
277.087	0.22
277.459	0.15
277.831	0.18
278.203	0.15
278.574	0.15
278.946	0.17
279.318	0.11
279.69	0.1
280.061	0.19
280.433	0.21
280.805	0.13
281.176	0.15
281.548	0.13
281.92	0.07
282.291	0.18
282.663	0.16
283.034	0.15
283.406	0.18
283.777	0.24
284.148	0.19
284.52	0.18
284.891	0.23
285.262	0.15
285.634	0.13
286.005	0.18
286.376	0.16
286.747	0.16
287.119	0.17
287.49	0.19
287.861	0.16
288.232	0.16
288.603	0.25
288.974	0.15
289.345	0.23
289.716	0.13
290.087	0.18
290.458	0.12
290.829	0.2
291.2	0.17
291.571	0.14
291.941	0.22
292.312	0.16
292.683	0.21
293.054	0.16
293.424	0.13
293.795	0.18
294.166	0.13
294.536	0.14
294.907	0.16
295.277	0.14
295.648	0.13
296.018	0.15
296.389	0.17
296.759	0.16
297.13	0.16
297.5	0.1
297.871	0.17
298.241	0.18
298.611	0.19
298.981	0.15
299.352	0.15
299.722	0.11
300.092	0.15
300.462	0.15
300.832	0.14
301.202	0.1
301.573	0.1
301.943	0.11
302.313	0.11
302.683	0.14
303.053	0.12
303.422	0.12
303.792	0.13
304.162	0.1
304.532	0.1
304.902	0.11
305.272	0.11
305.641	0.11
306.011	0.11
306.381	0.11
306.75	0.13
307.12	0.13
307.49	0.12
307.859	0.13
308.229	0.13
308.598	0.13
308.968	0.13
309.337	0.13
309.707	0.14
310.076	0.14
310.445	0.14
310.815	0.14
311.184	0.14
311.553	0.14
311.923	0.15
312.292	0.15
312.661	0.15
313.03	0.14
313.399	0.15
313.768	0.15
314.137	0.15
314.506	0.14
314.875	0.15
315.244	0.14
315.613	0.14
315.982	0.14
316.351	0.14
316.72	0.14
317.089	0.14
317.458	0.14
317.826	0.14
318.195	0.14
318.564	0.14
318.933	0.13
319.301	0.14
319.67	0.13
320.038	0.14
320.407	0.13
320.775	0.13
321.144	0.13
321.512	0.13
321.881	0.12
322.249	0.12
322.618	0.13
322.986	0.12
323.354	0.12
323.723	0.12
324.091	0.12
324.459	0.12
324.827	0.12
325.195	0.11
325.564	0.11
325.932	0.12
326.3	0.12
326.668	0.11
327.036	0.12
327.404	0.11
327.772	0.12
328.14	0.12
328.508	0.11
328.875	0.11
329.243	0.11
329.611	0.1
329.979	0.12
330.346	0.11
330.714	0.12
331.082	0.12
331.449	0.12
331.817	0.12
332.185	0.12
332.552	0.12
332.92	0.12
333.287	0.13
333.655	0.13
334.022	0.13
334.389	0.12
334.757	0.13
335.124	0.12
335.491	0.13
335.859	0.13
336.226	0.12
336.593	0.13
336.96	0.13
337.327	0.14
337.695	0.14
338.062	0.14
338.429	0.14
338.796	0.14
339.163	0.15
339.53	0.15
339.897	0.15
340.263	0.15
340.63	0.16
340.997	0.15
341.364	0.16
341.731	0.16
342.097	0.16
342.464	0.17
342.831	0.17
343.197	0.17
343.564	0.18
343.931	0.18
344.297	0.18
344.664	0.19
345.03	0.19
345.396	0.19
345.763	0.19
346.129	0.19
346.496	0.2
346.862	0.2
347.228	0.2
347.594	0.2
347.961	0.21
348.327	0.22
348.693	0.22
349.059	0.22
349.425	0.22
349.791	0.23
350.157	0.23
350.523	0.24
350.889	0.24
351.255	0.25
351.621	0.25
351.987	0.25
352.353	0.26
352.719	0.27
353.084	0.27
353.45	0.28
353.816	0.28
354.181	0.29
354.547	0.29
354.913	0.3
355.278	0.3
355.644	0.31
356.009	0.32
356.375	0.32
356.74	0.33
357.106	0.34
357.471	0.34
357.836	0.35
358.202	0.36
358.567	0.37
358.932	0.37
359.297	0.38
359.663	0.39
360.028	0.39
360.393	0.4
360.758	0.4
361.123	0.4
361.488	0.42
361.853	0.42
362.218	0.42
362.583	0.43
362.948	0.44
363.312	0.43
363.677	0.45
364.042	0.45
364.407	0.46
364.772	0.47
365.136	0.48
365.501	0.49
365.865	0.49
366.23	0.51
366.595	0.52
366.959	0.53
367.324	0.54
367.688	0.55
368.052	0.56
368.417	0.57
368.781	0.57
369.145	0.59
369.51	0.58
369.874	0.6
370.238	0.59
370.602	0.59
370.967	0.59
371.331	0.58
371.695	0.58
372.059	0.59
372.423	0.58
372.787	0.58
373.151	0.57
373.515	0.58
373.878	0.58
374.242	0.58
374.606	0.57
374.97	0.58
375.334	0.57
375.697	0.58
376.061	0.58
376.425	0.59
376.788	0.59
377.152	0.59
377.515	0.6
377.879	0.6
378.242	0.61
378.606	0.61
378.969	0.62
379.333	0.64
379.696	0.64
380.059	0.65
380.422	0.67
380.786	0.68
381.149	0.69
381.512	0.71
381.875	0.72
382.238	0.74
382.601	0.76
382.964	0.77
383.327	0.79
383.69	0.81
384.053	0.83
384.416	0.85
384.779	0.87
385.142	0.89
385.504	0.91
385.867	0.92
386.23	0.93
386.593	0.94
386.955	0.93
387.318	0.93
387.68	0.94
388.043	0.92
388.405	0.93
388.768	0.91
389.13	0.91
389.493	0.91
389.855	0.89
390.217	0.89
390.58	0.9
390.942	0.9
391.304	0.9
391.666	0.92
392.028	0.93
392.391	0.95
392.753	0.98
393.115	1.01
393.477	1.04
393.839	1.08
394.201	1.11
394.563	1.16
394.924	1.21
395.286	1.25
395.648	1.29
396.01	1.31
396.371	1.36
396.733	1.39
397.095	1.4
397.456	1.41
397.818	1.41
398.18	1.4
398.541	1.38
398.903	1.36
399.264	1.32
399.625	1.28
399.987	1.23
400.348	1.18
400.709	1.12
401.071	1.07
401.432	1
401.793	0.94
402.154	0.88
402.515	0.81
402.876	0.77
403.238	0.71
403.599	0.66
403.96	0.61
404.32	0.57
404.681	0.53
405.042	0.49
405.403	0.46
405.764	0.42
406.125	0.4
406.485	0.37
406.846	0.35
407.207	0.32
407.567	0.3
407.928	0.29
408.288	0.27
408.649	0.26
409.009	0.24
409.37	0.23
409.73	0.22
410.091	0.21
410.451	0.2
410.811	0.19
411.171	0.18
411.532	0.18
411.892	0.16
412.252	0.16
412.612	0.15
412.972	0.15
413.332	0.15
413.692	0.14
414.052	0.13
414.412	0.13
414.772	0.12
415.132	0.12
415.492	0.12
415.851	0.11
416.211	0.11
416.571	0.1
416.931	0.11
417.29	0.09
417.65	0.1
418.009	0.09
418.369	0.09
418.728	0.09
419.088	0.09
419.447	0.09
419.807	0.09
420.166	0.09
420.525	0.09
420.884	0.08
421.244	0.08
421.603	0.08
421.962	0.08
422.321	0.07
422.68	0.07
423.039	0.07
423.398	0.07
423.757	0.07
424.116	0.07
424.475	0.07
424.834	0.07
425.193	0.07
425.551	0.07
425.91	0.07
426.269	0.06
426.628	0.06
426.986	0.07
427.345	0.07
427.703	0.06
428.062	0.06
428.42	0.06
428.779	0.06
429.137	0.06
429.496	0.06
429.854	0.06
430.212	0.06
430.57	0.06
430.929	0.06
431.287	0.06
431.645	0.06
432.003	0.05
432.361	0.05
432.719	0.05
433.077	0.05
433.435	0.06
433.793	0.06
434.151	0.05
434.509	0.05
434.866	0.05
435.224	0.06
435.582	0.05
435.94	0.05
436.297	0.05
436.655	0.06
437.012	0.05
437.37	0.05
437.727	0.05
438.085	0.05
438.442	0.05
438.8	0.05
439.157	0.04
439.514	0.05
439.872	0.05
440.229	0.04
440.586	0.04
440.943	0.04
441.3	0.04
441.657	0.04
442.014	0.04
442.371	0.04
442.728	0.04
443.085	0.04
443.442	0.04
443.799	0.04
444.156	0.04
444.513	0.03
444.869	0.04
445.226	0.04
445.583	0.04
445.939	0.03
446.296	0.03
446.652	0.04
447.009	0.04
447.365	0.03
447.722	0.04
448.078	0.04
448.434	0.03
448.791	0.03
449.147	0.03
449.503	0.03
449.859	0.03
450.215	0.03
450.571	0.03
450.928	0.03
451.284	0.03
451.64	0.02
451.995	0.02
452.351	0.02
452.707	0.02
453.063	0.02
453.419	0.02
453.775	0.03
454.13	0.02
454.486	0.01
454.842	0.01
455.197	0.01
455.553	0.02
455.908	0.01
456.264	0.01
456.619	0.01
456.975	0.01
457.33	0
457.685	0
458.04	-0
458.396	0
458.751	0
459.106	0
459.461	0
459.816	-0
460.171	-0.01
460.526	-0
460.881	-0.01
461.236	-0.01
461.591	-0.01
461.946	-0.01
462.301	-0.02
462.655	-0.03
463.01	-0.02
463.365	-0.02
463.719	-0.02
464.074	-0.03
464.428	-0.03
464.783	-0.02
465.137	-0.03
465.492	-0.03
465.846	-0.03
466.201	-0.04
466.555	-0.03
466.909	-0.03
467.263	-0.04
467.618	-0.03
467.972	-0.03
468.326	-0.04
468.68	-0.04
469.034	-0.04
469.388	-0.04
469.742	-0.04
470.096	-0.04
470.45	-0.04
470.804	-0.04
471.157	-0.03
471.511	-0.04
471.865	-0.03
472.218	-0.03
472.572	-0.03
472.926	-0.03
473.279	-0.03
473.633	-0.03
473.986	-0.02
474.34	-0.02
474.693	-0.02
475.046	-0.01
475.4	-0.01
475.753	-0
476.106	-0
476.459	-0
476.812	0
477.165	0.01
477.519	0
477.872	0.01
478.224	0.01
478.577	0.01
478.93	0.02
479.283	0.01
479.636	0.02
479.989	0.02
480.341	0.02
480.694	0.02
481.047	0.02
481.399	0.03
481.752	0.03
482.104	0.04
482.457	0.03
482.809	0.04
483.162	0.03
483.514	0.04
483.866	0.04
484.219	0.03
484.571	0.04
484.923	0.04
485.275	0.04
485.627	0.05
485.979	0.04
486.331	0.05
486.683	0.05
487.035	0.05
487.387	0.05
487.739	0.06
488.091	0.06
488.443	0.05
488.794	0.05
489.146	0.06
489.498	0.06
489.849	0.06
490.201	0.06
490.552	0.06
490.904	0.06
491.255	0.06
491.607	0.06
491.958	0.06
492.309	0.07
492.661	0.07
493.012	0.06
493.363	0.07
493.714	0.07
494.065	0.07
494.416	0.07
494.767	0.07
495.118	0.07
495.469	0.08
495.82	0.08
496.171	0.08
496.522	0.08
496.872	0.08
497.223	0.08
497.574	0.08
497.924	0.08
498.275	0.08
498.626	0.08
498.976	0.09
499.327	0.09
499.677	0.09
500.027	0.09
500.378	0.09
500.728	0.09
501.078	0.09
501.428	0.09
501.779	0.09
502.129	0.1
502.479	0.1
502.829	0.1
503.179	0.1
503.529	0.1
503.879	0.1
504.229	0.1
504.578	0.11
504.928	0.11
505.278	0.11
505.628	0.11
505.977	0.12
506.327	0.12
506.676	0.11
507.026	0.11
507.375	0.11
507.725	0.12
508.074	0.12
508.424	0.12
508.773	0.12
509.122	0.12
509.471	0.12
509.82	0.12
510.17	0.13
510.519	0.12
510.868	0.13
511.217	0.13
511.566	0.13
511.915	0.13
512.263	0.13
512.612	0.14
512.961	0.14
513.31	0.14
513.659	0.14
514.007	0.14
514.356	0.14
514.704	0.14
515.053	0.15
515.401	0.14
515.75	0.15
516.098	0.14
516.447	0.15
516.795	0.15
517.143	0.15
517.491	0.15
517.839	0.15
518.188	0.16
518.536	0.16
518.884	0.15
519.232	0.16
519.58	0.16
519.928	0.16
520.275	0.16
520.623	0.16
520.971	0.16
521.319	0.17
521.666	0.17
522.014	0.17
522.362	0.17
522.709	0.17
523.057	0.17
523.404	0.17
523.752	0.17
524.099	0.17
524.446	0.17
524.794	0.18
525.141	0.18
525.488	0.18
525.835	0.18
526.182	0.18
526.529	0.19
526.876	0.19
527.223	0.19
527.57	0.19
527.917	0.19
528.264	0.19
528.611	0.2
528.958	0.19
529.304	0.19
529.651	0.2
529.998	0.2
530.344	0.2
530.691	0.21
531.037	0.2
531.384	0.21
531.73	0.21
532.076	0.21
532.423	0.21
532.769	0.21
533.115	0.21
533.461	0.22
533.807	0.21
534.154	0.22
534.5	0.22
534.846	0.22
535.192	0.22
535.537	0.23
535.883	0.23
536.229	0.23
536.575	0.23
536.921	0.23
537.266	0.23
537.612	0.23
537.957	0.24
538.303	0.24
538.649	0.24
538.994	0.24
539.339	0.24
539.685	0.25
540.03	0.25
540.375	0.25
540.721	0.25
541.066	0.25
541.411	0.25
541.756	0.25
542.101	0.26
542.446	0.26
542.791	0.26
543.136	0.26
543.481	0.26
543.825	0.27
544.17	0.27
544.515	0.27
544.86	0.28
545.204	0.28
545.549	0.28
545.893	0.28
546.238	0.28
546.582	0.28
546.927	0.29
547.271	0.29
547.615	0.29
547.96	0.29
548.304	0.29
548.648	0.29
548.992	0.3
549.336	0.29
549.68	0.3
550.024	0.3
550.368	0.3
550.712	0.3
551.056	0.31
551.4	0.31
551.743	0.31
552.087	0.31
552.431	0.31
552.774	0.32
553.118	0.32
553.462	0.31
553.805	0.32
554.148	0.32
554.492	0.32
554.835	0.32
555.178	0.32
555.522	0.32
555.865	0.32
556.208	0.32
556.551	0.33
556.894	0.33
557.237	0.33
557.58	0.33
557.923	0.33
558.266	0.33
558.609	0.33
558.952	0.33
559.294	0.33
559.637	0.33
559.98	0.34
560.322	0.34
560.665	0.34
561.007	0.34
561.35	0.34
561.692	0.34
562.034	0.35
562.377	0.35
562.719	0.34
563.061	0.34
563.403	0.35
563.745	0.34
564.088	0.34
564.43	0.34
564.772	0.34
565.113	0.35
565.455	0.35
565.797	0.35
566.139	0.35
566.481	0.35
566.822	0.35
567.164	0.35
567.506	0.35
567.847	0.35
568.189	0.36
568.53	0.36
568.872	0.36
569.213	0.36
569.554	0.36
569.895	0.36
570.237	0.35
570.578	0.36
570.919	0.35
571.26	0.36
571.601	0.36
571.942	0.35
572.283	0.36
572.624	0.36
572.965	0.36
573.306	0.36
573.646	0.35
573.987	0.35
574.328	0.35
574.668	0.36
575.009	0.36
575.349	0.36
575.69	0.35
576.03	0.36
576.37	0.35
576.711	0.35
577.051	0.35
577.391	0.35
577.731	0.36
578.072	0.36
578.412	0.36
578.752	0.36
579.092	0.36
579.431	0.35
579.771	0.34
580.111	0.32
580.451	0.33
580.791	0.35
581.13	0.36
581.47	0.36
581.81	0.36
582.149	0.36
582.489	0.36
582.828	0.36
583.167	0.33
583.507	0.3
583.846	0.28
584.185	0.3
584.525	0.33
584.864	0.35
585.203	0.36
585.542	0.37
585.881	0.38
586.22	0.38
586.559	0.37
586.898	0.37
587.236	0.36
587.575	0.35
587.914	0.36
588.252	0.37
588.591	0.38
588.93	0.38
589.268	0.38
589.607	0.38
589.945	0.38
590.283	0.39
590.622	0.39
590.96	0.39
591.298	0.4
591.636	0.4
591.974	0.4
592.313	0.4
592.651	0.4
592.989	0.41
593.326	0.41
593.664	0.41
594.002	0.41
594.34	0.41
594.678	0.41
595.015	0.41
595.353	0.4
595.691	0.41
596.028	0.42
596.366	0.42
596.703	0.42
597.04	0.43
597.378	0.43
597.715	0.43
598.052	0.43
598.389	0.43
598.726	0.44
599.064	0.44
599.401	0.44
599.738	0.44
600.074	0.44
600.411	0.44
600.748	0.44
601.085	0.44
601.422	0.43
601.758	0.43
602.095	0.43
602.432	0.43
602.768	0.43
603.105	0.44
603.441	0.44
603.777	0.44
604.114	0.44
604.45	0.45
604.786	0.45
605.122	0.45
605.459	0.45
605.795	0.44
606.131	0.44
606.467	0.44
606.803	0.45
607.139	0.44
607.474	0.44
607.81	0.44
608.146	0.44
608.482	0.44
608.817	0.44
609.153	0.44
609.488	0.43
609.824	0.43
610.159	0.44
610.495	0.43
610.83	0.43
611.165	0.44
611.5	0.43
611.836	0.43
612.171	0.43
612.506	0.43
612.841	0.43
613.176	0.43
613.511	0.43
613.845	0.43
614.18	0.42
614.515	0.42
614.85	0.42
615.184	0.42
615.519	0.42
615.854	0.42
616.188	0.42
616.523	0.42
616.857	0.42
617.191	0.42
617.526	0.41
617.86	0.41
618.194	0.41
618.528	0.42
618.862	0.41
619.196	0.41
619.53	0.41
619.864	0.41
620.198	0.41
620.532	0.41
620.866	0.4
621.2	0.41
621.533	0.41
621.867	0.41
622.201	0.4
622.534	0.4
622.868	0.4
623.201	0.4
623.534	0.39
623.868	0.39
624.201	0.39
624.534	0.39
624.868	0.39
625.201	0.39
625.534	0.38
625.867	0.39
626.2	0.38
626.533	0.38
626.865	0.38
627.198	0.38
627.531	0.38
627.864	0.37
628.196	0.37
628.529	0.37
628.862	0.37
629.194	0.37
629.527	0.37
629.859	0.37
630.191	0.37
630.524	0.37
630.856	0.36
631.188	0.36
631.52	0.35
631.852	0.35
632.184	0.35
632.516	0.35
632.848	0.34
633.18	0.34
633.512	0.34
633.844	0.34
634.175	0.33
634.507	0.33
634.839	0.33
635.17	0.32
635.502	0.32
635.833	0.32
636.165	0.32
636.496	0.31
636.827	0.31
637.159	0.31
637.49	0.3
637.821	0.3
638.152	0.3
638.483	0.3
638.814	0.3
639.145	0.3
639.476	0.3
639.807	0.29
640.137	0.29
640.468	0.29
640.799	0.29
641.129	0.28
641.46	0.28
641.791	0.28
642.121	0.28
642.451	0.27
642.782	0.27
643.112	0.27
643.442	0.27
643.773	0.27
644.103	0.27
644.433	0.26
644.763	0.26
645.093	0.26
645.423	0.26
645.753	0.26
646.082	0.26
646.412	0.26
646.742	0.26
647.072	0.25
647.401	0.26
647.731	0.25
648.06	0.25
648.39	0.25
648.719	0.25
649.048	0.25
649.378	0.25
649.707	0.25
650.036	0.24
650.365	0.24
650.694	0.24
651.023	0.24
651.352	0.23
651.681	0.24
652.01	0.24
652.339	0.24
652.668	0.24
652.996	0.24
653.325	0.24
653.654	0.24
653.982	0.24
654.311	0.24
654.639	0.24
654.967	0.23
655.296	0.23
655.624	0.24
655.952	0.24
656.28	0.23
656.609	0.23
656.937	0.23
657.265	0.24
657.593	0.16
657.92	0.03
658.248	0
658.576	0.01
658.904	0.08
659.231	0.17
659.559	0.22
659.887	0.23
660.214	0.23
660.542	0.23
660.869	0.23
661.196	0.23
661.524	0.23
661.851	0.23
662.178	0.23
662.505	0.23
662.832	0.23
663.159	0.23
663.486	0.23
663.813	0.23
664.14	0.23
664.467	0.23
664.794	0.23
665.12	0.23
665.447	0.23
665.774	0.23
666.1	0.22
666.427	0.22
666.753	0.22
667.079	0.22
667.406	0.22
667.732	0.22
668.058	0.22
668.384	0.22
668.71	0.22
669.036	0.21
669.362	0.22
669.688	0.22
670.014	0.21
670.34	0.22
670.666	0.22
670.991	0.21
671.317	0.21
671.643	0.21
671.968	0.21
672.294	0.21
672.619	0.21
672.945	0.21
673.27	0.21
673.595	0.21
673.92	0.21
674.246	0.2
674.571	0.2
674.896	0.2
675.221	0.2
675.546	0.2
675.87	0.2
676.195	0.19
676.52	0.19
676.845	0.19
677.169	0.19
677.494	0.19
677.819	0.19
678.143	0.18
678.468	0.19
678.792	0.18
679.116	0.18
679.44	0.18
679.765	0.18
680.089	0.17
680.413	0.17
680.737	0.17
681.061	0.17
681.385	0.17
681.709	0.17
682.033	0.17
682.356	0.17
682.68	0.16
683.004	0.16
683.327	0.16
683.651	0.16
683.974	0.16
684.298	0.16
684.621	0.15
684.944	0.15
685.268	0.15
685.591	0.15
685.914	0.15
686.237	0.14
686.56	0.15
686.883	0.14
687.206	0.14
687.529	0.13
687.852	0.14
688.175	0.13
688.497	0.14
688.82	0.13
689.142	0.13
689.465	0.13
689.787	0.13
690.11	0.13
690.432	0.12
690.755	0.13
691.077	0.12
691.399	0.12
691.721	0.12
692.043	0.12
692.365	0.12
692.687	0.11
693.009	0.12
693.331	0.11
693.653	0.11
693.974	0.11
694.296	0.11
694.618	0.11
694.939	0.11
695.261	0.11
695.582	0.1
695.904	0.1
696.225	0.1
696.546	0.1
696.868	0.1
697.189	0.1
697.51	0.1
697.831	0.1
698.152	0.1
698.473	0.1
698.794	0.09
699.114	0.09
699.435	0.08
699.756	0.08
700.077	0.09
700.397	0.09
700.718	0.09
701.038	0.09
701.359	0.08
701.679	0.08
701.999	0.08
702.32	0.08
702.64	0.08
702.96	0.08
703.28	0.08
703.6	0.08
703.92	0.08
704.24	0.08
704.56	0.07
704.879	0.08
705.199	0.08
705.519	0.08
705.838	0.08
706.158	0.08
706.478	0.08
706.797	0.08
707.116	0.08
707.436	0.08
707.755	0.07
708.074	0.07
708.393	0.07
708.712	0.07
709.031	0.06
709.35	0.06
709.669	0.06
709.988	0.06
710.307	0.07
710.626	0.07
710.944	0.07
711.263	0.07
711.582	0.07
711.9	0.07
712.219	0.07
712.537	0.07
712.855	0.07
713.174	0.07
713.492	0.07
713.81	0.07
714.128	0.07
714.446	0.07
714.764	0.07
715.082	0.07
715.4	0.07
715.718	0.07
716.035	0.07
716.353	0.07
716.671	0.07
716.988	0.07
717.306	0.07
717.623	0.07
717.941	0.07
718.258	0.07
718.575	0.07
718.893	0.07
719.21	0.07
719.527	0.07
719.844	0.07
720.161	0.07
720.478	0.07
720.795	0.07
721.112	0.07
721.428	0.07
721.745	0.07
722.062	0.08
722.378	0.07
722.695	0.07
723.011	0.07
723.328	0.07
723.644	0.07
723.96	0.07
724.276	0.07
724.593	0.07
724.909	0.07
725.225	0.07
725.541	0.07
725.857	0.07
726.173	0.07
726.488	0.07
726.804	0.07
727.12	0.07
727.435	0.08
727.751	0.08
728.067	0.08
728.382	0.08
728.697	0.08
729.013	0.08
729.328	0.08
729.643	0.08
729.958	0.08
730.273	0.08
730.588	0.08
730.903	0.08
731.218	0.08
731.533	0.08
731.848	0.08
732.163	0.08
732.477	0.08
732.792	0.08
733.107	0.08
733.421	0.08
733.736	0.08
734.05	0.08
734.364	0.08
734.678	0.08
734.993	0.08
735.307	0.08
735.621	0.08
735.935	0.08
736.249	0.08
736.563	0.09
736.877	0.08
737.19	0.08
737.504	0.08
737.818	0.08
738.131	0.08
738.445	0.08
738.758	0.08
739.072	0.08
739.385	0.08
739.698	0.08
740.012	0.08
740.325	0.08
740.638	0.08
740.951	0.07
741.264	0.07
741.577	0.07
741.89	0.08
742.203	0.08
742.515	0.08
742.828	0.08
743.141	0.08
743.453	0.08
743.766	0.07
744.078	0.07
744.391	0.07
744.703	0.07
745.015	0.07
745.327	0.07
745.639	0.07
745.952	0.07
746.264	0.07
746.575	0.06
746.887	0.06
747.199	0.06
747.511	0.06
747.823	0.06
748.134	0.06
748.446	0.06
748.757	0.06
749.069	0.06
749.38	0.06
749.692	0.06
750.003	0.05
750.314	0.06
750.625	0.06
750.936	0.05
751.248	0.05
751.559	0.05
751.869	0.05
752.18	0.05
752.491	0.05
752.802	0.05
753.112	0.05
753.423	0.04
753.734	0.04
754.044	0.04
754.355	0.04
754.665	0.04
754.975	0.04
755.285	0.04
755.596	0.04
755.906	0.04
756.216	0.04
756.526	0.04
756.836	0.04
757.146	0.04
757.455	0.04
757.765	0.03
758.075	0.03
758.385	0.03
758.694	0.03
759.004	0.03
759.313	0.03
759.622	0.03
759.932	0.03
760.241	0.03
760.55	0.03
760.859	0.03
761.168	0.03
761.477	0.03
761.786	0.03
762.095	0.03
762.404	0.03
762.713	0.03
763.021	0.03
763.33	0.03
763.639	0.03
763.947	0.03
764.256	0.03
764.564	0.03
764.872	0.03
765.181	0.03
765.489	0.04
765.797	0.03
766.105	0.03
766.413	0.03
766.721	0.03
767.029	0.03
767.337	0.03
767.644	0.03
767.952	0.03
768.26	0.03
768.567	0.03
768.875	0.03
769.182	0.02
769.49	0.03
769.797	0.03
770.104	0.03
770.411	0.03
770.718	0.03
771.026	0.03
771.333	0.03
771.639	0.03
771.946	0.03
772.253	0.03
772.56	0.03
772.867	0.02
773.173	0.02
773.48	0.02
773.786	0.02
774.093	0.02
774.399	0.03
774.705	0.03
775.012	0.02
775.318	0.02
775.624	0.02
775.93	0.02
776.236	0.02
776.542	0.02
776.848	0.02
777.154	0.02
777.459	0.02
777.765	0.02
778.071	0.02
778.376	0.02
778.682	0.02
778.987	0.02
779.292	0.02
779.598	0.02
779.903	0.02
780.208	0.02
780.513	0.02
780.818	0.01
781.123	0.02
781.428	0.02
781.733	0.02
782.038	0.01
782.343	0.02
782.647	0.02
782.952	0.02
783.256	0.02
783.561	0.02
783.865	0.02
784.17	0.02
784.474	0.02
784.778	0.02
785.082	0.02
785.386	0.02
785.69	0.01
785.994	0.01
786.298	0.02
786.602	0.02
786.906	0.01
787.209	0.02
787.513	0.02
787.817	0.02
788.12	0.02
788.424	0.02
788.727	0.02
789.03	0.02
789.333	0.02
789.637	0.02
789.94	0.02
790.243	0.03
790.546	0.02
790.849	0.02
791.152	0.03
791.454	0.02
791.757	0.02
792.06	0.02
792.362	0.02
792.665	0.02
792.967	0.02
793.27	0.02
793.572	0.01
793.874	0.02
794.177	0.02
794.479	0.02
794.781	0.02
795.083	0.02
795.385	0.02
795.687	0.01
795.989	0.02
796.29	0.01
796.592	0.02
796.894	0.02
797.195	0.02
797.497	0.02
797.798	0.02
798.1	0.02
798.401	0.02
798.702	0.02
799.003	0.02
799.304	0.02
799.605	0.02
799.906	0.02
800.207	0.02
800.508	0.02
800.809	0.02
801.11	0.02
801.41	0.02
801.711	0.02
802.011	0.02
802.312	0.02
802.612	0.02
802.913	0.03
803.213	0.02
803.513	0.02
803.813	0.02
804.113	0.02
804.413	0.02
804.713	0.02
805.013	0.02
805.313	0.02
805.613	0.01
805.912	0.02
806.212	0.01
806.511	0.01
806.811	0.01
807.11	0.01
807.41	0.01
807.709	0.01
808.008	0
808.307	0.01
808.606	0.01
808.905	0.01
809.204	0.02
809.503	0.02
809.802	0.02
810.101	0.02
810.399	0.02
810.698	0.01
810.997	0.01
811.295	0.01
811.593	0.02
811.892	0.02
812.19	0.02
812.488	0.02
812.786	0.02
813.084	0.02
813.383	0.02
813.68	0.02
813.978	0.02
814.276	0.02
814.574	0.02
814.872	0.02
815.169	0.02
815.467	0.02
815.764	0.02
816.062	0.02
816.359	0.02
816.656	0.02
816.954	0.02
817.251	0.01
817.548	0.01
817.845	0.01
818.142	0.01
818.439	0.01
818.735	0.02
819.032	0.02
819.329	0.01
819.626	0
819.922	0.01
820.219	0.01
820.515	0
820.811	0.01
821.108	0.01
821.404	0.01
821.7	0.01
821.996	0.01
822.292	0.02
822.588	0.01
822.884	0.02
823.18	0.02
823.475	0.02
823.771	0.02
824.067	0.02
824.362	0.02
824.658	0.02
824.953	0.03
825.249	0.02
825.544	0.02
825.839	0.02
826.134	0.01
826.429	0.02
826.724	0.02
827.019	0.02
827.314	0.02
827.609	0.02
827.904	0.02
828.198	0.02
828.493	0.02
828.787	0.02
829.082	0.02
829.376	0.02
829.671	0.01
829.965	0.02
830.259	0.01
830.553	0.02
830.847	0.01
831.141	0.02
831.435	0.02
831.729	0.01
832.023	0.01
832.317	0.02
832.61	0.02
832.904	0.02
833.197	0.02
833.491	0.03
833.784	0.04
834.077	0.03
834.371	0.02
834.664	0.03
834.957	0.03
835.25	0.02
835.543	0.02
835.836	0.03
836.129	0.03
836.421	0.03
836.714	0.02
837.007	0.02
837.299	0.01
837.592	0.02
837.884	0.02
838.177	0.02
838.469	0.02
838.761	0.02
839.053	0.02
839.345	0.02
839.637	0.01
839.929	-0
840.221	0.01
840.513	0.01
840.805	0.02
841.096	0.02
841.388	0.02
841.68	0.02
841.971	0.02
842.262	0.01
842.554	0.02
842.845	0.01
843.136	0.02
843.427	0.02
843.718	0.01
844.009	0.01
844.3	0.02
844.591	0.02
844.882	0.01
845.173	0.02
845.463	0.01
845.754	0.01
846.044	0.01
846.335	0.01
846.625	0.02
846.915	0.02
847.206	0.01
847.496	0.02
847.786	0.03
848.076	0.02
848.366	0.03
848.656	0.02
848.945	0.01
849.235	0.03
849.525	0.03
849.814	0.01
850.104	0.02
850.393	0.02
850.683	0.01
850.972	0.02
851.261	0.02
851.551	0.01
851.84	0
852.129	0.01
852.418	0.01
852.707	0.01
852.995	-0
853.284	0.02
853.573	-0.01
853.862	0
854.15	0.01
854.439	0.02
854.727	0.01
855.015	-0
855.304	0.01
855.592	0.01
855.88	0.02
856.168	0.01
856.456	-0
856.744	0.01
857.032	0
857.32	0.01
857.607	0.01
857.895	0.02
858.183	0.02
858.47	0.04
858.757	0.01
859.045	0.01
859.332	0.02
859.619	0.02
859.907	0.01
860.194	0.02
860.481	0.01
860.768	0.04
861.054	0.03
861.341	0.02
861.628	0.02
861.915	0.01
862.201	0.02
862.488	0.01
862.774	0.01
863.061	-0.02
863.347	0.02
863.633	0.01
863.919	-0
864.205	0
864.491	0.02
864.777	0.02
865.063	0.02
865.349	0.01
865.635	0.02
865.92	0.02
866.206	0.02
866.492	0.04
866.777	0.02
867.062	0.03
867.348	0.04
867.633	0.03
867.918	0
868.203	0.02
868.488	0.02
868.773	0.02
869.058	0.03
869.343	0
869.628	-0.04
869.912	-0.01
870.197	0.01
870.482	-0.01
870.766	-0.04
871.05	-0.03
871.335	0.01
871.619	-0.01
871.903	-0
872.187	-0.02
872.471	0
872.755	0.04
873.039	0.03
873.323	0.02
873.607	-0.03
873.89	-0.03
874.174	-0.03
874.458	-0.06
874.741	-0.03
875.024	0.04
875.308	-0.06
875.591	0.02
875.874	0.06
876.157	-0.08
876.44	-0.05
876.723	0.03
877.006	-0.05
877.289	-0.04
877.572	0.03
877.854	-0.06
878.137	-0.04
878.42	-0.1
878.702	0.02
878.984	-0.07
879.267	-0.09
879.549	0.05
879.831	-0.04
880.113	-0.05
880.395	0.01
880.677	-0.03
880.959	-0.03
