Data from Rubpy_EV_1200_EDTA_Buffered_Absorbance_14-29-41-627.txt Node
Date: Tue Jun 30 14:29:41 BST 2026
User: fpm-admin
Spectrometer: OFX00224
Trigger mode: 0
Integration Time (sec): 7.000000E-2
Scans to average: 3
Nonlinearity correction enabled: false
Boxcar width: 0
Storing dark spectrum: false
XAxis mode: Wavelengths
Number of Pixels in Spectrum: 2136
>>>>>Begin Spectral Data<<<<<
154.91	-0.24
155.289	0.43
155.669	-0.49
156.048	0.02
156.428	0.32
156.807	0.15
157.186	0.43
157.566	-0
157.945	1.28
158.325	0.28
158.704	-0.05
159.083	0.06
159.462	0.23
159.842	0.12
160.221	-0
160.6	-0
160.979	0.3
161.359	0.24
161.738	0.7
162.117	-0
162.496	-0
162.875	0.56
163.254	-0.08
163.633	-0.3
164.012	0.23
164.391	0.09
164.77	-1.2
165.149	-0.13
165.528	-0
165.907	-0
166.286	-0
166.665	-0.51
167.044	-0.35
167.423	-0
167.802	-0.6
168.181	-0
168.559	-0
168.938	0.37
169.317	-0
169.696	-1.04
170.074	-0
170.453	-0.08
170.832	-0.51
171.21	-0.28
171.589	-0
171.968	-0.1
172.346	-0
172.725	-0.44
173.103	-0
173.482	1.23
173.861	-0
174.239	0.8
174.617	0.36
174.996	-1
175.374	-0.17
175.753	-0.74
176.131	-0
176.51	-0
176.888	-0
177.266	-0
177.645	0.01
178.023	0.38
178.401	-0.3
178.779	0.32
179.158	-0
179.536	-0.02
179.914	-0.1
180.292	-0
180.67	0.24
181.048	-0
181.427	0.06
181.805	-0
182.183	-0.28
182.561	-0
182.939	-0
183.317	0.78
183.695	0.31
184.073	-0.94
184.451	-0.7
184.829	-0.01
185.206	-0.01
185.584	0.43
185.962	-0.47
186.34	0.49
186.718	-0
187.096	-0.33
187.473	-0
187.851	0.9
188.229	-0
188.607	0.08
188.984	0.2
189.362	0.24
189.74	0.1
190.117	0.18
190.495	0.2
190.872	0.25
191.25	0.17
191.627	0.26
192.005	0.29
192.382	0.15
192.76	0.07
193.137	0.28
193.515	0.17
193.892	0.31
194.269	0.28
194.647	0.24
195.024	0.19
195.401	0.1
195.779	0.14
196.156	0.3
196.533	0.12
196.91	0.29
197.288	0.06
197.665	0.31
198.042	0.37
198.419	0.31
198.796	0.11
199.173	0.39
199.55	0.36
199.927	0.15
200.304	0.13
200.681	0.26
201.058	0.22
201.435	0.15
201.812	0.26
202.189	0.27
202.566	0.31
202.943	0.22
203.32	0.27
203.697	0.28
204.073	0.23
204.45	0.3
204.827	0.29
205.204	0.3
205.58	0.22
205.957	0.22
206.334	0.24
206.71	0.07
207.087	0.22
207.464	0.21
207.84	0.29
208.217	0.28
208.593	0.23
208.97	0.26
209.346	0.18
209.723	0.32
210.099	0.27
210.476	0.2
210.852	0.18
211.228	0.41
211.605	0.34
211.981	0.26
212.357	0.24
212.733	0.25
213.11	0.17
213.486	0.06
213.862	0.23
214.238	0.24
214.614	0.27
214.991	0.18
215.367	0.26
215.743	0.53
216.119	0.18
216.495	0.25
216.871	0.22
217.247	0.18
217.623	0.31
217.999	0.28
218.375	0.36
218.751	0.24
219.127	0.26
219.502	0.37
219.878	0.3
220.254	0.25
220.63	0.32
221.006	0.29
221.381	0.26
221.757	0.18
222.133	0.28
222.508	0.17
222.884	0.27
223.26	0.21
223.635	0.22
224.011	0.25
224.386	0.31
224.762	0.27
225.137	0.35
225.513	0.32
225.888	0.31
226.264	0.35
226.639	0.3
227.014	0.24
227.39	0.32
227.765	0.14
228.14	0.24
228.516	0.27
228.891	0.24
229.266	0.36
229.641	0.31
230.017	0.23
230.392	0.2
230.767	0.35
231.142	0.26
231.517	0.37
231.892	0.47
232.267	0.23
232.642	0.38
233.017	0.16
233.392	0.36
233.767	0.3
234.142	0.26
234.517	0.24
234.892	0.35
235.267	0.19
235.641	0.24
236.016	0.23
236.391	0.33
236.766	0.21
237.14	0.35
237.515	0.2
237.89	0.2
238.264	0.22
238.639	0.21
239.014	0.18
239.388	0.19
239.763	0.28
240.137	0.32
240.512	0.31
240.886	0.22
241.261	0.17
241.635	0.23
242.009	0.29
242.384	0.26
242.758	0.26
243.132	0.26
243.507	0.23
243.881	0.17
244.255	0.36
244.629	0.37
245.004	0.23
245.378	0.26
245.752	0.33
246.126	0.43
246.5	0.24
246.874	0.23
247.248	0.26
247.622	0.14
247.996	0.22
248.37	0.22
248.744	0.26
249.118	0.48
249.492	0.48
249.866	0.2
250.24	0.28
250.613	0.25
250.987	0.25
251.361	0.19
251.735	0.24
252.108	0.28
252.482	0.27
252.856	0.17
253.229	0.23
253.603	0.2
253.977	0.25
254.35	0.31
254.724	0.26
255.097	0.26
255.471	0.32
255.844	0.34
256.218	0.15
256.591	0.22
256.964	0.26
257.338	0.23
257.711	0.21
258.084	0.2
258.458	0.19
258.831	0.21
259.204	0.25
259.577	0.21
259.95	0.2
260.323	0.25
260.697	0.41
261.07	0.25
261.443	0.22
261.816	0.25
262.189	0.38
262.562	0.28
262.935	0.18
263.308	0.26
263.68	0.23
264.053	0.3
264.426	0.36
264.799	0.31
265.172	0.33
265.545	0.31
265.917	0.28
266.29	0.22
266.663	0.25
267.035	0.33
267.408	0.3
267.781	0.25
268.153	0.34
268.526	0.28
268.898	0.25
269.271	0.31
269.643	0.33
270.016	0.21
270.388	0.3
270.76	0.37
271.133	0.38
271.505	0.26
271.877	0.34
272.25	0.3
272.622	0.29
272.994	0.33
273.366	0.27
273.739	0.18
274.111	0.21
274.483	0.32
274.855	0.22
275.227	0.22
275.599	0.35
275.971	0.39
276.343	0.29
276.715	0.35
277.087	0.27
277.459	0.26
277.831	0.22
278.203	0.36
278.574	0.25
278.946	0.42
279.318	0.27
279.69	0.35
280.061	0.36
280.433	0.3
280.805	0.25
281.176	0.26
281.548	0.23
281.92	0.24
282.291	0.3
282.663	0.3
283.034	0.26
283.406	0.29
283.777	0.33
284.148	0.36
284.52	0.34
284.891	0.29
285.262	0.33
285.634	0.36
286.005	0.33
286.376	0.26
286.747	0.27
287.119	0.31
287.49	0.28
287.861	0.3
288.232	0.26
288.603	0.37
288.974	0.21
289.345	0.34
289.716	0.25
290.087	0.31
290.458	0.26
290.829	0.6
291.2	0.33
291.571	0.32
291.941	0.27
292.312	0.31
292.683	0.31
293.054	0.27
293.424	0.27
293.795	0.34
294.166	0.26
294.536	0.3
294.907	0.31
295.277	0.24
295.648	0.27
296.018	0.33
296.389	0.36
296.759	0.3
297.13	0.26
297.5	0.19
297.871	0.27
298.241	0.33
298.611	0.33
298.981	0.26
299.352	0.28
299.722	0.24
300.092	0.27
300.462	0.27
300.832	0.25
301.202	0.25
301.573	0.21
301.943	0.25
302.313	0.27
302.683	0.25
303.053	0.24
303.422	0.23
303.792	0.24
304.162	0.23
304.532	0.22
304.902	0.23
305.272	0.26
305.641	0.23
306.011	0.25
306.381	0.24
306.75	0.26
307.12	0.26
307.49	0.26
307.859	0.26
308.229	0.27
308.598	0.27
308.968	0.28
309.337	0.28
309.707	0.29
310.076	0.29
310.445	0.29
310.815	0.3
311.184	0.3
311.553	0.3
311.923	0.3
312.292	0.31
312.661	0.3
313.03	0.31
313.399	0.3
313.768	0.3
314.137	0.31
314.506	0.31
314.875	0.31
315.244	0.31
315.613	0.3
315.982	0.31
316.351	0.31
316.72	0.31
317.089	0.3
317.458	0.3
317.826	0.3
318.195	0.31
318.564	0.29
318.933	0.29
319.301	0.3
319.67	0.29
320.038	0.29
320.407	0.28
320.775	0.28
321.144	0.28
321.512	0.28
321.881	0.27
322.249	0.27
322.618	0.27
322.986	0.28
323.354	0.27
323.723	0.27
324.091	0.26
324.459	0.26
324.827	0.26
325.195	0.26
325.564	0.26
325.932	0.26
326.3	0.26
326.668	0.26
327.036	0.26
327.404	0.25
327.772	0.26
328.14	0.26
328.508	0.25
328.875	0.26
329.243	0.25
329.611	0.25
329.979	0.26
330.346	0.27
330.714	0.27
331.082	0.27
331.449	0.27
331.817	0.27
332.185	0.27
332.552	0.27
332.92	0.28
333.287	0.28
333.655	0.28
334.022	0.28
334.389	0.29
334.757	0.29
335.124	0.29
335.491	0.31
335.859	0.3
336.226	0.3
336.593	0.3
336.96	0.31
337.327	0.32
337.695	0.32
338.062	0.32
338.429	0.33
338.796	0.33
339.163	0.33
339.53	0.34
339.897	0.35
340.263	0.35
340.63	0.36
340.997	0.37
341.364	0.38
341.731	0.38
342.097	0.38
342.464	0.39
342.831	0.4
343.197	0.4
343.564	0.41
343.931	0.42
344.297	0.42
344.664	0.43
345.03	0.43
345.396	0.44
345.763	0.45
346.129	0.45
346.496	0.46
346.862	0.46
347.228	0.47
347.594	0.48
347.961	0.48
348.327	0.49
348.693	0.5
349.059	0.51
349.425	0.51
349.791	0.52
350.157	0.53
350.523	0.55
350.889	0.55
351.255	0.56
351.621	0.57
351.987	0.58
352.353	0.6
352.719	0.61
353.084	0.62
353.45	0.63
353.816	0.64
354.181	0.65
354.547	0.66
354.913	0.67
355.278	0.69
355.644	0.7
356.009	0.72
356.375	0.73
356.74	0.75
357.106	0.77
357.471	0.77
357.836	0.79
358.202	0.81
358.567	0.82
358.932	0.84
359.297	0.86
359.663	0.86
360.028	0.88
360.393	0.89
360.758	0.89
361.123	0.91
361.488	0.92
361.853	0.92
362.218	0.93
362.583	0.94
362.948	0.96
363.312	0.96
363.677	0.97
364.042	1
364.407	1.01
364.772	1.03
365.136	1.04
365.501	1.06
365.865	1.08
366.23	1.1
366.595	1.13
366.959	1.13
367.324	1.17
367.688	1.18
368.052	1.19
368.417	1.21
368.781	1.23
369.145	1.23
369.51	1.23
369.874	1.25
370.238	1.24
370.602	1.25
370.967	1.24
371.331	1.22
371.695	1.23
372.059	1.21
372.423	1.22
372.787	1.21
373.151	1.19
373.515	1.2
373.878	1.2
374.242	1.2
374.606	1.2
374.97	1.19
375.334	1.2
375.697	1.2
376.061	1.22
376.425	1.2
376.788	1.21
377.152	1.22
377.515	1.24
377.879	1.25
378.242	1.27
378.606	1.26
378.969	1.27
379.333	1.3
379.696	1.29
380.059	1.32
380.422	1.33
380.786	1.35
381.149	1.37
381.512	1.41
381.875	1.42
382.238	1.44
382.601	1.5
382.964	1.52
383.327	1.58
383.69	1.59
384.053	1.61
384.416	1.62
384.779	1.66
385.142	1.71
385.504	1.73
385.867	1.74
386.23	1.75
386.593	1.78
386.955	1.79
387.318	1.76
387.68	1.77
388.043	1.74
388.405	1.75
388.768	1.74
389.13	1.72
389.493	1.69
389.855	1.69
390.217	1.71
390.58	1.7
390.942	1.72
391.304	1.71
391.666	1.72
392.028	1.79
392.391	1.77
392.753	1.81
393.115	1.85
393.477	1.86
393.839	1.94
394.201	1.93
394.563	1.99
394.924	2.06
395.286	2.1
395.648	2.04
396.01	2.12
396.371	2.13
396.733	2.11
397.095	2.11
397.456	2.11
397.818	2.08
398.18	2.07
398.541	2.09
398.903	2.09
399.264	2.04
399.625	2.06
399.987	2.03
400.348	1.99
400.709	1.99
401.071	1.88
401.432	1.82
401.793	1.7
402.154	1.61
402.515	1.52
402.876	1.46
403.238	1.35
403.599	1.28
403.96	1.2
404.32	1.11
404.681	1.03
405.042	0.97
405.403	0.9
405.764	0.84
406.125	0.79
406.485	0.74
406.846	0.69
407.207	0.65
407.567	0.61
407.928	0.58
408.288	0.54
408.649	0.52
409.009	0.49
409.37	0.46
409.73	0.44
410.091	0.42
410.451	0.4
410.811	0.38
411.171	0.37
411.532	0.35
411.892	0.34
412.252	0.32
412.612	0.31
412.972	0.3
413.332	0.29
413.692	0.28
414.052	0.27
414.412	0.26
414.772	0.25
415.132	0.24
415.492	0.24
415.851	0.23
416.211	0.22
416.571	0.22
416.931	0.21
417.29	0.21
417.65	0.2
418.009	0.19
418.369	0.19
418.728	0.19
419.088	0.18
419.447	0.2
419.807	0.18
420.166	0.18
420.525	0.18
420.884	0.16
421.244	0.16
421.603	0.16
421.962	0.16
422.321	0.16
422.68	0.15
423.039	0.16
423.398	0.15
423.757	0.15
424.116	0.14
424.475	0.14
424.834	0.14
425.193	0.14
425.551	0.14
425.91	0.15
426.269	0.14
426.628	0.14
426.986	0.14
427.345	0.14
427.703	0.13
428.062	0.14
428.42	0.12
428.779	0.13
429.137	0.12
429.496	0.13
429.854	0.13
430.212	0.12
430.57	0.12
430.929	0.12
431.287	0.12
431.645	0.11
432.003	0.11
432.361	0.11
432.719	0.11
433.077	0.11
433.435	0.11
433.793	0.12
434.151	0.1
434.509	0.11
434.866	0.11
435.224	0.11
435.582	0.1
435.94	0.1
436.297	0.1
436.655	0.11
437.012	0.11
437.37	0.11
437.727	0.1
438.085	0.1
438.442	0.1
438.8	0.1
439.157	0.1
439.514	0.11
439.872	0.1
440.229	0.11
440.586	0.09
440.943	0.09
441.3	0.09
441.657	0.1
442.014	0.09
442.371	0.09
442.728	0.09
443.085	0.09
443.442	0.09
443.799	0.08
444.156	0.09
444.513	0.08
444.869	0.09
445.226	0.09
445.583	0.09
445.939	0.08
446.296	0.08
446.652	0.08
447.009	0.08
447.365	0.09
447.722	0.09
448.078	0.08
448.434	0.07
448.791	0.07
449.147	0.08
449.503	0.08
449.859	0.07
450.215	0.07
450.571	0.07
450.928	0.08
451.284	0.08
451.64	0.07
451.995	0.07
452.351	0.07
452.707	0.06
453.063	0.07
453.419	0.07
453.775	0.07
454.13	0.07
454.486	0.06
454.842	0.06
455.197	0.05
455.553	0.06
455.908	0.06
456.264	0.06
456.619	0.05
456.975	0.06
457.33	0.05
457.685	0.05
458.04	0.04
458.396	0.04
458.751	0.05
459.106	0.05
459.461	0.04
459.816	0.04
460.171	0.04
460.526	0.04
460.881	0.04
461.236	0.04
461.591	0.03
461.946	0.03
462.301	0.02
462.655	0.03
463.01	0.02
463.365	0.03
463.719	0.02
464.074	0.01
464.428	0.02
464.783	0.01
465.137	0.01
465.492	0.01
465.846	0.02
466.201	0.01
466.555	0.02
466.909	0.01
467.263	0.02
467.618	0.01
467.972	0.02
468.326	0.01
468.68	0.01
469.034	0.01
469.388	0.01
469.742	0.01
470.096	0.01
470.45	0.01
470.804	0.01
471.157	0.01
471.511	0.02
471.865	0.02
472.218	0.02
472.572	0.03
472.926	0.02
473.279	0.02
473.633	0.03
473.986	0.03
474.34	0.04
474.693	0.04
475.046	0.05
475.4	0.05
475.753	0.06
476.106	0.06
476.459	0.06
476.812	0.07
477.165	0.07
477.519	0.07
477.872	0.07
478.224	0.08
478.577	0.08
478.93	0.09
479.283	0.08
479.636	0.09
479.989	0.09
480.341	0.09
480.694	0.1
481.047	0.1
481.399	0.1
481.752	0.11
482.104	0.11
482.457	0.11
482.809	0.11
483.162	0.11
483.514	0.12
483.866	0.12
484.219	0.12
484.571	0.12
484.923	0.13
485.275	0.13
485.627	0.13
485.979	0.13
486.331	0.13
486.683	0.13
487.035	0.14
487.387	0.14
487.739	0.14
488.091	0.14
488.443	0.15
488.794	0.15
489.146	0.15
489.498	0.16
489.849	0.16
490.201	0.15
490.552	0.15
490.904	0.16
491.255	0.16
491.607	0.17
491.958	0.17
492.309	0.17
492.661	0.17
493.012	0.17
493.363	0.18
493.714	0.18
494.065	0.18
494.416	0.18
494.767	0.18
495.118	0.18
495.469	0.19
495.82	0.19
496.171	0.19
496.522	0.19
496.872	0.19
497.223	0.21
497.574	0.2
497.924	0.2
498.275	0.2
498.626	0.2
498.976	0.21
499.327	0.21
499.677	0.21
500.027	0.22
500.378	0.22
500.728	0.22
501.078	0.23
501.428	0.23
501.779	0.23
502.129	0.23
502.479	0.24
502.829	0.24
503.179	0.24
503.529	0.24
503.879	0.24
504.229	0.25
504.578	0.26
504.928	0.25
505.278	0.26
505.628	0.25
505.977	0.26
506.327	0.26
506.676	0.26
507.026	0.26
507.375	0.26
507.725	0.27
508.074	0.27
508.424	0.27
508.773	0.28
509.122	0.28
509.471	0.28
509.82	0.28
510.17	0.29
510.519	0.29
510.868	0.29
511.217	0.3
511.566	0.3
511.915	0.3
512.263	0.3
512.612	0.31
512.961	0.31
513.31	0.31
513.659	0.31
514.007	0.32
514.356	0.32
514.704	0.32
515.053	0.32
515.401	0.33
515.75	0.33
516.098	0.33
516.447	0.33
516.795	0.34
517.143	0.34
517.491	0.34
517.839	0.34
518.188	0.35
518.536	0.35
518.884	0.35
519.232	0.35
519.58	0.36
519.928	0.36
520.275	0.36
520.623	0.36
520.971	0.36
521.319	0.37
521.666	0.38
522.014	0.38
522.362	0.38
522.709	0.38
523.057	0.38
523.404	0.38
523.752	0.38
524.099	0.39
524.446	0.39
524.794	0.39
525.141	0.4
525.488	0.4
525.835	0.4
526.182	0.4
526.529	0.41
526.876	0.41
527.223	0.42
527.57	0.41
527.917	0.42
528.264	0.42
528.611	0.43
528.958	0.43
529.304	0.43
529.651	0.44
529.998	0.44
530.344	0.44
530.691	0.45
531.037	0.45
531.384	0.45
531.73	0.45
532.076	0.45
532.423	0.46
532.769	0.46
533.115	0.46
533.461	0.47
533.807	0.47
534.154	0.47
534.5	0.48
534.846	0.48
535.192	0.49
535.537	0.49
535.883	0.49
536.229	0.49
536.575	0.5
536.921	0.5
537.266	0.5
537.612	0.5
537.957	0.51
538.303	0.51
538.649	0.51
538.994	0.52
539.339	0.52
539.685	0.53
540.03	0.53
540.375	0.54
540.721	0.54
541.066	0.54
541.411	0.54
541.756	0.55
542.101	0.55
542.446	0.55
542.791	0.56
543.136	0.56
543.481	0.57
543.825	0.57
544.17	0.57
544.515	0.58
544.86	0.58
545.204	0.59
545.549	0.59
545.893	0.59
546.238	0.59
546.582	0.6
546.927	0.6
547.271	0.61
547.615	0.61
547.96	0.62
548.304	0.62
548.648	0.62
548.992	0.62
549.336	0.63
549.68	0.63
550.024	0.63
550.368	0.64
550.712	0.64
551.056	0.64
551.4	0.65
551.743	0.65
552.087	0.65
552.431	0.65
552.774	0.66
553.118	0.67
553.462	0.66
553.805	0.66
554.148	0.67
554.492	0.67
554.835	0.67
555.178	0.67
555.522	0.67
555.865	0.68
556.208	0.68
556.551	0.68
556.894	0.68
557.237	0.69
557.58	0.69
557.923	0.7
558.266	0.69
558.609	0.69
558.952	0.7
559.294	0.7
559.637	0.7
559.98	0.7
560.322	0.7
560.665	0.71
561.007	0.71
561.35	0.71
561.692	0.72
562.034	0.72
562.377	0.72
562.719	0.71
563.061	0.72
563.403	0.73
563.745	0.71
564.088	0.72
564.43	0.72
564.772	0.73
565.113	0.72
565.455	0.73
565.797	0.73
566.139	0.73
566.481	0.73
566.822	0.73
567.164	0.73
567.506	0.73
567.847	0.74
568.189	0.74
568.53	0.74
568.872	0.73
569.213	0.74
569.554	0.74
569.895	0.74
570.237	0.74
570.578	0.74
570.919	0.74
571.26	0.74
571.601	0.75
571.942	0.74
572.283	0.74
572.624	0.74
572.965	0.74
573.306	0.74
573.646	0.74
573.987	0.75
574.328	0.74
574.668	0.75
575.009	0.75
575.349	0.75
575.69	0.74
576.03	0.75
576.37	0.75
576.711	0.74
577.051	0.74
577.391	0.74
577.731	0.75
578.072	0.75
578.412	0.76
578.752	0.75
579.092	0.75
579.431	0.74
579.771	0.73
580.111	0.72
580.451	0.72
580.791	0.75
581.13	0.76
581.47	0.76
581.81	0.76
582.149	0.76
582.489	0.76
582.828	0.76
583.167	0.73
583.507	0.7
583.846	0.68
584.185	0.71
584.525	0.74
584.864	0.76
585.203	0.77
585.542	0.78
585.881	0.78
586.22	0.79
586.559	0.78
586.898	0.78
587.236	0.77
587.575	0.76
587.914	0.77
588.252	0.79
588.591	0.79
588.93	0.8
589.268	0.8
589.607	0.8
589.945	0.8
590.283	0.8
590.622	0.81
590.96	0.82
591.298	0.83
591.636	0.83
591.974	0.83
592.313	0.83
592.651	0.84
592.989	0.84
593.326	0.84
593.664	0.85
594.002	0.86
594.34	0.85
594.678	0.85
595.015	0.85
595.353	0.84
595.691	0.86
596.028	0.87
596.366	0.87
596.703	0.88
597.04	0.88
597.378	0.88
597.715	0.88
598.052	0.89
598.389	0.89
598.726	0.9
599.064	0.9
599.401	0.9
599.738	0.9
600.074	0.9
600.411	0.9
600.748	0.9
601.085	0.9
601.422	0.9
601.758	0.9
602.095	0.9
602.432	0.91
602.768	0.9
603.105	0.91
603.441	0.91
603.777	0.91
604.114	0.91
604.45	0.91
604.786	0.91
605.122	0.91
605.459	0.91
605.795	0.91
606.131	0.91
606.467	0.91
606.803	0.91
607.139	0.91
607.474	0.91
607.81	0.9
608.146	0.9
608.482	0.9
608.817	0.9
609.153	0.89
609.488	0.89
609.824	0.89
610.159	0.89
610.495	0.89
610.83	0.89
611.165	0.89
611.5	0.88
611.836	0.88
612.171	0.88
612.506	0.88
612.841	0.88
613.176	0.87
613.511	0.87
613.845	0.87
614.18	0.86
614.515	0.86
614.85	0.86
615.184	0.86
615.519	0.86
615.854	0.85
616.188	0.85
616.523	0.85
616.857	0.84
617.191	0.84
617.526	0.84
617.86	0.84
618.194	0.83
618.528	0.83
618.862	0.83
619.196	0.83
619.53	0.84
619.864	0.83
620.198	0.83
620.532	0.82
620.866	0.82
621.2	0.82
621.533	0.82
621.867	0.82
622.201	0.81
622.534	0.81
622.868	0.8
623.201	0.8
623.534	0.8
623.868	0.79
624.201	0.8
624.534	0.79
624.868	0.79
625.201	0.78
625.534	0.78
625.867	0.78
626.2	0.77
626.533	0.77
626.865	0.77
627.198	0.77
627.531	0.76
627.864	0.76
628.196	0.75
628.529	0.75
628.862	0.75
629.194	0.74
629.527	0.74
629.859	0.74
630.191	0.73
630.524	0.73
630.856	0.73
631.188	0.72
631.52	0.72
631.852	0.7
632.184	0.7
632.516	0.7
632.848	0.69
633.18	0.69
633.512	0.69
633.844	0.68
634.175	0.68
634.507	0.67
634.839	0.66
635.17	0.66
635.502	0.65
635.833	0.65
636.165	0.64
636.496	0.64
636.827	0.63
637.159	0.63
637.49	0.62
637.821	0.61
638.152	0.61
638.483	0.61
638.814	0.6
639.145	0.6
639.476	0.59
639.807	0.59
640.137	0.59
640.468	0.58
640.799	0.58
641.129	0.57
641.46	0.57
641.791	0.56
642.121	0.56
642.451	0.56
642.782	0.55
643.112	0.55
643.442	0.54
643.773	0.54
644.103	0.54
644.433	0.53
644.763	0.53
645.093	0.53
645.423	0.53
645.753	0.53
646.082	0.52
646.412	0.52
646.742	0.52
647.072	0.51
647.401	0.52
647.731	0.51
648.06	0.51
648.39	0.51
648.719	0.51
649.048	0.5
649.378	0.51
649.707	0.5
650.036	0.49
650.365	0.5
650.694	0.49
651.023	0.48
651.352	0.48
651.681	0.48
652.01	0.48
652.339	0.49
652.668	0.49
652.996	0.49
653.325	0.49
653.654	0.49
653.982	0.49
654.311	0.49
654.639	0.48
654.967	0.48
655.296	0.48
655.624	0.48
655.952	0.48
656.28	0.48
656.609	0.48
656.937	0.48
657.265	0.48
657.593	0.39
657.92	0.26
658.248	0.21
658.576	0.22
658.904	0.32
659.231	0.41
659.559	0.46
659.887	0.47
660.214	0.47
660.542	0.47
660.869	0.47
661.196	0.47
661.524	0.47
661.851	0.47
662.178	0.47
662.505	0.47
662.832	0.47
663.159	0.47
663.486	0.47
663.813	0.47
664.14	0.47
664.467	0.47
664.794	0.47
665.12	0.47
665.447	0.46
665.774	0.46
666.1	0.46
666.427	0.46
666.753	0.45
667.079	0.45
667.406	0.45
667.732	0.44
668.058	0.45
668.384	0.45
668.71	0.45
669.036	0.44
669.362	0.44
669.688	0.44
670.014	0.44
670.34	0.44
670.666	0.44
670.991	0.43
671.317	0.43
671.643	0.43
671.968	0.43
672.294	0.43
672.619	0.43
672.945	0.42
673.27	0.42
673.595	0.42
673.92	0.41
674.246	0.41
674.571	0.41
674.896	0.41
675.221	0.4
675.546	0.4
675.87	0.4
676.195	0.39
676.52	0.39
676.845	0.39
677.169	0.39
677.494	0.38
677.819	0.38
678.143	0.38
678.468	0.37
678.792	0.37
679.116	0.37
679.44	0.37
679.765	0.37
680.089	0.36
680.413	0.36
680.737	0.35
681.061	0.35
681.385	0.35
681.709	0.35
682.033	0.35
682.356	0.34
682.68	0.34
683.004	0.33
683.327	0.33
683.651	0.32
683.974	0.32
684.298	0.32
684.621	0.31
684.944	0.31
685.268	0.31
685.591	0.3
685.914	0.3
686.237	0.3
686.56	0.29
686.883	0.29
687.206	0.28
687.529	0.28
687.852	0.28
688.175	0.28
688.497	0.28
688.82	0.28
689.142	0.27
689.465	0.27
689.787	0.27
690.11	0.27
690.432	0.26
690.755	0.26
691.077	0.25
691.399	0.25
691.721	0.25
692.043	0.24
692.365	0.24
692.687	0.24
693.009	0.24
693.331	0.23
693.653	0.23
693.974	0.23
694.296	0.23
694.618	0.22
694.939	0.22
695.261	0.22
695.582	0.21
695.904	0.21
696.225	0.21
696.546	0.21
696.868	0.21
697.189	0.21
697.51	0.2
697.831	0.2
698.152	0.2
698.473	0.2
698.794	0.19
699.114	0.19
699.435	0.18
699.756	0.18
700.077	0.18
700.397	0.18
700.718	0.18
701.038	0.18
701.359	0.18
701.679	0.18
701.999	0.18
702.32	0.17
702.64	0.17
702.96	0.17
703.28	0.17
703.6	0.17
703.92	0.17
704.24	0.17
704.56	0.16
704.879	0.16
705.199	0.16
705.519	0.17
705.838	0.17
706.158	0.17
706.478	0.16
706.797	0.16
707.116	0.16
707.436	0.16
707.755	0.16
708.074	0.16
708.393	0.15
708.712	0.15
709.031	0.14
709.35	0.14
709.669	0.14
709.988	0.14
710.307	0.14
710.626	0.15
710.944	0.15
711.263	0.15
711.582	0.15
711.9	0.15
712.219	0.15
712.537	0.15
712.855	0.15
713.174	0.15
713.492	0.15
713.81	0.15
714.128	0.15
714.446	0.15
714.764	0.15
715.082	0.14
715.4	0.15
715.718	0.15
716.035	0.15
716.353	0.15
716.671	0.15
716.988	0.15
717.306	0.15
717.623	0.15
717.941	0.15
718.258	0.15
718.575	0.15
718.893	0.15
719.21	0.15
719.527	0.15
719.844	0.15
720.161	0.15
720.478	0.15
720.795	0.15
721.112	0.15
721.428	0.16
721.745	0.16
722.062	0.16
722.378	0.16
722.695	0.16
723.011	0.16
723.328	0.15
723.644	0.16
723.96	0.16
724.276	0.16
724.593	0.16
724.909	0.16
725.225	0.16
725.541	0.16
725.857	0.16
726.173	0.16
726.488	0.16
726.804	0.16
727.12	0.16
727.435	0.16
727.751	0.16
728.067	0.16
728.382	0.17
728.697	0.16
729.013	0.17
729.328	0.16
729.643	0.17
729.958	0.17
730.273	0.17
730.588	0.16
730.903	0.17
731.218	0.17
731.533	0.17
731.848	0.17
732.163	0.17
732.477	0.17
732.792	0.17
733.107	0.16
733.421	0.17
733.736	0.17
734.05	0.17
734.364	0.17
734.678	0.17
734.993	0.17
735.307	0.17
735.621	0.17
735.935	0.17
736.249	0.17
736.563	0.17
736.877	0.17
737.19	0.17
737.504	0.17
737.818	0.16
738.131	0.17
738.445	0.17
738.758	0.17
739.072	0.17
739.385	0.17
739.698	0.17
740.012	0.16
740.325	0.16
740.638	0.16
740.951	0.16
741.264	0.15
741.577	0.16
741.89	0.16
742.203	0.16
742.515	0.16
742.828	0.16
743.141	0.15
743.453	0.15
743.766	0.15
744.078	0.15
744.391	0.15
744.703	0.15
745.015	0.14
745.327	0.14
745.639	0.14
745.952	0.14
746.264	0.14
746.575	0.14
746.887	0.14
747.199	0.14
747.511	0.13
747.823	0.13
748.134	0.13
748.446	0.13
748.757	0.13
749.069	0.13
749.38	0.13
749.692	0.12
750.003	0.12
750.314	0.12
750.625	0.12
750.936	0.12
751.248	0.11
751.559	0.11
751.869	0.11
752.18	0.11
752.491	0.11
752.802	0.11
753.112	0.11
753.423	0.1
753.734	0.1
754.044	0.1
754.355	0.1
754.665	0.1
754.975	0.09
755.285	0.09
755.596	0.09
755.906	0.09
756.216	0.09
756.526	0.09
756.836	0.09
757.146	0.09
757.455	0.09
757.765	0.08
758.075	0.08
758.385	0.08
758.694	0.08
759.004	0.08
759.313	0.07
759.622	0.07
759.932	0.07
760.241	0.08
760.55	0.07
760.859	0.07
761.168	0.07
761.477	0.07
761.786	0.07
762.095	0.07
762.404	0.07
762.713	0.07
763.021	0.07
763.33	0.07
763.639	0.06
763.947	0.07
764.256	0.06
764.564	0.06
764.872	0.07
765.181	0.07
765.489	0.07
765.797	0.07
766.105	0.06
766.413	0.06
766.721	0.06
767.029	0.06
767.337	0.06
767.644	0.06
767.952	0.06
768.26	0.06
768.567	0.06
768.875	0.06
769.182	0.06
769.49	0.05
769.797	0.05
770.104	0.05
770.411	0.06
770.718	0.06
771.026	0.06
771.333	0.06
771.639	0.06
771.946	0.06
772.253	0.06
772.56	0.05
772.867	0.05
773.173	0.05
773.48	0.05
773.786	0.05
774.093	0.05
774.399	0.05
774.705	0.05
775.012	0.05
775.318	0.05
775.624	0.05
775.93	0.05
776.236	0.05
776.542	0.05
776.848	0.05
777.154	0.05
777.459	0.05
777.765	0.05
778.071	0.05
778.376	0.05
778.682	0.04
778.987	0.04
779.292	0.04
779.598	0.04
779.903	0.04
780.208	0.04
780.513	0.04
780.818	0.04
781.123	0.04
781.428	0.04
781.733	0.04
782.038	0.04
782.343	0.04
782.647	0.04
782.952	0.04
783.256	0.04
783.561	0.04
783.865	0.05
784.17	0.04
784.474	0.04
784.778	0.04
785.082	0.04
785.386	0.04
785.69	0.04
785.994	0.04
786.298	0.04
786.602	0.04
786.906	0.04
787.209	0.04
787.513	0.04
787.817	0.04
788.12	0.05
788.424	0.04
788.727	0.04
789.03	0.05
789.333	0.05
789.637	0.05
789.94	0.04
790.243	0.05
790.546	0.05
790.849	0.05
791.152	0.05
791.454	0.05
791.757	0.05
792.06	0.05
792.362	0.04
792.665	0.04
792.967	0.04
793.27	0.04
793.572	0.04
793.874	0.04
794.177	0.04
794.479	0.04
794.781	0.05
795.083	0.04
795.385	0.04
795.687	0.04
795.989	0.04
796.29	0.04
796.592	0.04
796.894	0.04
797.195	0.04
797.497	0.04
797.798	0.04
798.1	0.04
798.401	0.04
798.702	0.04
799.003	0.04
799.304	0.04
799.605	0.04
799.906	0.05
800.207	0.05
800.508	0.04
800.809	0.04
801.11	0.05
801.41	0.05
801.711	0.05
802.011	0.05
802.312	0.05
802.612	0.05
802.913	0.06
803.213	0.05
803.513	0.04
803.813	0.05
804.113	0.04
804.413	0.04
804.713	0.04
805.013	0.04
805.313	0.04
805.613	0.04
805.912	0.03
806.212	0.04
806.511	0.03
806.811	0.03
807.11	0.03
807.41	0.03
807.709	0.03
808.008	0.03
808.307	0.03
808.606	0.03
808.905	0.04
809.204	0.04
809.503	0.04
809.802	0.04
810.101	0.04
810.399	0.04
810.698	0.04
810.997	0.04
811.295	0.04
811.593	0.03
811.892	0.04
812.19	0.04
812.488	0.05
812.786	0.04
813.084	0.04
813.383	0.05
813.68	0.04
813.978	0.04
814.276	0.04
814.574	0.04
814.872	0.05
815.169	0.05
815.467	0.04
815.764	0.05
816.062	0.04
816.359	0.04
816.656	0.04
816.954	0.04
817.251	0.04
817.548	0.04
817.845	0.04
818.142	0.04
818.439	0.04
818.735	0.04
819.032	0.04
819.329	0.04
819.626	0.04
819.922	0.04
820.219	0.04
820.515	0.03
820.811	0.04
821.108	0.04
821.404	0.05
821.7	0.05
821.996	0.04
822.292	0.05
822.588	0.04
822.884	0.04
823.18	0.05
823.475	0.05
823.771	0.05
824.067	0.04
824.362	0.04
824.658	0.05
824.953	0.05
825.249	0.05
825.544	0.05
825.839	0.05
826.134	0.04
826.429	0.04
826.724	0.04
827.019	0.05
827.314	0.05
827.609	0.04
827.904	0.05
828.198	0.04
828.493	0.04
828.787	0.04
829.082	0.04
829.376	0.05
829.671	0.04
829.965	0.04
830.259	0.04
830.553	0.05
830.847	0.04
831.141	0.05
831.435	0.05
831.729	0.04
832.023	0.04
832.317	0.05
832.61	0.05
832.904	0.05
833.197	0.05
833.491	0.05
833.784	0.06
834.077	0.05
834.371	0.05
834.664	0.06
834.957	0.05
835.25	0.05
835.543	0.05
835.836	0.05
836.129	0.05
836.421	0.05
836.714	0.06
837.007	0.04
837.299	0.05
837.592	0.05
837.884	0.04
838.177	0.05
838.469	0.05
838.761	0.05
839.053	0.05
839.345	0.05
839.637	0.04
839.929	0.03
840.221	0.04
840.513	0.03
840.805	0.04
841.096	0.05
841.388	0.05
841.68	0.04
841.971	0.04
842.262	0.03
842.554	0.05
842.845	0.04
843.136	0.04
843.427	0.04
843.718	0.04
844.009	0.04
844.3	0.04
844.591	0.04
844.882	0.04
845.173	0.04
845.463	0.04
845.754	0.05
846.044	0.04
846.335	0.04
846.625	0.05
846.915	0.05
847.206	0.04
847.496	0.04
847.786	0.05
848.076	0.05
848.366	0.05
848.656	0.05
848.945	0.04
849.235	0.05
849.525	0.05
849.814	0.04
850.104	0.05
850.393	0.05
850.683	0.05
850.972	0.05
851.261	0.05
851.551	0.04
851.84	0.05
852.129	0.04
852.418	0.04
852.707	0.04
852.995	0.03
853.284	0.05
853.573	0.03
853.862	0.03
854.15	0.04
854.439	0.05
854.727	0.05
855.015	0.03
855.304	0.03
855.592	0.03
855.88	0.05
856.168	0.05
856.456	0.04
856.744	0.04
857.032	0.03
857.32	0.04
857.607	0.05
857.895	0.04
858.183	0.04
858.47	0.06
858.757	0.05
859.045	0.05
859.332	0.06
859.619	0.04
859.907	0.03
860.194	0.07
860.481	0.05
860.768	0.05
861.054	0.04
861.341	0.03
861.628	0.06
861.915	0.04
862.201	0.06
862.488	0.05
862.774	0.03
863.061	0.03
863.347	0.05
863.633	0.06
863.919	0.05
864.205	0.04
864.491	0.03
864.777	0.04
865.063	0.03
865.349	0.05
865.635	0.02
865.92	0.07
866.206	0.05
866.492	0.06
866.777	0.06
867.062	0.05
867.348	0.07
867.633	0.03
867.918	0.03
868.203	0.06
868.488	0.07
868.773	0.06
869.058	0.05
869.343	0.05
869.628	0.01
869.912	-0.01
870.197	0.04
870.482	0.02
870.766	0.01
871.05	0.02
871.335	0.03
871.619	0.05
871.903	0.01
872.187	-0.01
872.471	0.04
872.755	0.05
873.039	0.03
873.323	0.03
873.607	0.01
873.89	0.01
874.174	-0.02
874.458	0.01
874.741	0.01
875.024	0
875.308	-0.02
875.591	0.03
875.874	0.05
876.157	-0
876.44	0
876.723	0.05
877.006	0.02
877.289	0.03
877.572	0.1
877.854	-0.06
878.137	0.02
878.42	0.01
878.702	0.04
878.984	-0.02
879.267	-0.05
879.549	0.09
879.831	-0.06
880.113	0.07
880.395	0.04
880.677	-0.01
880.959	-0.01
