Data from Rubpy_EV_1200_EDTA_Buffered_Absorbance_14-18-00-795.txt Node
Date: Tue Jun 30 14:18:00 BST 2026
User: fpm-admin
Spectrometer: OFX00224
Trigger mode: 0
Integration Time (sec): 7.000000E-2
Scans to average: 3
Nonlinearity correction enabled: false
Boxcar width: 0
Storing dark spectrum: false
XAxis mode: Wavelengths
Number of Pixels in Spectrum: 2136
>>>>>Begin Spectral Data<<<<<
154.91	0.18
155.289	0.01
155.669	-0.17
156.048	-0
156.428	-0
156.807	1.08
157.186	0.05
157.566	-0.08
157.945	1.28
158.325	-0.34
158.704	-0.25
159.083	-0
159.462	0.14
159.842	-0.33
160.221	0.58
160.6	-0
160.979	-0.14
161.359	-0.12
161.738	0.1
162.117	-0
162.496	-0
162.875	-0.36
163.254	0.08
163.633	-0
164.012	0.17
164.391	-0.1
164.77	-0.95
165.149	-0.21
165.528	-0
165.907	-0.43
166.286	-0
166.665	-0.25
167.044	-0.35
167.423	0.38
167.802	-0
168.181	-0
168.559	-0
168.938	-0
169.317	-0.44
169.696	-1.58
170.074	-0.48
170.453	-0.34
170.832	-0.75
171.21	-0.24
171.589	-0
171.968	0.3
172.346	0.42
172.725	-0.94
173.103	-0
173.482	-0
173.861	-0
174.239	0.04
174.617	-0.23
174.996	-0.24
175.374	-0.37
175.753	-0.94
176.131	-0.11
176.51	-0.55
176.888	-0
177.266	-0
177.645	-0.05
178.023	0.56
178.401	-0.42
178.779	0.16
179.158	-0
179.536	0.04
179.914	-0.45
180.292	-0.68
180.67	-0.04
181.048	0.09
181.427	0.03
181.805	-0.12
182.183	-0.15
182.561	-1.36
182.939	-0
183.317	-0
183.695	0.13
184.073	-0.68
184.451	-0.5
184.829	0.19
185.206	0.13
185.584	0.16
185.962	-0.59
186.34	0.34
186.718	0.93
187.096	-0
187.473	-0
187.851	-0
188.229	-0.15
188.607	0.06
188.984	0.06
189.362	0.18
189.74	0.19
190.117	0.09
190.495	0.1
190.872	0.05
191.25	0.25
191.627	0.2
192.005	0.13
192.382	0.15
192.76	0.02
193.137	0.21
193.515	0.19
193.892	0.17
194.269	0.18
194.647	0.19
195.024	0.2
195.401	0.19
195.779	0.1
196.156	0.1
196.533	0.08
196.91	0.2
197.288	0.21
197.665	0.38
198.042	0.26
198.419	0.26
198.796	0.22
199.173	0.17
199.55	0.19
199.927	0.07
200.304	0.04
200.681	0.24
201.058	0.09
201.435	0.15
201.812	0.15
202.189	0.15
202.566	0.24
202.943	0.21
203.32	0.17
203.697	0.24
204.073	0.2
204.45	0.15
204.827	0.18
205.204	0.15
205.58	0.19
205.957	0.13
206.334	0.13
206.71	0.13
207.087	0.06
207.464	0.17
207.84	0.18
208.217	0.2
208.593	0.14
208.97	0.15
209.346	0.17
209.723	0.25
210.099	0.18
210.476	0.19
210.852	0.28
211.228	0.18
211.605	0.27
211.981	0.1
212.357	0.15
212.733	0.08
213.11	0.21
213.486	0.03
213.862	0.09
214.238	0.23
214.614	0.14
214.991	0.02
215.367	0.27
215.743	0.29
216.119	0.12
216.495	0.18
216.871	0.24
217.247	0.18
217.623	0.13
217.999	0.12
218.375	0.16
218.751	0.11
219.127	0.12
219.502	0.04
219.878	0.16
220.254	0.18
220.63	0.22
221.006	0.17
221.381	0.17
221.757	0.18
222.133	0.2
222.508	0.18
222.884	0.23
223.26	0.14
223.635	0.28
224.011	0.12
224.386	0.23
224.762	0.14
225.137	0.18
225.513	0.17
225.888	0.15
226.264	0.14
226.639	0.18
227.014	0.19
227.39	0.25
227.765	0.22
228.14	0.19
228.516	0.19
228.891	0.19
229.266	0.29
229.641	0.12
230.017	0.25
230.392	0.07
230.767	0.18
231.142	0.2
231.517	0.16
231.892	0.11
232.267	0.18
232.642	0.14
233.017	0.18
233.392	0.22
233.767	0.13
234.142	0.2
234.517	0.08
234.892	0.26
235.267	0.18
235.641	0.19
236.016	0.2
236.391	0.2
236.766	0.15
237.14	0.05
237.515	0.03
237.89	0.17
238.264	0.09
238.639	0.06
239.014	0.25
239.388	0.28
239.763	0.2
240.137	0.09
240.512	0.26
240.886	0.11
241.261	0.1
241.635	0.16
242.009	0.15
242.384	0.17
242.758	0.1
243.132	0.15
243.507	0.14
243.881	0.12
244.255	0.19
244.629	0.35
245.004	0.2
245.378	0.17
245.752	0.19
246.126	0.27
246.5	0.16
246.874	0.25
247.248	0.17
247.622	0.22
247.996	0.19
248.37	0.12
248.744	0.12
249.118	0.26
249.492	0.14
249.866	0.18
250.24	0.26
250.613	0.14
250.987	0.12
251.361	0.2
251.735	0.19
252.108	0.23
252.482	0.26
252.856	0.13
253.229	0.22
253.603	0.15
253.977	0.21
254.35	0.13
254.724	0.25
255.097	0.2
255.471	0.18
255.844	0.29
256.218	0.08
256.591	0.14
256.964	0.18
257.338	0.13
257.711	0.17
258.084	0.19
258.458	0.18
258.831	0.1
259.204	0.27
259.577	0.17
259.95	0.19
260.323	0.24
260.697	0.23
261.07	0.14
261.443	0.22
261.816	0.18
262.189	0.28
262.562	0.11
262.935	0.15
263.308	0.05
263.68	0.15
264.053	0.21
264.426	0.23
264.799	0.27
265.172	0.28
265.545	0.14
265.917	0.21
266.29	0.19
266.663	0.21
267.035	0.19
267.408	0.12
267.781	0.19
268.153	0.25
268.526	0.18
268.898	0.23
269.271	0.2
269.643	0.22
270.016	0.11
270.388	0.2
270.76	0.2
271.133	0.25
271.505	0.2
271.877	0.18
272.25	0.18
272.622	0.24
272.994	0.25
273.366	0.2
273.739	0.27
274.111	0.2
274.483	0.24
274.855	0.13
275.227	0.21
275.599	0.25
275.971	0.15
276.343	0.16
276.715	0.2
277.087	0.21
277.459	0.19
277.831	0.29
278.203	0.23
278.574	0.16
278.946	0.19
279.318	0.2
279.69	0.25
280.061	0.2
280.433	0.17
280.805	0.19
281.176	0.2
281.548	0.16
281.92	0.18
282.291	0.2
282.663	0.26
283.034	0.21
283.406	0.2
283.777	0.22
284.148	0.19
284.52	0.22
284.891	0.21
285.262	0.14
285.634	0.2
286.005	0.25
286.376	0.14
286.747	0.2
287.119	0.22
287.49	0.22
287.861	0.17
288.232	0.16
288.603	0.21
288.974	0.16
289.345	0.25
289.716	0.19
290.087	0.18
290.458	0.23
290.829	0.23
291.2	0.23
291.571	0.22
291.941	0.19
292.312	0.18
292.683	0.25
293.054	0.12
293.424	0.27
293.795	0.2
294.166	0.17
294.536	0.19
294.907	0.2
295.277	0.22
295.648	0.22
296.018	0.2
296.389	0.26
296.759	0.22
297.13	0.21
297.5	0.1
297.871	0.22
298.241	0.21
298.611	0.2
298.981	0.19
299.352	0.18
299.722	0.2
300.092	0.17
300.462	0.19
300.832	0.21
301.202	0.16
301.573	0.14
301.943	0.13
302.313	0.17
302.683	0.17
303.053	0.14
303.422	0.15
303.792	0.17
304.162	0.15
304.532	0.16
304.902	0.17
305.272	0.18
305.641	0.18
306.011	0.18
306.381	0.17
306.75	0.17
307.12	0.19
307.49	0.18
307.859	0.19
308.229	0.17
308.598	0.18
308.968	0.18
309.337	0.19
309.707	0.19
310.076	0.19
310.445	0.2
310.815	0.2
311.184	0.2
311.553	0.2
311.923	0.2
312.292	0.21
312.661	0.21
313.03	0.21
313.399	0.21
313.768	0.21
314.137	0.21
314.506	0.21
314.875	0.21
315.244	0.21
315.613	0.2
315.982	0.2
316.351	0.21
316.72	0.2
317.089	0.2
317.458	0.21
317.826	0.2
318.195	0.21
318.564	0.2
318.933	0.2
319.301	0.2
319.67	0.19
320.038	0.19
320.407	0.19
320.775	0.19
321.144	0.19
321.512	0.19
321.881	0.18
322.249	0.18
322.618	0.18
322.986	0.19
323.354	0.19
323.723	0.17
324.091	0.17
324.459	0.17
324.827	0.17
325.195	0.17
325.564	0.17
325.932	0.17
326.3	0.17
326.668	0.17
327.036	0.17
327.404	0.17
327.772	0.17
328.14	0.17
328.508	0.17
328.875	0.17
329.243	0.17
329.611	0.17
329.979	0.18
330.346	0.17
330.714	0.18
331.082	0.18
331.449	0.17
331.817	0.18
332.185	0.18
332.552	0.18
332.92	0.18
333.287	0.18
333.655	0.19
334.022	0.18
334.389	0.19
334.757	0.19
335.124	0.19
335.491	0.19
335.859	0.19
336.226	0.2
336.593	0.19
336.96	0.2
337.327	0.2
337.695	0.21
338.062	0.2
338.429	0.21
338.796	0.21
339.163	0.22
339.53	0.22
339.897	0.23
340.263	0.23
340.63	0.23
340.997	0.24
341.364	0.24
341.731	0.25
342.097	0.24
342.464	0.25
342.831	0.25
343.197	0.26
343.564	0.27
343.931	0.27
344.297	0.28
344.664	0.28
345.03	0.28
345.396	0.28
345.763	0.29
346.129	0.29
346.496	0.3
346.862	0.3
347.228	0.31
347.594	0.31
347.961	0.31
348.327	0.32
348.693	0.33
349.059	0.33
349.425	0.33
349.791	0.34
350.157	0.35
350.523	0.35
350.889	0.36
351.255	0.36
351.621	0.37
351.987	0.38
352.353	0.39
352.719	0.39
353.084	0.4
353.45	0.41
353.816	0.41
354.181	0.42
354.547	0.42
354.913	0.44
355.278	0.45
355.644	0.45
356.009	0.47
356.375	0.48
356.74	0.49
357.106	0.5
357.471	0.51
357.836	0.52
358.202	0.53
358.567	0.54
358.932	0.55
359.297	0.56
359.663	0.56
360.028	0.57
360.393	0.59
360.758	0.6
361.123	0.59
361.488	0.6
361.853	0.61
362.218	0.61
362.583	0.62
362.948	0.63
363.312	0.64
363.677	0.65
364.042	0.66
364.407	0.67
364.772	0.68
365.136	0.69
365.501	0.71
365.865	0.72
366.23	0.73
366.595	0.75
366.959	0.77
367.324	0.78
367.688	0.79
368.052	0.81
368.417	0.82
368.781	0.83
369.145	0.84
369.51	0.84
369.874	0.84
370.238	0.85
370.602	0.85
370.967	0.83
371.331	0.84
371.695	0.84
372.059	0.83
372.423	0.83
372.787	0.83
373.151	0.82
373.515	0.82
373.878	0.82
374.242	0.82
374.606	0.82
374.97	0.83
375.334	0.82
375.697	0.83
376.061	0.83
376.425	0.84
376.788	0.84
377.152	0.84
377.515	0.86
377.879	0.86
378.242	0.86
378.606	0.87
378.969	0.89
379.333	0.89
379.696	0.9
380.059	0.92
380.422	0.94
380.786	0.96
381.149	0.97
381.512	0.99
381.875	1.01
382.238	1.04
382.601	1.06
382.964	1.08
383.327	1.12
383.69	1.13
384.053	1.16
384.416	1.19
384.779	1.2
385.142	1.23
385.504	1.26
385.867	1.28
386.23	1.29
386.593	1.3
386.955	1.32
387.318	1.29
387.68	1.31
388.043	1.27
388.405	1.28
388.768	1.29
389.13	1.26
389.493	1.25
389.855	1.24
390.217	1.24
390.58	1.24
390.942	1.25
391.304	1.26
391.666	1.27
392.028	1.28
392.391	1.32
392.753	1.35
393.115	1.38
393.477	1.42
393.839	1.48
394.201	1.5
394.563	1.56
394.924	1.64
395.286	1.67
395.648	1.7
396.01	1.74
396.371	1.79
396.733	1.78
397.095	1.8
397.456	1.83
397.818	1.8
398.18	1.78
398.541	1.77
398.903	1.77
399.264	1.71
399.625	1.68
399.987	1.64
400.348	1.58
400.709	1.52
401.071	1.46
401.432	1.36
401.793	1.28
402.154	1.21
402.515	1.13
402.876	1.06
403.238	0.98
403.599	0.92
403.96	0.85
404.32	0.79
404.681	0.74
405.042	0.69
405.403	0.64
405.764	0.6
406.125	0.56
406.485	0.52
406.846	0.49
407.207	0.45
407.567	0.43
407.928	0.41
408.288	0.38
408.649	0.36
409.009	0.34
409.37	0.32
409.73	0.31
410.091	0.29
410.451	0.28
410.811	0.27
411.171	0.26
411.532	0.25
411.892	0.23
412.252	0.23
412.612	0.22
412.972	0.21
413.332	0.2
413.692	0.2
414.052	0.19
414.412	0.18
414.772	0.17
415.132	0.17
415.492	0.16
415.851	0.16
416.211	0.16
416.571	0.15
416.931	0.14
417.29	0.14
417.65	0.14
418.009	0.14
418.369	0.14
418.728	0.13
419.088	0.13
419.447	0.14
419.807	0.12
420.166	0.12
420.525	0.12
420.884	0.11
421.244	0.11
421.603	0.12
421.962	0.11
422.321	0.11
422.68	0.11
423.039	0.11
423.398	0.1
423.757	0.1
424.116	0.1
424.475	0.1
424.834	0.1
425.193	0.1
425.551	0.09
425.91	0.1
426.269	0.1
426.628	0.1
426.986	0.1
427.345	0.09
427.703	0.09
428.062	0.09
428.42	0.08
428.779	0.09
429.137	0.08
429.496	0.08
429.854	0.09
430.212	0.08
430.57	0.09
430.929	0.09
431.287	0.09
431.645	0.08
432.003	0.08
432.361	0.08
432.719	0.08
433.077	0.07
433.435	0.08
433.793	0.08
434.151	0.07
434.509	0.08
434.866	0.07
435.224	0.08
435.582	0.07
435.94	0.07
436.297	0.07
436.655	0.07
437.012	0.07
437.37	0.07
437.727	0.07
438.085	0.07
438.442	0.06
438.8	0.07
439.157	0.07
439.514	0.07
439.872	0.07
440.229	0.07
440.586	0.06
440.943	0.06
441.3	0.06
441.657	0.06
442.014	0.06
442.371	0.06
442.728	0.06
443.085	0.06
443.442	0.06
443.799	0.06
444.156	0.06
444.513	0.05
444.869	0.06
445.226	0.06
445.583	0.06
445.939	0.05
446.296	0.05
446.652	0.05
447.009	0.05
447.365	0.06
447.722	0.05
448.078	0.05
448.434	0.05
448.791	0.05
449.147	0.05
449.503	0.05
449.859	0.05
450.215	0.05
450.571	0.05
450.928	0.04
451.284	0.05
451.64	0.04
451.995	0.04
452.351	0.04
452.707	0.04
453.063	0.04
453.419	0.04
453.775	0.04
454.13	0.04
454.486	0.03
454.842	0.03
455.197	0.03
455.553	0.03
455.908	0.03
456.264	0.03
456.619	0.03
456.975	0.03
457.33	0.03
457.685	0.02
458.04	0.01
458.396	0.01
458.751	0.01
459.106	0.02
459.461	0.02
459.816	0.02
460.171	0.01
460.526	0.01
460.881	0.01
461.236	0.01
461.591	0
461.946	-0
462.301	-0.01
462.655	-0
463.01	-0.01
463.365	-0
463.719	-0.01
464.074	-0.01
464.428	-0.01
464.783	-0.01
465.137	-0.02
465.492	-0.01
465.846	-0.02
466.201	-0.02
466.555	-0.02
466.909	-0.01
467.263	-0.01
467.618	-0.01
467.972	-0.01
468.326	-0.02
468.68	-0.01
469.034	-0.02
469.388	-0.02
469.742	-0.02
470.096	-0.03
470.45	-0.02
470.804	-0.02
471.157	-0.02
471.511	-0.02
471.865	-0.02
472.218	-0.02
472.572	-0.01
472.926	-0.01
473.279	-0.01
473.633	-0
473.986	-0
474.34	0
474.693	0.01
475.046	0.01
475.4	0.01
475.753	0.02
476.106	0.02
476.459	0.02
476.812	0.03
477.165	0.03
477.519	0.02
477.872	0.03
478.224	0.04
478.577	0.03
478.93	0.04
479.283	0.04
479.636	0.05
479.989	0.05
480.341	0.05
480.694	0.05
481.047	0.05
481.399	0.06
481.752	0.06
482.104	0.06
482.457	0.06
482.809	0.06
483.162	0.07
483.514	0.07
483.866	0.07
484.219	0.07
484.571	0.07
484.923	0.07
485.275	0.07
485.627	0.08
485.979	0.08
486.331	0.08
486.683	0.07
487.035	0.08
487.387	0.08
487.739	0.08
488.091	0.09
488.443	0.08
488.794	0.08
489.146	0.09
489.498	0.1
489.849	0.09
490.201	0.09
490.552	0.1
490.904	0.1
491.255	0.1
491.607	0.1
491.958	0.1
492.309	0.1
492.661	0.1
493.012	0.1
493.363	0.11
493.714	0.11
494.065	0.11
494.416	0.11
494.767	0.11
495.118	0.12
495.469	0.12
495.82	0.12
496.171	0.12
496.522	0.13
496.872	0.12
497.223	0.13
497.574	0.12
497.924	0.13
498.275	0.13
498.626	0.13
498.976	0.13
499.327	0.13
499.677	0.13
500.027	0.14
500.378	0.14
500.728	0.14
501.078	0.14
501.428	0.14
501.779	0.15
502.129	0.15
502.479	0.15
502.829	0.15
503.179	0.15
503.529	0.16
503.879	0.15
504.229	0.15
504.578	0.16
504.928	0.16
505.278	0.16
505.628	0.16
505.977	0.17
506.327	0.17
506.676	0.17
507.026	0.17
507.375	0.17
507.725	0.17
508.074	0.18
508.424	0.17
508.773	0.18
509.122	0.18
509.471	0.18
509.82	0.18
510.17	0.18
510.519	0.19
510.868	0.19
511.217	0.19
511.566	0.19
511.915	0.2
512.263	0.2
512.612	0.2
512.961	0.2
513.31	0.2
513.659	0.2
514.007	0.21
514.356	0.21
514.704	0.21
515.053	0.21
515.401	0.21
515.75	0.21
516.098	0.22
516.447	0.22
516.795	0.22
517.143	0.22
517.491	0.22
517.839	0.22
518.188	0.23
518.536	0.23
518.884	0.23
519.232	0.23
519.58	0.23
519.928	0.24
520.275	0.24
520.623	0.24
520.971	0.24
521.319	0.25
521.666	0.24
522.014	0.25
522.362	0.25
522.709	0.25
523.057	0.25
523.404	0.25
523.752	0.26
524.099	0.26
524.446	0.26
524.794	0.26
525.141	0.26
525.488	0.26
525.835	0.26
526.182	0.27
526.529	0.27
526.876	0.27
527.223	0.27
527.57	0.28
527.917	0.28
528.264	0.28
528.611	0.29
528.958	0.29
529.304	0.28
529.651	0.29
529.998	0.29
530.344	0.29
530.691	0.3
531.037	0.3
531.384	0.3
531.73	0.3
532.076	0.31
532.423	0.31
532.769	0.31
533.115	0.31
533.461	0.31
533.807	0.31
534.154	0.32
534.5	0.32
534.846	0.32
535.192	0.32
535.537	0.33
535.883	0.33
536.229	0.33
536.575	0.33
536.921	0.34
537.266	0.34
537.612	0.34
537.957	0.34
538.303	0.34
538.649	0.34
538.994	0.35
539.339	0.35
539.685	0.36
540.03	0.36
540.375	0.36
540.721	0.36
541.066	0.37
541.411	0.37
541.756	0.37
542.101	0.37
542.446	0.38
542.791	0.38
543.136	0.38
543.481	0.38
543.825	0.39
544.17	0.38
544.515	0.39
544.86	0.4
545.204	0.4
545.549	0.4
545.893	0.4
546.238	0.41
546.582	0.4
546.927	0.41
547.271	0.41
547.615	0.41
547.96	0.42
548.304	0.42
548.648	0.42
548.992	0.42
549.336	0.43
549.68	0.43
550.024	0.43
550.368	0.43
550.712	0.43
551.056	0.44
551.4	0.44
551.743	0.45
552.087	0.44
552.431	0.45
552.774	0.45
553.118	0.45
553.462	0.45
553.805	0.45
554.148	0.45
554.492	0.46
554.835	0.46
555.178	0.46
555.522	0.46
555.865	0.46
556.208	0.46
556.551	0.46
556.894	0.47
557.237	0.47
557.58	0.47
557.923	0.47
558.266	0.48
558.609	0.47
558.952	0.48
559.294	0.48
559.637	0.48
559.98	0.48
560.322	0.48
560.665	0.48
561.007	0.48
561.35	0.49
561.692	0.49
562.034	0.49
562.377	0.49
562.719	0.49
563.061	0.49
563.403	0.49
563.745	0.49
564.088	0.49
564.43	0.49
564.772	0.5
565.113	0.5
565.455	0.5
565.797	0.5
566.139	0.5
566.481	0.5
566.822	0.5
567.164	0.5
567.506	0.5
567.847	0.5
568.189	0.5
568.53	0.51
568.872	0.5
569.213	0.51
569.554	0.51
569.895	0.51
570.237	0.51
570.578	0.51
570.919	0.51
571.26	0.51
571.601	0.51
571.942	0.51
572.283	0.51
572.624	0.51
572.965	0.51
573.306	0.52
573.646	0.51
573.987	0.51
574.328	0.51
574.668	0.51
575.009	0.51
575.349	0.51
575.69	0.51
576.03	0.51
576.37	0.51
576.711	0.5
577.051	0.5
577.391	0.51
577.731	0.51
578.072	0.51
578.412	0.52
578.752	0.52
579.092	0.51
579.431	0.51
579.771	0.49
580.111	0.48
580.451	0.48
580.791	0.51
581.13	0.52
581.47	0.52
581.81	0.52
582.149	0.52
582.489	0.52
582.828	0.52
583.167	0.49
583.507	0.46
583.846	0.44
584.185	0.47
584.525	0.49
584.864	0.52
585.203	0.53
585.542	0.53
585.881	0.54
586.22	0.54
586.559	0.54
586.898	0.53
587.236	0.52
587.575	0.51
587.914	0.52
588.252	0.54
588.591	0.55
588.93	0.55
589.268	0.55
589.607	0.55
589.945	0.55
590.283	0.55
590.622	0.56
590.96	0.56
591.298	0.57
591.636	0.57
591.974	0.57
592.313	0.58
592.651	0.58
592.989	0.58
593.326	0.58
593.664	0.58
594.002	0.59
594.34	0.59
594.678	0.58
595.015	0.58
595.353	0.58
595.691	0.59
596.028	0.6
596.366	0.6
596.703	0.6
597.04	0.61
597.378	0.61
597.715	0.62
598.052	0.61
598.389	0.62
598.726	0.62
599.064	0.62
599.401	0.63
599.738	0.62
600.074	0.63
600.411	0.63
600.748	0.63
601.085	0.62
601.422	0.62
601.758	0.62
602.095	0.62
602.432	0.62
602.768	0.62
603.105	0.63
603.441	0.63
603.777	0.63
604.114	0.63
604.45	0.63
604.786	0.63
605.122	0.63
605.459	0.63
605.795	0.64
606.131	0.63
606.467	0.63
606.803	0.63
607.139	0.64
607.474	0.63
607.81	0.62
608.146	0.63
608.482	0.62
608.817	0.63
609.153	0.62
609.488	0.62
609.824	0.62
610.159	0.62
610.495	0.62
610.83	0.62
611.165	0.62
611.5	0.62
611.836	0.61
612.171	0.61
612.506	0.61
612.841	0.61
613.176	0.61
613.511	0.61
613.845	0.61
614.18	0.6
614.515	0.6
614.85	0.6
615.184	0.6
615.519	0.6
615.854	0.59
616.188	0.59
616.523	0.59
616.857	0.59
617.191	0.59
617.526	0.59
617.86	0.59
618.194	0.58
618.528	0.58
618.862	0.58
619.196	0.58
619.53	0.59
619.864	0.58
620.198	0.58
620.532	0.58
620.866	0.57
621.2	0.57
621.533	0.57
621.867	0.58
622.201	0.57
622.534	0.56
622.868	0.57
623.201	0.56
623.534	0.56
623.868	0.55
624.201	0.55
624.534	0.55
624.868	0.55
625.201	0.55
625.534	0.55
625.867	0.55
626.2	0.55
626.533	0.54
626.865	0.54
627.198	0.54
627.531	0.53
627.864	0.53
628.196	0.52
628.529	0.52
628.862	0.52
629.194	0.52
629.527	0.52
629.859	0.52
630.191	0.51
630.524	0.51
630.856	0.51
631.188	0.51
631.52	0.5
631.852	0.49
632.184	0.49
632.516	0.49
632.848	0.48
633.18	0.48
633.512	0.48
633.844	0.47
634.175	0.47
634.507	0.47
634.839	0.46
635.17	0.46
635.502	0.46
635.833	0.45
636.165	0.45
636.496	0.45
636.827	0.44
637.159	0.44
637.49	0.44
637.821	0.43
638.152	0.43
638.483	0.42
638.814	0.42
639.145	0.42
639.476	0.42
639.807	0.41
640.137	0.41
640.468	0.41
640.799	0.41
641.129	0.4
641.46	0.4
641.791	0.4
642.121	0.39
642.451	0.39
642.782	0.39
643.112	0.39
643.442	0.38
643.773	0.38
644.103	0.38
644.433	0.38
644.763	0.37
645.093	0.38
645.423	0.37
645.753	0.37
646.082	0.37
646.412	0.36
646.742	0.37
647.072	0.36
647.401	0.36
647.731	0.36
648.06	0.36
648.39	0.36
648.719	0.35
649.048	0.36
649.378	0.35
649.707	0.35
650.036	0.34
650.365	0.34
650.694	0.34
651.023	0.34
651.352	0.33
651.681	0.34
652.01	0.34
652.339	0.34
652.668	0.34
652.996	0.34
653.325	0.34
653.654	0.34
653.982	0.34
654.311	0.34
654.639	0.34
654.967	0.33
655.296	0.34
655.624	0.34
655.952	0.34
656.28	0.33
656.609	0.33
656.937	0.33
657.265	0.34
657.593	0.26
657.92	0.12
658.248	0.07
658.576	0.08
658.904	0.18
659.231	0.27
659.559	0.32
659.887	0.32
660.214	0.33
660.542	0.33
660.869	0.33
661.196	0.33
661.524	0.33
661.851	0.33
662.178	0.33
662.505	0.33
662.832	0.33
663.159	0.33
663.486	0.33
663.813	0.33
664.14	0.32
664.467	0.33
664.794	0.33
665.12	0.33
665.447	0.32
665.774	0.32
666.1	0.32
666.427	0.32
666.753	0.32
667.079	0.31
667.406	0.31
667.732	0.31
668.058	0.31
668.384	0.31
668.71	0.31
669.036	0.31
669.362	0.31
669.688	0.31
670.014	0.31
670.34	0.31
670.666	0.3
670.991	0.3
671.317	0.3
671.643	0.3
671.968	0.3
672.294	0.3
672.619	0.3
672.945	0.3
673.27	0.3
673.595	0.3
673.92	0.29
674.246	0.29
674.571	0.29
674.896	0.28
675.221	0.28
675.546	0.28
675.87	0.28
676.195	0.28
676.52	0.27
676.845	0.27
677.169	0.27
677.494	0.27
677.819	0.27
678.143	0.27
678.468	0.26
678.792	0.26
679.116	0.26
679.44	0.26
679.765	0.25
680.089	0.25
680.413	0.24
680.737	0.25
681.061	0.24
681.385	0.25
681.709	0.24
682.033	0.24
682.356	0.24
682.68	0.24
683.004	0.23
683.327	0.23
683.651	0.22
683.974	0.22
684.298	0.22
684.621	0.22
684.944	0.22
685.268	0.22
685.591	0.21
685.914	0.21
686.237	0.21
686.56	0.2
686.883	0.2
687.206	0.2
687.529	0.19
687.852	0.19
688.175	0.19
688.497	0.19
688.82	0.19
689.142	0.19
689.465	0.19
689.787	0.19
690.11	0.18
690.432	0.18
690.755	0.18
691.077	0.17
691.399	0.17
691.721	0.17
692.043	0.17
692.365	0.16
692.687	0.16
693.009	0.16
693.331	0.16
693.653	0.16
693.974	0.16
694.296	0.15
694.618	0.15
694.939	0.15
695.261	0.15
695.582	0.15
695.904	0.15
696.225	0.15
696.546	0.15
696.868	0.15
697.189	0.14
697.51	0.14
697.831	0.14
698.152	0.14
698.473	0.13
698.794	0.13
699.114	0.13
699.435	0.12
699.756	0.13
700.077	0.13
700.397	0.12
700.718	0.12
701.038	0.12
701.359	0.12
701.679	0.12
701.999	0.12
702.32	0.12
702.64	0.12
702.96	0.12
703.28	0.12
703.6	0.12
703.92	0.11
704.24	0.11
704.56	0.11
704.879	0.11
705.199	0.11
705.519	0.11
705.838	0.11
706.158	0.11
706.478	0.11
706.797	0.11
707.116	0.11
707.436	0.11
707.755	0.11
708.074	0.11
708.393	0.1
708.712	0.1
709.031	0.1
709.35	0.09
709.669	0.09
709.988	0.1
710.307	0.1
710.626	0.1
710.944	0.1
711.263	0.1
711.582	0.1
711.9	0.1
712.219	0.1
712.537	0.11
712.855	0.1
713.174	0.1
713.492	0.1
713.81	0.1
714.128	0.1
714.446	0.1
714.764	0.1
715.082	0.1
715.4	0.1
715.718	0.1
716.035	0.1
716.353	0.1
716.671	0.1
716.988	0.1
717.306	0.1
717.623	0.1
717.941	0.1
718.258	0.1
718.575	0.1
718.893	0.11
719.21	0.11
719.527	0.1
719.844	0.1
720.161	0.1
720.478	0.1
720.795	0.1
721.112	0.11
721.428	0.11
721.745	0.11
722.062	0.11
722.378	0.11
722.695	0.11
723.011	0.11
723.328	0.11
723.644	0.11
723.96	0.11
724.276	0.11
724.593	0.11
724.909	0.11
725.225	0.11
725.541	0.11
725.857	0.11
726.173	0.11
726.488	0.11
726.804	0.11
727.12	0.11
727.435	0.11
727.751	0.11
728.067	0.11
728.382	0.12
728.697	0.11
729.013	0.12
729.328	0.11
729.643	0.12
729.958	0.12
730.273	0.12
730.588	0.12
730.903	0.12
731.218	0.12
731.533	0.12
731.848	0.11
732.163	0.12
732.477	0.12
732.792	0.12
733.107	0.11
733.421	0.11
733.736	0.11
734.05	0.12
734.364	0.12
734.678	0.12
734.993	0.11
735.307	0.12
735.621	0.11
735.935	0.12
736.249	0.11
736.563	0.12
736.877	0.12
737.19	0.12
737.504	0.12
737.818	0.12
738.131	0.12
738.445	0.12
738.758	0.12
739.072	0.12
739.385	0.11
739.698	0.12
740.012	0.11
740.325	0.11
740.638	0.11
740.951	0.11
741.264	0.11
741.577	0.11
741.89	0.11
742.203	0.11
742.515	0.11
742.828	0.11
743.141	0.11
743.453	0.11
743.766	0.11
744.078	0.1
744.391	0.1
744.703	0.1
745.015	0.1
745.327	0.1
745.639	0.1
745.952	0.1
746.264	0.09
746.575	0.1
746.887	0.09
747.199	0.09
747.511	0.09
747.823	0.09
748.134	0.09
748.446	0.09
748.757	0.09
749.069	0.09
749.38	0.09
749.692	0.09
750.003	0.08
750.314	0.08
750.625	0.08
750.936	0.08
751.248	0.07
751.559	0.08
751.869	0.07
752.18	0.08
752.491	0.08
752.802	0.07
753.112	0.07
753.423	0.07
753.734	0.07
754.044	0.07
754.355	0.07
754.665	0.06
754.975	0.06
755.285	0.06
755.596	0.06
755.906	0.06
756.216	0.06
756.526	0.06
756.836	0.06
757.146	0.06
757.455	0.06
757.765	0.06
758.075	0.05
758.385	0.05
758.694	0.05
759.004	0.05
759.313	0.05
759.622	0.05
759.932	0.05
760.241	0.05
760.55	0.05
760.859	0.05
761.168	0.05
761.477	0.05
761.786	0.05
762.095	0.05
762.404	0.05
762.713	0.05
763.021	0.05
763.33	0.05
763.639	0.04
763.947	0.04
764.256	0.04
764.564	0.05
764.872	0.05
765.181	0.04
765.489	0.04
765.797	0.05
766.105	0.05
766.413	0.05
766.721	0.05
767.029	0.04
767.337	0.05
767.644	0.04
767.952	0.04
768.26	0.04
768.567	0.04
768.875	0.04
769.182	0.04
769.49	0.04
769.797	0.04
770.104	0.04
770.411	0.04
770.718	0.04
771.026	0.04
771.333	0.04
771.639	0.04
771.946	0.04
772.253	0.04
772.56	0.04
772.867	0.04
773.173	0.04
773.48	0.03
773.786	0.03
774.093	0.03
774.399	0.03
774.705	0.04
775.012	0.04
775.318	0.04
775.624	0.03
775.93	0.03
776.236	0.03
776.542	0.03
776.848	0.03
777.154	0.03
777.459	0.03
777.765	0.03
778.071	0.03
778.376	0.03
778.682	0.03
778.987	0.03
779.292	0.02
779.598	0.03
779.903	0.03
780.208	0.02
780.513	0.03
780.818	0.02
781.123	0.03
781.428	0.03
781.733	0.03
782.038	0.03
782.343	0.03
782.647	0.03
782.952	0.03
783.256	0.03
783.561	0.03
783.865	0.03
784.17	0.03
784.474	0.03
784.778	0.03
785.082	0.03
785.386	0.02
785.69	0.02
785.994	0.02
786.298	0.02
786.602	0.03
786.906	0.02
787.209	0.02
787.513	0.02
787.817	0.03
788.12	0.03
788.424	0.03
788.727	0.02
789.03	0.03
789.333	0.03
789.637	0.03
789.94	0.03
790.243	0.03
790.546	0.03
790.849	0.03
791.152	0.04
791.454	0.03
791.757	0.03
792.06	0.03
792.362	0.03
792.665	0.03
792.967	0.03
793.27	0.03
793.572	0.02
793.874	0.03
794.177	0.03
794.479	0.03
794.781	0.03
795.083	0.03
795.385	0.03
795.687	0.03
795.989	0.03
796.29	0.03
796.592	0.03
796.894	0.03
797.195	0.03
797.497	0.03
797.798	0.03
798.1	0.03
798.401	0.03
798.702	0.03
799.003	0.03
799.304	0.03
799.605	0.03
799.906	0.03
800.207	0.03
800.508	0.03
800.809	0.03
801.11	0.03
801.41	0.04
801.711	0.04
802.011	0.04
802.312	0.03
802.612	0.03
802.913	0.04
803.213	0.04
803.513	0.03
803.813	0.03
804.113	0.03
804.413	0.03
804.713	0.03
805.013	0.03
805.313	0.03
805.613	0.02
805.912	0.03
806.212	0.03
806.511	0.02
806.811	0.02
807.11	0.02
807.41	0.02
807.709	0.01
808.008	0.02
808.307	0.02
808.606	0.02
808.905	0.02
809.204	0.03
809.503	0.03
809.802	0.02
810.101	0.02
810.399	0.03
810.698	0.03
810.997	0.02
811.295	0.02
811.593	0.02
811.892	0.03
812.19	0.03
812.488	0.03
812.786	0.03
813.084	0.03
813.383	0.03
813.68	0.03
813.978	0.03
814.276	0.03
814.574	0.03
814.872	0.03
815.169	0.03
815.467	0.03
815.764	0.03
816.062	0.03
816.359	0.03
816.656	0.03
816.954	0.03
817.251	0.02
817.548	0.02
817.845	0.02
818.142	0.02
818.439	0.02
818.735	0.02
819.032	0.03
819.329	0.02
819.626	0.02
819.922	0.01
820.219	0.02
820.515	0.01
820.811	0.02
821.108	0.02
821.404	0.02
821.7	0.02
821.996	0.02
822.292	0.03
822.588	0.02
822.884	0.03
823.18	0.04
823.475	0.03
823.771	0.04
824.067	0.03
824.362	0.03
824.658	0.04
824.953	0.04
825.249	0.04
825.544	0.03
825.839	0.04
826.134	0.02
826.429	0.03
826.724	0.03
827.019	0.03
827.314	0.04
827.609	0.03
827.904	0.03
828.198	0.04
828.493	0.03
828.787	0.03
829.082	0.03
829.376	0.03
829.671	0.03
829.965	0.04
830.259	0.03
830.553	0.04
830.847	0.02
831.141	0.03
831.435	0.03
831.729	0.03
832.023	0.03
832.317	0.03
832.61	0.03
832.904	0.03
833.197	0.04
833.491	0.04
833.784	0.05
834.077	0.04
834.371	0.04
834.664	0.04
834.957	0.04
835.25	0.04
835.543	0.03
835.836	0.04
836.129	0.04
836.421	0.04
836.714	0.04
837.007	0.03
837.299	0.03
837.592	0.03
837.884	0.03
838.177	0.04
838.469	0.03
838.761	0.03
839.053	0.03
839.345	0.03
839.637	0.03
839.929	0.02
840.221	0.02
840.513	0.02
840.805	0.02
841.096	0.02
841.388	0.04
841.68	0.03
841.971	0.02
842.262	0.02
842.554	0.04
842.845	0.02
843.136	0.03
843.427	0.04
843.718	0.03
844.009	0.02
844.3	0.03
844.591	0.04
844.882	0.03
845.173	0.03
845.463	0.03
845.754	0.02
846.044	0.02
846.335	0.04
846.625	0.03
846.915	0.03
847.206	0.02
847.496	0.03
847.786	0.04
848.076	0.04
848.366	0.04
848.656	0.04
848.945	0.04
849.235	0.05
849.525	0.04
849.814	0.03
850.104	0.03
850.393	0.03
850.683	0.03
850.972	0.03
851.261	0.04
851.551	0.03
851.84	0.02
852.129	0.02
852.418	0.01
852.707	0.04
852.995	0.02
853.284	0.03
853.573	0.02
853.862	0.01
854.15	0.03
854.439	0.03
854.727	0.03
855.015	0.02
855.304	0.02
855.592	0.03
855.88	0.03
856.168	0.03
856.456	0.02
856.744	0.03
857.032	0
857.32	0.03
857.607	0.02
857.895	0.02
858.183	0.02
858.47	0.03
858.757	0.03
859.045	0.02
859.332	0.02
859.619	0.03
859.907	0.01
860.194	0.04
860.481	0.02
860.768	0.04
861.054	0.02
861.341	0.03
861.628	0.04
861.915	0.04
862.201	0.04
862.488	0.04
862.774	0.04
863.061	0.02
863.347	0.02
863.633	0.04
863.919	0.06
864.205	0.01
864.491	0.01
864.777	0.01
865.063	0.03
865.349	0.03
865.635	0.01
865.92	0.04
866.206	0.04
866.492	0.05
866.777	0.03
867.062	0.02
867.348	0.04
867.633	0
867.918	0.02
868.203	0.05
868.488	0.03
868.773	0.01
869.058	0.02
869.343	0.04
869.628	-0.02
869.912	-0.02
870.197	0.02
870.482	-0.01
870.766	-0.05
871.05	-0.01
871.335	0.02
871.619	0.02
871.903	-0.02
872.187	0.02
872.471	0.01
872.755	0.05
873.039	0
873.323	0.01
873.607	-0.02
873.89	0.02
874.174	-0.04
874.458	-0.04
874.741	0
875.024	0.02
875.308	-0.05
875.591	0.04
875.874	0.03
876.157	-0.06
876.44	0.01
876.723	0.06
877.006	0.03
877.289	-0.04
877.572	0.12
877.854	-0.03
878.137	0.05
878.42	-0.09
878.702	-0.02
878.984	-0.03
879.267	-0.04
879.549	0.1
879.831	-0
880.113	-0
880.395	0
880.677	-0.01
880.959	-0.13
