Data from Rubpy_EV_1200_EDTA_Buffered_Absorbance_14-11-03-660.txt Node
Date: Tue Jun 30 14:11:03 BST 2026
User: fpm-admin
Spectrometer: OFX00224
Trigger mode: 0
Integration Time (sec): 7.000000E-2
Scans to average: 3
Nonlinearity correction enabled: false
Boxcar width: 0
Storing dark spectrum: false
XAxis mode: Wavelengths
Number of Pixels in Spectrum: 2136
>>>>>Begin Spectral Data<<<<<
154.91	-0.01
155.289	0.11
155.669	-0.07
156.048	-0.27
156.428	-0.1
156.807	-0
157.186	-0.08
157.566	0.07
157.945	0.07
158.325	-0.35
158.704	-0.07
159.083	-0
159.462	-0
159.842	-0.19
160.221	0.25
160.6	-0
160.979	-0.2
161.359	0.44
161.738	0.7
162.117	-0.24
162.496	0.34
162.875	-0.5
163.254	-0.09
163.633	-0
164.012	0.11
164.391	0.67
164.77	-0
165.149	-0.2
165.528	-0
165.907	-0
166.286	-0
166.665	-0.56
167.044	-0.3
167.423	0.65
167.802	-0
168.181	-0
168.559	-0
168.938	0.54
169.317	-0.56
169.696	-0
170.074	-0
170.453	-0
170.832	-0
171.21	0.08
171.589	-0
171.968	-0
172.346	0.02
172.725	-0.86
173.103	-0
173.482	0.53
173.861	0.36
174.239	0.92
174.617	-0
174.996	-0.88
175.374	-0.31
175.753	-0.78
176.131	-0
176.51	-0.25
176.888	-0.08
177.266	0.68
177.645	-0.03
178.023	0.39
178.401	-0.25
178.779	0.02
179.158	-0
179.536	1.11
179.914	0.3
180.292	-0.1
180.67	0.07
181.048	-0.04
181.427	0.01
181.805	0.02
182.183	1
182.561	-0
182.939	-0
183.317	-0.24
183.695	0.51
184.073	-0.1
184.451	-0.33
184.829	0.06
185.206	0.08
185.584	0.05
185.962	-0.43
186.34	0.36
186.718	-0
187.096	0.19
187.473	-0
187.851	-0
188.229	-0
188.607	0.02
188.984	-0.04
189.362	0.18
189.74	-0.04
190.117	0.03
190.495	-0.04
190.872	-0.04
191.25	0.07
191.627	-0.02
192.005	-0.02
192.382	0.01
192.76	-0.07
193.137	0.11
193.515	0.06
193.892	-0.06
194.269	0.06
194.647	0.08
195.024	0.01
195.401	0.01
195.779	-0.02
196.156	0.02
196.533	-0.02
196.91	-0.01
197.288	-0.02
197.665	0.05
198.042	0.15
198.419	0.1
198.796	-0.02
199.173	-0.04
199.55	0.04
199.927	0.05
200.304	-0.05
200.681	0.16
201.058	0.01
201.435	-0.07
201.812	0.01
202.189	0.02
202.566	0.03
202.943	0.02
203.32	0.05
203.697	0.08
204.073	0.04
204.45	0.05
204.827	0.03
205.204	0.01
205.58	0.08
205.957	0.05
206.334	0.04
206.71	-0.02
207.087	-0.03
207.464	0.03
207.84	-0
208.217	0.12
208.593	0.05
208.97	-0.05
209.346	-0
209.723	0.07
210.099	0.05
210.476	0.03
210.852	0.04
211.228	0.06
211.605	0.08
211.981	0.11
212.357	0
212.733	-0.02
213.11	0.03
213.486	-0.06
213.862	0.06
214.238	0.08
214.614	0.04
214.991	0.08
215.367	0.12
215.743	0.18
216.119	0.1
216.495	0.14
216.871	0.02
217.247	0.1
217.623	0.04
217.999	0.06
218.375	-0.04
218.751	0.08
219.127	0.1
219.502	-0
219.878	0.11
220.254	0.01
220.63	-0.01
221.006	0.01
221.381	-0
221.757	-0.01
222.133	0.08
222.508	-0.05
222.884	0.08
223.26	0.07
223.635	0.05
224.011	0.01
224.386	0
224.762	0.03
225.137	0.01
225.513	-0.01
225.888	0.05
226.264	-0.01
226.639	0.02
227.014	0.04
227.39	0.09
227.765	0.07
228.14	-0.03
228.516	0.05
228.891	0.02
229.266	0.07
229.641	0.01
230.017	0.04
230.392	-0.03
230.767	0.1
231.142	0.04
231.517	0.01
231.892	0.01
232.267	0.07
232.642	0.1
233.017	-0
233.392	0.08
233.767	0.1
234.142	0.05
234.517	0.03
234.892	0.02
235.267	-0.04
235.641	0.02
236.016	-0.06
236.391	0.07
236.766	0.02
237.14	0.07
237.515	-0.06
237.89	0.07
238.264	0.05
238.639	-0.05
239.014	0.08
239.388	0.07
239.763	0.05
240.137	0.04
240.512	0.03
240.886	-0.03
241.261	-0.06
241.635	0.03
242.009	0.03
242.384	-0.03
242.758	-0.01
243.132	-0.04
243.507	-0.02
243.881	0.01
244.255	0.06
244.629	0.06
245.004	0.03
245.378	0
245.752	0.03
246.126	0.02
246.5	0
246.874	-0.02
247.248	0.02
247.622	0.1
247.996	0.04
248.37	0.08
248.744	0.05
249.118	-0.01
249.492	0.1
249.866	0
250.24	0.07
250.613	0.06
250.987	-0.02
251.361	0.01
251.735	0
252.108	0.02
252.482	0
252.856	0.03
253.229	0.07
253.603	0.01
253.977	0.08
254.35	-0.01
254.724	0.07
255.097	0.06
255.471	0.04
255.844	0.06
256.218	-0.02
256.591	0.01
256.964	0.11
257.338	0.02
257.711	0.07
258.084	0.06
258.458	0.04
258.831	-0.01
259.204	-0.01
259.577	-0.05
259.95	-0.03
260.323	0.06
260.697	0.1
261.07	0.04
261.443	0.02
261.816	0.05
262.189	-0.01
262.562	-0.02
262.935	-0.04
263.308	0.02
263.68	0.01
264.053	-0.02
264.426	0.03
264.799	0.04
265.172	0.06
265.545	0.05
265.917	0.06
266.29	-0
266.663	0.02
267.035	0.05
267.408	0.02
267.781	0
268.153	0.08
268.526	0.08
268.898	-0.03
269.271	0.04
269.643	0.04
270.016	-0
270.388	0.03
270.76	0.04
271.133	0.09
271.505	0.03
271.877	0.06
272.25	0.06
272.622	0.06
272.994	0.09
273.366	0.08
273.739	-0.06
274.111	0.02
274.483	0.02
274.855	-0.01
275.227	-0.02
275.599	0
275.971	0.04
276.343	0.05
276.715	0.07
277.087	0.11
277.459	0.04
277.831	0
278.203	0
278.574	0.07
278.946	0.04
279.318	-0
279.69	0.04
280.061	0.04
280.433	0.07
280.805	0.02
281.176	0.09
281.548	0.02
281.92	-0.01
282.291	0.03
282.663	0.02
283.034	0.02
283.406	0.04
283.777	0.03
284.148	0.04
284.52	0.08
284.891	0.05
285.262	0.05
285.634	0.06
286.005	0.08
286.376	0.02
286.747	0.03
287.119	0
287.49	0.04
287.861	-0
288.232	0.04
288.603	0.06
288.974	-0.03
289.345	0.07
289.716	0.02
290.087	0.06
290.458	0.02
290.829	0.05
291.2	0.06
291.571	0.06
291.941	0.05
292.312	0.01
292.683	0.05
293.054	0.06
293.424	0.05
293.795	0.01
294.166	0.02
294.536	0.03
294.907	0.07
295.277	0.04
295.648	0.05
296.018	0.03
296.389	0.07
296.759	0.03
297.13	0.05
297.5	-0.03
297.871	0.08
298.241	0.06
298.611	0.08
298.981	0
299.352	0.01
299.722	0.02
300.092	0
300.462	0.05
300.832	0.08
301.202	0.01
301.573	-0.02
301.943	0
302.313	0.04
302.683	0.03
303.053	-0
303.422	0.02
303.792	0.01
304.162	0.01
304.532	0.02
304.902	0.02
305.272	0.02
305.641	0.02
306.011	0.03
306.381	0.02
306.75	0.03
307.12	0.04
307.49	0.02
307.859	0.02
308.229	0.02
308.598	0.03
308.968	0.02
309.337	0.02
309.707	0.03
310.076	0.02
310.445	0.02
310.815	0.03
311.184	0.03
311.553	0.03
311.923	0.03
312.292	0.03
312.661	0.03
313.03	0.03
313.399	0.02
313.768	0.02
314.137	0.03
314.506	0.03
314.875	0.03
315.244	0.03
315.613	0.03
315.982	0.03
316.351	0.03
316.72	0.03
317.089	0.03
317.458	0.03
317.826	0.03
318.195	0.03
318.564	0.02
318.933	0.02
319.301	0.02
319.67	0.02
320.038	0.03
320.407	0.03
320.775	0.03
321.144	0.02
321.512	0.03
321.881	0.02
322.249	0.02
322.618	0.02
322.986	0.02
323.354	0.03
323.723	0.02
324.091	0.02
324.459	0.02
324.827	0.02
325.195	0.02
325.564	0.02
325.932	0.02
326.3	0.02
326.668	0.02
327.036	0.02
327.404	0.02
327.772	0.02
328.14	0.02
328.508	0.02
328.875	0.02
329.243	0.02
329.611	0.02
329.979	0.03
330.346	0.02
330.714	0.02
331.082	0.02
331.449	0.02
331.817	0.02
332.185	0.02
332.552	0.02
332.92	0.02
333.287	0.02
333.655	0.03
334.022	0.02
334.389	0.02
334.757	0.02
335.124	0.02
335.491	0.03
335.859	0.02
336.226	0.02
336.593	0.02
336.96	0.02
337.327	0.02
337.695	0.02
338.062	0.03
338.429	0.02
338.796	0.02
339.163	0.02
339.53	0.03
339.897	0.02
340.263	0.02
340.63	0.03
340.997	0.03
341.364	0.03
341.731	0.03
342.097	0.03
342.464	0.03
342.831	0.03
343.197	0.03
343.564	0.03
343.931	0.03
344.297	0.04
344.664	0.04
345.03	0.03
345.396	0.04
345.763	0.03
346.129	0.03
346.496	0.04
346.862	0.04
347.228	0.04
347.594	0.04
347.961	0.03
348.327	0.04
348.693	0.04
349.059	0.04
349.425	0.04
349.791	0.04
350.157	0.04
350.523	0.04
350.889	0.04
351.255	0.04
351.621	0.05
351.987	0.04
352.353	0.05
352.719	0.05
353.084	0.05
353.45	0.05
353.816	0.05
354.181	0.05
354.547	0.05
354.913	0.05
355.278	0.05
355.644	0.05
356.009	0.06
356.375	0.05
356.74	0.05
357.106	0.06
357.471	0.06
357.836	0.06
358.202	0.06
358.567	0.06
358.932	0.07
359.297	0.07
359.663	0.07
360.028	0.07
360.393	0.07
360.758	0.08
361.123	0.07
361.488	0.08
361.853	0.07
362.218	0.07
362.583	0.08
362.948	0.08
363.312	0.08
363.677	0.08
364.042	0.09
364.407	0.08
364.772	0.09
365.136	0.09
365.501	0.09
365.865	0.09
366.23	0.09
366.595	0.1
366.959	0.1
367.324	0.11
367.688	0.1
368.052	0.11
368.417	0.11
368.781	0.11
369.145	0.11
369.51	0.11
369.874	0.11
370.238	0.12
370.602	0.11
370.967	0.11
371.331	0.11
371.695	0.11
372.059	0.11
372.423	0.11
372.787	0.11
373.151	0.12
373.515	0.11
373.878	0.11
374.242	0.11
374.606	0.11
374.97	0.11
375.334	0.12
375.697	0.11
376.061	0.11
376.425	0.12
376.788	0.11
377.152	0.11
377.515	0.12
377.879	0.12
378.242	0.12
378.606	0.12
378.969	0.12
379.333	0.12
379.696	0.12
380.059	0.13
380.422	0.13
380.786	0.13
381.149	0.14
381.512	0.14
381.875	0.14
382.238	0.15
382.601	0.15
382.964	0.16
383.327	0.16
383.69	0.16
384.053	0.17
384.416	0.17
384.779	0.18
385.142	0.18
385.504	0.19
385.867	0.19
386.23	0.19
386.593	0.19
386.955	0.19
387.318	0.19
387.68	0.19
388.043	0.19
388.405	0.19
388.768	0.19
389.13	0.19
389.493	0.18
389.855	0.18
390.217	0.18
390.58	0.18
390.942	0.18
391.304	0.18
391.666	0.19
392.028	0.19
392.391	0.19
392.753	0.2
393.115	0.21
393.477	0.22
393.839	0.22
394.201	0.23
394.563	0.24
394.924	0.25
395.286	0.27
395.648	0.27
396.01	0.28
396.371	0.29
396.733	0.3
397.095	0.3
397.456	0.31
397.818	0.3
398.18	0.3
398.541	0.3
398.903	0.29
399.264	0.28
399.625	0.27
399.987	0.26
400.348	0.25
400.709	0.23
401.071	0.22
401.432	0.21
401.793	0.19
402.154	0.18
402.515	0.17
402.876	0.16
403.238	0.14
403.599	0.13
403.96	0.12
404.32	0.12
404.681	0.11
405.042	0.1
405.403	0.1
405.764	0.08
406.125	0.08
406.485	0.08
406.846	0.07
407.207	0.07
407.567	0.06
407.928	0.06
408.288	0.05
408.649	0.05
409.009	0.05
409.37	0.04
409.73	0.05
410.091	0.04
410.451	0.03
410.811	0.04
411.171	0.04
411.532	0.04
411.892	0.03
412.252	0.03
412.612	0.03
412.972	0.03
413.332	0.03
413.692	0.03
414.052	0.02
414.412	0.02
414.772	0.02
415.132	0.02
415.492	0.02
415.851	0.02
416.211	0.02
416.571	0.02
416.931	0.02
417.29	0.02
417.65	0.02
418.009	0.02
418.369	0.02
418.728	0.02
419.088	0.02
419.447	0.03
419.807	0.02
420.166	0.02
420.525	0.02
420.884	0.01
421.244	0.01
421.603	0.02
421.962	0.02
422.321	0.01
422.68	0.01
423.039	0.01
423.398	0.01
423.757	0.02
424.116	0.01
424.475	0.01
424.834	0.02
425.193	0.01
425.551	0
425.91	0.02
426.269	0.01
426.628	0.02
426.986	0.02
427.345	0.01
427.703	0.01
428.062	0.01
428.42	0
428.779	0.01
429.137	0.01
429.496	0.01
429.854	0.01
430.212	0.01
430.57	0.01
430.929	0.01
431.287	0.01
431.645	0.01
432.003	0
432.361	0.01
432.719	0.01
433.077	0.01
433.435	0.01
433.793	0.02
434.151	0.01
434.509	0.02
434.866	0.01
435.224	0.01
435.582	0.01
435.94	0.01
436.297	0.01
436.655	0.01
437.012	0.02
437.37	0.01
437.727	0.01
438.085	0.01
438.442	0.01
438.8	0.01
439.157	0.01
439.514	0.01
439.872	0.01
440.229	0.01
440.586	0
440.943	0
441.3	0.01
441.657	0.01
442.014	0
442.371	0.01
442.728	0
443.085	0
443.442	0.01
443.799	0
444.156	0.01
444.513	0
444.869	0.01
445.226	0.01
445.583	0.01
445.939	-0
446.296	0
446.652	0
447.009	0
447.365	0
447.722	0.01
448.078	0
448.434	-0.01
448.791	0
449.147	0
449.503	0
449.859	0
450.215	0
450.571	-0
450.928	-0.01
451.284	-0.01
451.64	-0.01
451.995	-0.01
452.351	-0
452.707	-0.01
453.063	-0.01
453.419	-0.01
453.775	-0.01
454.13	-0.01
454.486	-0.01
454.842	-0.02
455.197	-0.03
455.553	-0.01
455.908	-0.02
456.264	-0.02
456.619	-0.02
456.975	-0.02
457.33	-0.02
457.685	-0.03
458.04	-0.03
458.396	-0.03
458.751	-0.03
459.106	-0.03
459.461	-0.03
459.816	-0.03
460.171	-0.03
460.526	-0.03
460.881	-0.04
461.236	-0.04
461.591	-0.04
461.946	-0.04
462.301	-0.04
462.655	-0.04
463.01	-0.05
463.365	-0.05
463.719	-0.05
464.074	-0.06
464.428	-0.06
464.783	-0.06
465.137	-0.06
465.492	-0.06
465.846	-0.06
466.201	-0.06
466.555	-0.06
466.909	-0.06
467.263	-0.06
467.618	-0.05
467.972	-0.06
468.326	-0.07
468.68	-0.07
469.034	-0.06
469.388	-0.07
469.742	-0.07
470.096	-0.07
470.45	-0.06
470.804	-0.07
471.157	-0.07
471.511	-0.07
471.865	-0.06
472.218	-0.06
472.572	-0.06
472.926	-0.06
473.279	-0.06
473.633	-0.05
473.986	-0.06
474.34	-0.05
474.693	-0.05
475.046	-0.05
475.4	-0.05
475.753	-0.04
476.106	-0.04
476.459	-0.04
476.812	-0.04
477.165	-0.03
477.519	-0.03
477.872	-0.03
478.224	-0.03
478.577	-0.03
478.93	-0.02
479.283	-0.02
479.636	-0.02
479.989	-0.02
480.341	-0.02
480.694	-0.02
481.047	-0.02
481.399	-0.02
481.752	-0.01
482.104	-0.01
482.457	-0.01
482.809	-0.01
483.162	-0.01
483.514	-0.01
483.866	-0.01
484.219	-0.01
484.571	-0
484.923	-0
485.275	-0
485.627	-0
485.979	-0
486.331	-0
486.683	-0
487.035	0
487.387	-0
487.739	0
488.091	0
488.443	-0
488.794	-0
489.146	0
489.498	0.01
489.849	0
490.201	0
490.552	0
490.904	0
491.255	0
491.607	0
491.958	0
492.309	0
492.661	0.01
493.012	0
493.363	0.01
493.714	0.01
494.065	0.01
494.416	0.01
494.767	0.01
495.118	0.01
495.469	0
495.82	0.01
496.171	0.01
496.522	0.01
496.872	0.01
497.223	0.01
497.574	0.01
497.924	0.01
498.275	0.01
498.626	0.01
498.976	0.01
499.327	0.01
499.677	0.01
500.027	0.01
500.378	0.01
500.728	0.01
501.078	0.01
501.428	0.01
501.779	0.01
502.129	0.02
502.479	0.02
502.829	0.02
503.179	0.02
503.529	0.02
503.879	0.01
504.229	0.01
504.578	0.02
504.928	0.02
505.278	0.02
505.628	0.02
505.977	0.02
506.327	0.02
506.676	0.02
507.026	0.02
507.375	0.02
507.725	0.02
508.074	0.02
508.424	0.02
508.773	0.02
509.122	0.02
509.471	0.02
509.82	0.02
510.17	0.02
510.519	0.02
510.868	0.02
511.217	0.02
511.566	0.02
511.915	0.02
512.263	0.02
512.612	0.02
512.961	0.02
513.31	0.02
513.659	0.02
514.007	0.03
514.356	0.02
514.704	0.02
515.053	0.02
515.401	0.02
515.75	0.03
516.098	0.03
516.447	0.03
516.795	0.03
517.143	0.03
517.491	0.02
517.839	0.03
518.188	0.03
518.536	0.03
518.884	0.03
519.232	0.03
519.58	0.03
519.928	0.03
520.275	0.03
520.623	0.03
520.971	0.02
521.319	0.03
521.666	0.03
522.014	0.03
522.362	0.03
522.709	0.03
523.057	0.03
523.404	0.03
523.752	0.03
524.099	0.03
524.446	0.03
524.794	0.03
525.141	0.03
525.488	0.03
525.835	0.03
526.182	0.03
526.529	0.04
526.876	0.04
527.223	0.03
527.57	0.03
527.917	0.03
528.264	0.03
528.611	0.04
528.958	0.04
529.304	0.03
529.651	0.04
529.998	0.04
530.344	0.04
530.691	0.04
531.037	0.04
531.384	0.04
531.73	0.04
532.076	0.04
532.423	0.04
532.769	0.04
533.115	0.04
533.461	0.04
533.807	0.04
534.154	0.04
534.5	0.04
534.846	0.04
535.192	0.05
535.537	0.04
535.883	0.04
536.229	0.04
536.575	0.04
536.921	0.05
537.266	0.04
537.612	0.04
537.957	0.05
538.303	0.05
538.649	0.05
538.994	0.05
539.339	0.05
539.685	0.05
540.03	0.05
540.375	0.05
540.721	0.05
541.066	0.05
541.411	0.05
541.756	0.04
542.101	0.05
542.446	0.05
542.791	0.05
543.136	0.05
543.481	0.05
543.825	0.05
544.17	0.05
544.515	0.05
544.86	0.06
545.204	0.05
545.549	0.05
545.893	0.05
546.238	0.05
546.582	0.05
546.927	0.05
547.271	0.06
547.615	0.06
547.96	0.06
548.304	0.06
548.648	0.06
548.992	0.05
549.336	0.06
549.68	0.06
550.024	0.06
550.368	0.06
550.712	0.06
551.056	0.06
551.4	0.06
551.743	0.06
552.087	0.06
552.431	0.06
552.774	0.06
553.118	0.06
553.462	0.06
553.805	0.06
554.148	0.06
554.492	0.06
554.835	0.06
555.178	0.06
555.522	0.06
555.865	0.06
556.208	0.06
556.551	0.06
556.894	0.07
557.237	0.06
557.58	0.06
557.923	0.06
558.266	0.07
558.609	0.07
558.952	0.06
559.294	0.06
559.637	0.06
559.98	0.06
560.322	0.06
560.665	0.07
561.007	0.07
561.35	0.07
561.692	0.07
562.034	0.07
562.377	0.07
562.719	0.07
563.061	0.07
563.403	0.07
563.745	0.06
564.088	0.06
564.43	0.07
564.772	0.07
565.113	0.07
565.455	0.07
565.797	0.06
566.139	0.07
566.481	0.07
566.822	0.07
567.164	0.07
567.506	0.07
567.847	0.07
568.189	0.07
568.53	0.07
568.872	0.07
569.213	0.07
569.554	0.07
569.895	0.07
570.237	0.07
570.578	0.07
570.919	0.07
571.26	0.07
571.601	0.07
571.942	0.07
572.283	0.07
572.624	0.07
572.965	0.06
573.306	0.07
573.646	0.06
573.987	0.06
574.328	0.07
574.668	0.07
575.009	0.07
575.349	0.07
575.69	0.07
576.03	0.07
576.37	0.06
576.711	0.06
577.051	0.06
577.391	0.06
577.731	0.07
578.072	0.07
578.412	0.07
578.752	0.07
579.092	0.06
579.431	0.06
579.771	0.05
580.111	0.04
580.451	0.04
580.791	0.06
581.13	0.06
581.47	0.07
581.81	0.07
582.149	0.06
582.489	0.06
582.828	0.06
583.167	0.04
583.507	0.01
583.846	0.01
584.185	0.02
584.525	0.04
584.864	0.06
585.203	0.07
585.542	0.07
585.881	0.07
586.22	0.07
586.559	0.07
586.898	0.06
587.236	0.06
587.575	0.05
587.914	0.06
588.252	0.07
588.591	0.07
588.93	0.07
589.268	0.07
589.607	0.07
589.945	0.07
590.283	0.07
590.622	0.07
590.96	0.07
591.298	0.08
591.636	0.08
591.974	0.07
592.313	0.08
592.651	0.08
592.989	0.07
593.326	0.08
593.664	0.08
594.002	0.08
594.34	0.08
594.678	0.07
595.015	0.07
595.353	0.07
595.691	0.07
596.028	0.08
596.366	0.08
596.703	0.08
597.04	0.08
597.378	0.08
597.715	0.08
598.052	0.08
598.389	0.08
598.726	0.08
599.064	0.08
599.401	0.08
599.738	0.08
600.074	0.09
600.411	0.08
600.748	0.08
601.085	0.08
601.422	0.08
601.758	0.08
602.095	0.08
602.432	0.08
602.768	0.08
603.105	0.08
603.441	0.08
603.777	0.08
604.114	0.08
604.45	0.08
604.786	0.08
605.122	0.08
605.459	0.09
605.795	0.08
606.131	0.08
606.467	0.08
606.803	0.09
607.139	0.09
607.474	0.09
607.81	0.08
608.146	0.09
608.482	0.08
608.817	0.08
609.153	0.08
609.488	0.08
609.824	0.08
610.159	0.08
610.495	0.08
610.83	0.08
611.165	0.09
611.5	0.08
611.836	0.08
612.171	0.08
612.506	0.09
612.841	0.08
613.176	0.08
613.511	0.08
613.845	0.08
614.18	0.08
614.515	0.08
614.85	0.08
615.184	0.08
615.519	0.08
615.854	0.08
616.188	0.08
616.523	0.08
616.857	0.08
617.191	0.08
617.526	0.08
617.86	0.08
618.194	0.08
618.528	0.08
618.862	0.08
619.196	0.08
619.53	0.08
619.864	0.08
620.198	0.08
620.532	0.08
620.866	0.08
621.2	0.08
621.533	0.08
621.867	0.08
622.201	0.08
622.534	0.08
622.868	0.08
623.201	0.08
623.534	0.08
623.868	0.07
624.201	0.07
624.534	0.07
624.868	0.08
625.201	0.07
625.534	0.08
625.867	0.08
626.2	0.08
626.533	0.07
626.865	0.07
627.198	0.07
627.531	0.07
627.864	0.07
628.196	0.07
628.529	0.07
628.862	0.07
629.194	0.08
629.527	0.08
629.859	0.08
630.191	0.07
630.524	0.08
630.856	0.07
631.188	0.07
631.52	0.07
631.852	0.07
632.184	0.07
632.516	0.07
632.848	0.07
633.18	0.07
633.512	0.07
633.844	0.07
634.175	0.07
634.507	0.06
634.839	0.06
635.17	0.06
635.502	0.06
635.833	0.06
636.165	0.06
636.496	0.06
636.827	0.06
637.159	0.06
637.49	0.06
637.821	0.06
638.152	0.06
638.483	0.06
638.814	0.06
639.145	0.06
639.476	0.06
639.807	0.06
640.137	0.06
640.468	0.05
640.799	0.05
641.129	0.06
641.46	0.06
641.791	0.05
642.121	0.05
642.451	0.05
642.782	0.05
643.112	0.05
643.442	0.05
643.773	0.05
644.103	0.06
644.433	0.05
644.763	0.05
645.093	0.06
645.423	0.06
645.753	0.06
646.082	0.05
646.412	0.05
646.742	0.05
647.072	0.05
647.401	0.05
647.731	0.05
648.06	0.05
648.39	0.05
648.719	0.05
649.048	0.05
649.378	0.05
649.707	0.05
650.036	0.05
650.365	0.05
650.694	0.05
651.023	0.04
651.352	0.04
651.681	0.04
652.01	0.04
652.339	0.04
652.668	0.05
652.996	0.05
653.325	0.05
653.654	0.05
653.982	0.05
654.311	0.04
654.639	0.04
654.967	0.05
655.296	0.05
655.624	0.05
655.952	0.05
656.28	0.05
656.609	0.05
656.937	0.04
657.265	0.05
657.593	0
657.92	0
658.248	0
658.576	0
658.904	0
659.231	0.01
659.559	0.04
659.887	0.04
660.214	0.04
660.542	0.04
660.869	0.04
661.196	0.05
661.524	0.05
661.851	0.04
662.178	0.04
662.505	0.05
662.832	0.05
663.159	0.05
663.486	0.05
663.813	0.05
664.14	0.05
664.467	0.04
664.794	0.05
665.12	0.05
665.447	0.04
665.774	0.05
666.1	0.04
666.427	0.04
666.753	0.04
667.079	0.04
667.406	0.04
667.732	0.04
668.058	0.04
668.384	0.04
668.71	0.04
669.036	0.04
669.362	0.04
669.688	0.04
670.014	0.04
670.34	0.04
670.666	0.04
670.991	0.04
671.317	0.04
671.643	0.04
671.968	0.04
672.294	0.04
672.619	0.04
672.945	0.04
673.27	0.04
673.595	0.04
673.92	0.04
674.246	0.04
674.571	0.04
674.896	0.04
675.221	0.04
675.546	0.04
675.87	0.04
676.195	0.04
676.52	0.03
676.845	0.03
677.169	0.03
677.494	0.03
677.819	0.03
678.143	0.04
678.468	0.03
678.792	0.04
679.116	0.03
679.44	0.03
679.765	0.03
680.089	0.03
680.413	0.03
680.737	0.03
681.061	0.03
681.385	0.03
681.709	0.04
682.033	0.04
682.356	0.03
682.68	0.03
683.004	0.03
683.327	0.03
683.651	0.03
683.974	0.03
684.298	0.03
684.621	0.03
684.944	0.03
685.268	0.03
685.591	0.03
685.914	0.03
686.237	0.03
686.56	0.03
686.883	0.03
687.206	0.03
687.529	0.03
687.852	0.03
688.175	0.03
688.497	0.03
688.82	0.03
689.142	0.03
689.465	0.03
689.787	0.03
690.11	0.03
690.432	0.03
690.755	0.03
691.077	0.02
691.399	0.02
691.721	0.03
692.043	0.02
692.365	0.02
692.687	0.02
693.009	0.02
693.331	0.02
693.653	0.02
693.974	0.02
694.296	0.02
694.618	0.02
694.939	0.02
695.261	0.02
695.582	0.02
695.904	0.02
696.225	0.02
696.546	0.02
696.868	0.02
697.189	0.02
697.51	0.02
697.831	0.02
698.152	0.02
698.473	0.02
698.794	0.02
699.114	0.02
699.435	0.01
699.756	0.02
700.077	0.02
700.397	0.02
700.718	0.02
701.038	0.02
701.359	0.02
701.679	0.02
701.999	0.01
702.32	0.01
702.64	0.01
702.96	0.01
703.28	0.01
703.6	0.01
703.92	0.01
704.24	0.01
704.56	0.01
704.879	0.01
705.199	0.02
705.519	0.02
705.838	0.02
706.158	0.02
706.478	0.02
706.797	0.01
707.116	0.01
707.436	0.01
707.755	0.01
708.074	0.01
708.393	0.01
708.712	0.01
709.031	0.01
709.35	0.01
709.669	0.01
709.988	0.01
710.307	0.01
710.626	0.01
710.944	0.01
711.263	0.01
711.582	0.01
711.9	0.02
712.219	0.01
712.537	0.02
712.855	0.01
713.174	0.01
713.492	0.01
713.81	0.02
714.128	0.02
714.446	0.02
714.764	0.01
715.082	0.01
715.4	0.01
715.718	0.01
716.035	0.01
716.353	0.01
716.671	0.01
716.988	0.01
717.306	0.01
717.623	0.01
717.941	0.01
718.258	0.02
718.575	0.02
718.893	0.02
719.21	0.02
719.527	0.01
719.844	0.01
720.161	0.02
720.478	0.01
720.795	0.02
721.112	0.02
721.428	0.02
721.745	0.01
722.062	0.01
722.378	0.01
722.695	0.01
723.011	0.01
723.328	0.01
723.644	0.01
723.96	0.01
724.276	0.01
724.593	0.01
724.909	0.01
725.225	0.01
725.541	0.01
725.857	0.01
726.173	0.01
726.488	0.01
726.804	0.01
727.12	0.01
727.435	0.01
727.751	0.01
728.067	0.01
728.382	0.02
728.697	0.02
729.013	0.02
729.328	0.02
729.643	0.02
729.958	0.02
730.273	0.02
730.588	0.02
730.903	0.02
731.218	0.02
731.533	0.02
731.848	0.02
732.163	0.02
732.477	0.02
732.792	0.02
733.107	0.02
733.421	0.02
733.736	0.02
734.05	0.02
734.364	0.02
734.678	0.02
734.993	0.02
735.307	0.02
735.621	0.02
735.935	0.02
736.249	0.02
736.563	0.02
736.877	0.02
737.19	0.02
737.504	0.02
737.818	0.02
738.131	0.02
738.445	0.02
738.758	0.02
739.072	0.02
739.385	0.02
739.698	0.02
740.012	0.02
740.325	0.02
740.638	0.02
740.951	0.02
741.264	0.02
741.577	0.02
741.89	0.02
742.203	0.02
742.515	0.02
742.828	0.02
743.141	0.02
743.453	0.02
743.766	0.02
744.078	0.01
744.391	0.01
744.703	0.01
745.015	0.01
745.327	0.01
745.639	0.01
745.952	0.01
746.264	0.01
746.575	0.01
746.887	0.01
747.199	0.01
747.511	0.01
747.823	0.01
748.134	0.01
748.446	0.02
748.757	0.02
749.069	0.02
749.38	0.02
749.692	0.02
750.003	0.01
750.314	0.02
750.625	0.01
750.936	0.01
751.248	0.01
751.559	0.01
751.869	0.01
752.18	0.01
752.491	0.01
752.802	0.01
753.112	0.01
753.423	0.01
753.734	0.01
754.044	0.01
754.355	0.01
754.665	0.01
754.975	0.01
755.285	0
755.596	0
755.906	0
756.216	0.01
756.526	0.01
756.836	0.01
757.146	0.01
757.455	0.01
757.765	0.01
758.075	0.01
758.385	0
758.694	0
759.004	0
759.313	0
759.622	0
759.932	0
760.241	0.01
760.55	0
760.859	0
761.168	0.01
761.477	0
761.786	0.01
762.095	0.01
762.404	0.01
762.713	0.01
763.021	0.01
763.33	0.01
763.639	0.01
763.947	0.01
764.256	0.01
764.564	0.01
764.872	0.01
765.181	0.01
765.489	0.01
765.797	0.01
766.105	0.01
766.413	0.01
766.721	0.01
767.029	0.01
767.337	0.01
767.644	0.01
767.952	0.01
768.26	0.01
768.567	0.01
768.875	0.01
769.182	0
769.49	0.01
769.797	0.01
770.104	0.01
770.411	0.01
770.718	0.01
771.026	0.01
771.333	0.01
771.639	0.01
771.946	0.01
772.253	0.01
772.56	0.01
772.867	0.01
773.173	0.01
773.48	0.01
773.786	0.01
774.093	0.01
774.399	0.01
774.705	0.01
775.012	0.01
775.318	0.01
775.624	0.01
775.93	0.01
776.236	0.01
776.542	0.01
776.848	0.01
777.154	0.01
777.459	0.01
777.765	0.01
778.071	0.01
778.376	0.01
778.682	0.01
778.987	0.01
779.292	0.01
779.598	0
779.903	0
780.208	0
780.513	0
780.818	-0
781.123	0
781.428	0
781.733	0
782.038	0
782.343	0
782.647	0
782.952	0
783.256	0.01
783.561	0.01
783.865	0.01
784.17	0
784.474	0
784.778	0
785.082	0.01
785.386	-0
785.69	0
785.994	-0
786.298	0
786.602	0
786.906	-0
787.209	0
787.513	0
787.817	0
788.12	0.01
788.424	0.01
788.727	0
789.03	0.01
789.333	0.01
789.637	0.01
789.94	0.01
790.243	0.01
790.546	0.01
790.849	0.01
791.152	0.01
791.454	0.01
791.757	0.01
792.06	0.01
792.362	0.01
792.665	0.01
792.967	0.01
793.27	0.01
793.572	0.01
793.874	0.01
794.177	0.01
794.479	0
794.781	0.01
795.083	0
795.385	0
795.687	0
795.989	0
796.29	0.01
796.592	0
796.894	0.01
797.195	0
797.497	0
797.798	0
798.1	0
798.401	0
798.702	0
799.003	0
799.304	0.01
799.605	0.01
799.906	0.01
800.207	0
800.508	0
800.809	0
801.11	0.01
801.41	0.01
801.711	0.01
802.011	0.01
802.312	0.01
802.612	0.01
802.913	0.01
803.213	0.01
803.513	0.01
803.813	0.01
804.113	0.01
804.413	0.01
804.713	0.01
805.013	0
805.313	0
805.613	0.01
805.912	0
806.212	0.01
806.511	-0
806.811	-0
807.11	-0
807.41	-0.01
807.709	-0.01
808.008	-0
808.307	-0
808.606	-0
808.905	-0
809.204	0
809.503	0
809.802	0
810.101	0
810.399	0
810.698	-0
810.997	-0
811.295	0
811.593	0.01
811.892	0.01
812.19	0.01
812.488	0.01
812.786	0.01
813.084	0.01
813.383	0.01
813.68	0.01
813.978	0.01
814.276	0.01
814.574	0.01
814.872	0.01
815.169	0.01
815.467	0.01
815.764	0.01
816.062	0.01
816.359	0.01
816.656	0.01
816.954	0
817.251	0.01
817.548	0
817.845	-0
818.142	-0
818.439	0
818.735	0.01
819.032	0
819.329	0
819.626	-0
819.922	-0.01
820.219	0
820.515	-0
820.811	0
821.108	0
821.404	0.01
821.7	0.01
821.996	-0
822.292	0.01
822.588	-0
822.884	0
823.18	0.01
823.475	0.01
823.771	0.01
824.067	0.01
824.362	0.01
824.658	0.01
824.953	0.01
825.249	0.01
825.544	0.01
825.839	0.01
826.134	0
826.429	0
826.724	0.01
827.019	0.01
827.314	0
827.609	0
827.904	0.01
828.198	0.01
828.493	0.01
828.787	0.01
829.082	0.01
829.376	0
829.671	-0
829.965	0
830.259	-0
830.553	0.01
830.847	0
831.141	0.01
831.435	0
831.729	0
832.023	0
832.317	0
832.61	0.01
832.904	0.01
833.197	0.01
833.491	0.02
833.784	0.02
834.077	0.02
834.371	0.02
834.664	0.02
834.957	0.02
835.25	0.01
835.543	0.01
835.836	0.01
836.129	0.01
836.421	0.02
836.714	0.01
837.007	0.01
837.299	0
837.592	0.01
837.884	-0
838.177	0.01
838.469	0.01
838.761	0
839.053	0.01
839.345	0.01
839.637	0
839.929	-0.01
840.221	-0
840.513	-0
840.805	0
841.096	0
841.388	0.01
841.68	0.01
841.971	0.01
842.262	-0
842.554	0.01
842.845	0
843.136	0.01
843.427	0.01
843.718	0
844.009	0.01
844.3	0.01
844.591	0.01
844.882	0.01
845.173	0.01
845.463	0.01
845.754	0
846.044	0.01
846.335	-0
846.625	0
846.915	0
847.206	0.02
847.496	0.01
847.786	0.01
848.076	0.01
848.366	0.01
848.656	0.01
848.945	0.01
849.235	0.03
849.525	0.02
849.814	0.01
850.104	0.01
850.393	0
850.683	0.01
850.972	0.01
851.261	0.02
851.551	0
851.84	0
852.129	-0
852.418	0
852.707	0
852.995	0.01
853.284	0.01
853.573	-0.01
853.862	0
854.15	-0
854.439	0.01
854.727	0.01
855.015	-0
855.304	-0
855.592	0.01
855.88	0
856.168	0.01
856.456	-0.01
856.744	0.01
857.032	-0.01
857.32	-0.01
857.607	0
857.895	0
858.183	0
858.47	0.02
858.757	0
859.045	0.01
859.332	-0
859.619	0.01
859.907	0.01
860.194	0.02
860.481	0.01
860.768	0.01
861.054	0.01
861.341	0
861.628	0.03
861.915	0.01
862.201	0.02
862.488	0.01
862.774	0
863.061	0.01
863.347	0.01
863.633	0
863.919	0.01
864.205	0.01
864.491	0.01
864.777	0.03
865.063	0.01
865.349	0.01
865.635	-0.01
865.92	0.01
866.206	0.02
866.492	0.04
866.777	0.02
867.062	0.01
867.348	0.02
867.633	-0
867.918	0
868.203	0.02
868.488	0.04
868.773	0.03
869.058	0.01
869.343	0
869.628	0
869.912	-0.04
870.197	0.01
870.482	0.03
870.766	-0.02
871.05	-0.03
871.335	0.01
871.619	-0
871.903	-0.04
872.187	-0
872.471	0.03
872.755	0.05
873.039	0.02
873.323	0.01
873.607	-0.03
873.89	-0.03
874.174	-0.07
874.458	-0.06
874.741	-0.04
875.024	0.04
875.308	-0.08
875.591	-0
875.874	0.03
876.157	0.03
876.44	-0.02
876.723	0.07
877.006	0.01
877.289	0.02
877.572	0.02
877.854	0.01
878.137	-0.02
878.42	-0.02
878.702	0.04
878.984	0
879.267	-0.03
879.549	0.11
879.831	-0.11
880.113	-0.04
880.395	-0
880.677	0.03
880.959	0.08
