Data from Rubpy_EV_1200_EDTA_Buffered_Absorbance_14-38-35-683.txt Node
Date: Tue Jun 30 14:38:35 BST 2026
User: fpm-admin
Spectrometer: OFX00224
Trigger mode: 0
Integration Time (sec): 7.000000E-2
Scans to average: 3
Nonlinearity correction enabled: false
Boxcar width: 0
Storing dark spectrum: false
XAxis mode: Wavelengths
Number of Pixels in Spectrum: 2136
>>>>>Begin Spectral Data<<<<<
154.91	-0.16
155.289	-0.21
155.669	-0.5
156.048	-0.16
156.428	-0
156.807	0.12
157.186	0.98
157.566	-0
157.945	0.1
158.325	-0.38
158.704	-0.18
159.083	-0
159.462	-0.18
159.842	-0.23
160.221	-0
160.6	0.21
160.979	-0.15
161.359	-0.24
161.738	0.1
162.117	-0.05
162.496	-0
162.875	-0.31
163.254	0.13
163.633	-0
164.012	0.21
164.391	-0
164.77	-1.72
165.149	0.85
165.528	-0
165.907	0.4
166.286	-0
166.665	0.28
167.044	-0.4
167.423	0.49
167.802	-0
168.181	-0
168.559	-0
168.938	-0.33
169.317	-0.54
169.696	-1.45
170.074	-0
170.453	-0
170.832	-0.64
171.21	-0.09
171.589	-0
171.968	-0.12
172.346	0.42
172.725	-0.85
173.103	-0
173.482	0.63
173.861	1.36
174.239	0.44
174.617	0.03
174.996	-0.78
175.374	-0.37
175.753	-0.89
176.131	-0
176.51	-0
176.888	-0
177.266	-0
177.645	0.02
178.023	0.58
178.401	-0.35
178.779	0.11
179.158	-0.04
179.536	0.09
179.914	-0.22
180.292	-0.7
180.67	-0
181.048	-0
181.427	0.2
181.805	-0
182.183	0.1
182.561	-1.66
182.939	-0.54
183.317	-0
183.695	0.02
184.073	-0.3
184.451	-0.3
184.829	0.28
185.206	0.27
185.584	0.29
185.962	-0.43
186.34	0.43
186.718	0.45
187.096	0.24
187.473	0.63
187.851	-0.44
188.229	-0
188.607	0.19
188.984	0.21
189.362	0.25
189.74	0.24
190.117	0.15
190.495	0.2
190.872	0.13
191.25	0.39
191.627	0.24
192.005	0.18
192.382	0.24
192.76	0.07
193.137	0.44
193.515	0.2
193.892	0.61
194.269	0.25
194.647	0.22
195.024	0.39
195.401	0.2
195.779	0.2
196.156	0.29
196.533	0.36
196.91	0.17
197.288	0.19
197.665	0.31
198.042	0.28
198.419	0.38
198.796	0.2
199.173	0.2
199.55	0.15
199.927	0.23
200.304	0.17
200.681	0.36
201.058	0.21
201.435	0.13
201.812	0.29
202.189	0.23
202.566	0.27
202.943	0.26
203.32	0.24
203.697	0.21
204.073	0.53
204.45	0.29
204.827	0.28
205.204	0.21
205.58	0.32
205.957	0.21
206.334	0.24
206.71	0.29
207.087	0.36
207.464	0.21
207.84	0.23
208.217	0.31
208.593	0.34
208.97	0.23
209.346	0.33
209.723	0.27
210.099	0.25
210.476	0.31
210.852	0.24
211.228	0.33
211.605	0.36
211.981	0.26
212.357	0.23
212.733	0.34
213.11	0.25
213.486	0.09
213.862	0.19
214.238	0.28
214.614	0.16
214.991	0.37
215.367	0.31
215.743	0.5
216.119	0.22
216.495	0.27
216.871	0.2
217.247	0.2
217.623	0.27
217.999	0.44
218.375	0.26
218.751	0.21
219.127	0.36
219.502	0.19
219.878	0.21
220.254	0.31
220.63	0.32
221.006	0.31
221.381	0.27
221.757	0.19
222.133	0.27
222.508	0.23
222.884	0.47
223.26	0.31
223.635	0.21
224.011	0.21
224.386	0.29
224.762	0.26
225.137	0.21
225.513	0.28
225.888	0.19
226.264	0.22
226.639	0.27
227.014	0.27
227.39	0.31
227.765	0.18
228.14	0.37
228.516	0.43
228.891	0.27
229.266	0.31
229.641	0.32
230.017	0.47
230.392	0.25
230.767	0.35
231.142	0.32
231.517	0.34
231.892	0.27
232.267	0.34
232.642	0.36
233.017	0.31
233.392	0.28
233.767	0.23
234.142	0.24
234.517	0.22
234.892	0.5
235.267	0.34
235.641	0.31
236.016	0.13
236.391	0.45
236.766	0.21
237.14	0.36
237.515	0.3
237.89	0.2
238.264	0.23
238.639	0.13
239.014	0.34
239.388	0.38
239.763	0.27
240.137	0.21
240.512	0.42
240.886	0.26
241.261	0.16
241.635	0.31
242.009	0.3
242.384	0.22
242.758	0.28
243.132	0.22
243.507	0.37
243.881	0.22
244.255	0.39
244.629	0.3
245.004	0.25
245.378	0.4
245.752	0.31
246.126	0.43
246.5	0.28
246.874	0.36
247.248	0.4
247.622	0.39
247.996	0.35
248.37	0.31
248.744	0.3
249.118	0.3
249.492	0.52
249.866	0.23
250.24	0.34
250.613	0.37
250.987	0.26
251.361	0.28
251.735	0.33
252.108	0.29
252.482	0.44
252.856	0.18
253.229	0.31
253.603	0.22
253.977	0.37
254.35	0.2
254.724	0.33
255.097	0.35
255.471	0.3
255.844	0.29
256.218	0.19
256.591	0.23
256.964	0.31
257.338	0.25
257.711	0.23
258.084	0.31
258.458	0.22
258.831	0.27
259.204	0.42
259.577	0.27
259.95	0.27
260.323	0.33
260.697	0.38
261.07	0.26
261.443	0.2
261.816	0.3
262.189	0.39
262.562	0.39
262.935	0.24
263.308	0.24
263.68	0.26
264.053	0.26
264.426	0.37
264.799	0.28
265.172	0.3
265.545	0.29
265.917	0.31
266.29	0.21
266.663	0.38
267.035	0.27
267.408	0.24
267.781	0.33
268.153	0.31
268.526	0.43
268.898	0.34
269.271	0.32
269.643	0.32
270.016	0.28
270.388	0.34
270.76	0.3
271.133	0.35
271.505	0.3
271.877	0.28
272.25	0.31
272.622	0.3
272.994	0.36
273.366	0.29
273.739	0.4
274.111	0.28
274.483	0.32
274.855	0.23
275.227	0.24
275.599	0.29
275.971	0.19
276.343	0.41
276.715	0.36
277.087	0.29
277.459	0.32
277.831	0.27
278.203	0.22
278.574	0.24
278.946	0.32
279.318	0.3
279.69	0.31
280.061	0.38
280.433	0.37
280.805	0.28
281.176	0.33
281.548	0.34
281.92	0.27
282.291	0.28
282.663	0.33
283.034	0.23
283.406	0.3
283.777	0.35
284.148	0.33
284.52	0.32
284.891	0.35
285.262	0.33
285.634	0.32
286.005	0.39
286.376	0.33
286.747	0.25
287.119	0.3
287.49	0.33
287.861	0.28
288.232	0.2
288.603	0.33
288.974	0.2
289.345	0.36
289.716	0.28
290.087	0.28
290.458	0.35
290.829	0.5
291.2	0.4
291.571	0.32
291.941	0.33
292.312	0.3
292.683	0.29
293.054	0.31
293.424	0.36
293.795	0.31
294.166	0.31
294.536	0.28
294.907	0.33
295.277	0.32
295.648	0.34
296.018	0.32
296.389	0.33
296.759	0.26
297.13	0.27
297.5	0.24
297.871	0.36
298.241	0.29
298.611	0.37
298.981	0.33
299.352	0.3
299.722	0.23
300.092	0.28
300.462	0.29
300.832	0.29
301.202	0.28
301.573	0.22
301.943	0.22
302.313	0.25
302.683	0.25
303.053	0.25
303.422	0.22
303.792	0.27
304.162	0.23
304.532	0.24
304.902	0.26
305.272	0.26
305.641	0.27
306.011	0.27
306.381	0.26
306.75	0.27
307.12	0.3
307.49	0.28
307.859	0.28
308.229	0.29
308.598	0.29
308.968	0.29
309.337	0.3
309.707	0.32
310.076	0.32
310.445	0.31
310.815	0.31
311.184	0.32
311.553	0.32
311.923	0.32
312.292	0.33
312.661	0.33
313.03	0.33
313.399	0.33
313.768	0.33
314.137	0.34
314.506	0.33
314.875	0.33
315.244	0.33
315.613	0.33
315.982	0.33
316.351	0.33
316.72	0.33
317.089	0.32
317.458	0.33
317.826	0.32
318.195	0.32
318.564	0.32
318.933	0.32
319.301	0.32
319.67	0.31
320.038	0.31
320.407	0.31
320.775	0.31
321.144	0.3
321.512	0.3
321.881	0.29
322.249	0.29
322.618	0.29
322.986	0.29
323.354	0.29
323.723	0.29
324.091	0.28
324.459	0.28
324.827	0.28
325.195	0.28
325.564	0.28
325.932	0.28
326.3	0.29
326.668	0.28
327.036	0.28
327.404	0.27
327.772	0.28
328.14	0.28
328.508	0.28
328.875	0.27
329.243	0.28
329.611	0.28
329.979	0.29
330.346	0.29
330.714	0.28
331.082	0.29
331.449	0.29
331.817	0.29
332.185	0.29
332.552	0.3
332.92	0.3
333.287	0.3
333.655	0.31
334.022	0.31
334.389	0.31
334.757	0.32
335.124	0.32
335.491	0.33
335.859	0.33
336.226	0.33
336.593	0.33
336.96	0.34
337.327	0.34
337.695	0.34
338.062	0.35
338.429	0.35
338.796	0.36
339.163	0.36
339.53	0.37
339.897	0.38
340.263	0.38
340.63	0.39
340.997	0.4
341.364	0.41
341.731	0.41
342.097	0.42
342.464	0.42
342.831	0.43
343.197	0.43
343.564	0.45
343.931	0.45
344.297	0.46
344.664	0.46
345.03	0.46
345.396	0.48
345.763	0.48
346.129	0.48
346.496	0.5
346.862	0.5
347.228	0.51
347.594	0.52
347.961	0.52
348.327	0.53
348.693	0.54
349.059	0.55
349.425	0.55
349.791	0.57
350.157	0.57
350.523	0.59
350.889	0.6
351.255	0.61
351.621	0.62
351.987	0.62
352.353	0.64
352.719	0.65
353.084	0.67
353.45	0.68
353.816	0.69
354.181	0.7
354.547	0.71
354.913	0.73
355.278	0.75
355.644	0.76
356.009	0.78
356.375	0.79
356.74	0.8
357.106	0.82
357.471	0.83
357.836	0.85
358.202	0.87
358.567	0.89
358.932	0.9
359.297	0.91
359.663	0.93
360.028	0.94
360.393	0.95
360.758	0.97
361.123	0.98
361.488	0.99
361.853	1.01
362.218	1
362.583	1.02
362.948	1.02
363.312	1.04
363.677	1.05
364.042	1.08
364.407	1.09
364.772	1.11
365.136	1.13
365.501	1.13
365.865	1.17
366.23	1.17
366.595	1.19
366.959	1.22
367.324	1.25
367.688	1.29
368.052	1.27
368.417	1.3
368.781	1.3
369.145	1.33
369.51	1.32
369.874	1.32
370.238	1.32
370.602	1.34
370.967	1.33
371.331	1.3
371.695	1.31
372.059	1.29
372.423	1.29
372.787	1.3
373.151	1.29
373.515	1.29
373.878	1.29
374.242	1.28
374.606	1.29
374.97	1.28
375.334	1.27
375.697	1.29
376.061	1.29
376.425	1.3
376.788	1.3
377.152	1.31
377.515	1.33
377.879	1.33
378.242	1.34
378.606	1.35
378.969	1.36
379.333	1.38
379.696	1.39
380.059	1.41
380.422	1.43
380.786	1.46
381.149	1.46
381.512	1.51
381.875	1.53
382.238	1.56
382.601	1.61
382.964	1.63
383.327	1.66
383.69	1.68
384.053	1.72
384.416	1.74
384.779	1.75
385.142	1.79
385.504	1.84
385.867	1.8
386.23	1.84
386.593	1.87
386.955	1.87
387.318	1.87
387.68	1.86
388.043	1.81
388.405	1.84
388.768	1.84
389.13	1.81
389.493	1.78
389.855	1.81
390.217	1.78
390.58	1.78
390.942	1.81
391.304	1.82
391.666	1.82
392.028	1.85
392.391	1.89
392.753	1.92
393.115	1.92
393.477	1.99
393.839	1.96
394.201	2.04
394.563	2.07
394.924	2.13
395.286	2.14
395.648	2.13
396.01	2.17
396.371	2.11
396.733	2.18
397.095	2.19
397.456	2.12
397.818	2.07
398.18	2.12
398.541	2.14
398.903	2.19
399.264	2.07
399.625	2.07
399.987	2.05
400.348	2.08
400.709	2.06
401.071	1.97
401.432	1.89
401.793	1.8
402.154	1.76
402.515	1.63
402.876	1.57
403.238	1.44
403.599	1.37
403.96	1.27
404.32	1.18
404.681	1.11
405.042	1.04
405.403	0.97
405.764	0.9
406.125	0.84
406.485	0.79
406.846	0.74
407.207	0.7
407.567	0.66
407.928	0.63
408.288	0.58
408.649	0.55
409.009	0.51
409.37	0.49
409.73	0.47
410.091	0.45
410.451	0.42
410.811	0.41
411.171	0.4
411.532	0.37
411.892	0.36
412.252	0.35
412.612	0.33
412.972	0.31
413.332	0.31
413.692	0.3
414.052	0.29
414.412	0.28
414.772	0.27
415.132	0.26
415.492	0.25
415.851	0.25
416.211	0.24
416.571	0.23
416.931	0.23
417.29	0.22
417.65	0.22
418.009	0.21
418.369	0.21
418.728	0.21
419.088	0.21
419.447	0.21
419.807	0.19
420.166	0.19
420.525	0.19
420.884	0.18
421.244	0.18
421.603	0.18
421.962	0.17
422.321	0.17
422.68	0.16
423.039	0.16
423.398	0.16
423.757	0.16
424.116	0.16
424.475	0.15
424.834	0.15
425.193	0.15
425.551	0.15
425.91	0.15
426.269	0.15
426.628	0.14
426.986	0.14
427.345	0.14
427.703	0.14
428.062	0.14
428.42	0.13
428.779	0.13
429.137	0.14
429.496	0.13
429.854	0.13
430.212	0.13
430.57	0.13
430.929	0.13
431.287	0.13
431.645	0.13
432.003	0.12
432.361	0.12
432.719	0.12
433.077	0.12
433.435	0.12
433.793	0.12
434.151	0.12
434.509	0.12
434.866	0.11
435.224	0.12
435.582	0.12
435.94	0.11
436.297	0.11
436.655	0.11
437.012	0.12
437.37	0.11
437.727	0.11
438.085	0.1
438.442	0.11
438.8	0.11
439.157	0.1
439.514	0.11
439.872	0.1
440.229	0.1
440.586	0.1
440.943	0.1
441.3	0.1
441.657	0.1
442.014	0.1
442.371	0.09
442.728	0.1
443.085	0.1
443.442	0.09
443.799	0.09
444.156	0.09
444.513	0.09
444.869	0.1
445.226	0.09
445.583	0.09
445.939	0.09
446.296	0.09
446.652	0.09
447.009	0.09
447.365	0.09
447.722	0.09
448.078	0.08
448.434	0.08
448.791	0.09
449.147	0.08
449.503	0.09
449.859	0.08
450.215	0.08
450.571	0.08
450.928	0.07
451.284	0.08
451.64	0.07
451.995	0.07
452.351	0.08
452.707	0.07
453.063	0.07
453.419	0.07
453.775	0.07
454.13	0.07
454.486	0.07
454.842	0.06
455.197	0.05
455.553	0.07
455.908	0.07
456.264	0.05
456.619	0.06
456.975	0.06
457.33	0.06
457.685	0.05
458.04	0.05
458.396	0.05
458.751	0.05
459.106	0.05
459.461	0.05
459.816	0.05
460.171	0.05
460.526	0.05
460.881	0.04
461.236	0.04
461.591	0.04
461.946	0.04
462.301	0.04
462.655	0.03
463.01	0.03
463.365	0.03
463.719	0.03
464.074	0.03
464.428	0.02
464.783	0.02
465.137	0.01
465.492	0.02
465.846	0.02
466.201	0.02
466.555	0.01
466.909	0.02
467.263	0.01
467.618	0.02
467.972	0.03
468.326	0.01
468.68	0.02
469.034	0.02
469.388	0.02
469.742	0.01
470.096	0.02
470.45	0.02
470.804	0.02
471.157	0.02
471.511	0.02
471.865	0.02
472.218	0.02
472.572	0.03
472.926	0.02
473.279	0.03
473.633	0.04
473.986	0.04
474.34	0.04
474.693	0.05
475.046	0.06
475.4	0.05
475.753	0.06
476.106	0.07
476.459	0.07
476.812	0.07
477.165	0.08
477.519	0.07
477.872	0.09
478.224	0.09
478.577	0.09
478.93	0.09
479.283	0.09
479.636	0.1
479.989	0.1
480.341	0.1
480.694	0.1
481.047	0.11
481.399	0.11
481.752	0.12
482.104	0.12
482.457	0.12
482.809	0.12
483.162	0.13
483.514	0.13
483.866	0.12
484.219	0.13
484.571	0.14
484.923	0.14
485.275	0.14
485.627	0.14
485.979	0.14
486.331	0.15
486.683	0.15
487.035	0.15
487.387	0.15
487.739	0.15
488.091	0.16
488.443	0.16
488.794	0.16
489.146	0.16
489.498	0.17
489.849	0.17
490.201	0.17
490.552	0.17
490.904	0.17
491.255	0.17
491.607	0.18
491.958	0.18
492.309	0.18
492.661	0.19
493.012	0.18
493.363	0.19
493.714	0.19
494.065	0.2
494.416	0.2
494.767	0.2
495.118	0.2
495.469	0.2
495.82	0.2
496.171	0.21
496.522	0.21
496.872	0.21
497.223	0.22
497.574	0.21
497.924	0.22
498.275	0.22
498.626	0.22
498.976	0.23
499.327	0.23
499.677	0.23
500.027	0.23
500.378	0.24
500.728	0.24
501.078	0.24
501.428	0.25
501.779	0.25
502.129	0.25
502.479	0.25
502.829	0.25
503.179	0.26
503.529	0.26
503.879	0.26
504.229	0.27
504.578	0.27
504.928	0.27
505.278	0.27
505.628	0.28
505.977	0.28
506.327	0.29
506.676	0.28
507.026	0.28
507.375	0.28
507.725	0.3
508.074	0.3
508.424	0.29
508.773	0.3
509.122	0.3
509.471	0.3
509.82	0.3
510.17	0.31
510.519	0.31
510.868	0.32
511.217	0.32
511.566	0.32
511.915	0.32
512.263	0.33
512.612	0.33
512.961	0.33
513.31	0.34
513.659	0.33
514.007	0.34
514.356	0.34
514.704	0.35
515.053	0.35
515.401	0.35
515.75	0.36
516.098	0.36
516.447	0.36
516.795	0.37
517.143	0.36
517.491	0.36
517.839	0.37
518.188	0.38
518.536	0.38
518.884	0.38
519.232	0.38
519.58	0.38
519.928	0.39
520.275	0.39
520.623	0.4
520.971	0.39
521.319	0.4
521.666	0.4
522.014	0.41
522.362	0.41
522.709	0.41
523.057	0.41
523.404	0.41
523.752	0.42
524.099	0.41
524.446	0.42
524.794	0.43
525.141	0.43
525.488	0.43
525.835	0.43
526.182	0.44
526.529	0.44
526.876	0.44
527.223	0.45
527.57	0.45
527.917	0.45
528.264	0.45
528.611	0.46
528.958	0.46
529.304	0.46
529.651	0.47
529.998	0.47
530.344	0.47
530.691	0.48
531.037	0.48
531.384	0.48
531.73	0.49
532.076	0.49
532.423	0.49
532.769	0.5
533.115	0.5
533.461	0.5
533.807	0.51
534.154	0.51
534.5	0.51
534.846	0.52
535.192	0.52
535.537	0.52
535.883	0.53
536.229	0.53
536.575	0.53
536.921	0.54
537.266	0.54
537.612	0.54
537.957	0.55
538.303	0.55
538.649	0.55
538.994	0.56
539.339	0.56
539.685	0.57
540.03	0.58
540.375	0.58
540.721	0.58
541.066	0.58
541.411	0.58
541.756	0.58
542.101	0.6
542.446	0.6
542.791	0.61
543.136	0.61
543.481	0.61
543.825	0.62
544.17	0.61
544.515	0.62
544.86	0.63
545.204	0.63
545.549	0.63
545.893	0.64
546.238	0.64
546.582	0.64
546.927	0.65
547.271	0.66
547.615	0.66
547.96	0.66
548.304	0.67
548.648	0.67
548.992	0.67
549.336	0.67
549.68	0.68
550.024	0.68
550.368	0.69
550.712	0.69
551.056	0.69
551.4	0.7
551.743	0.7
552.087	0.7
552.431	0.71
552.774	0.71
553.118	0.72
553.462	0.71
553.805	0.72
554.148	0.72
554.492	0.72
554.835	0.72
555.178	0.72
555.522	0.73
555.865	0.73
556.208	0.73
556.551	0.73
556.894	0.74
557.237	0.73
557.58	0.74
557.923	0.75
558.266	0.74
558.609	0.75
558.952	0.75
559.294	0.76
559.637	0.76
559.98	0.75
560.322	0.76
560.665	0.76
561.007	0.76
561.35	0.77
561.692	0.76
562.034	0.77
562.377	0.77
562.719	0.77
563.061	0.77
563.403	0.78
563.745	0.78
564.088	0.78
564.43	0.78
564.772	0.78
565.113	0.78
565.455	0.78
565.797	0.78
566.139	0.79
566.481	0.78
566.822	0.79
567.164	0.79
567.506	0.79
567.847	0.79
568.189	0.8
568.53	0.79
568.872	0.8
569.213	0.8
569.554	0.8
569.895	0.8
570.237	0.8
570.578	0.81
570.919	0.8
571.26	0.8
571.601	0.8
571.942	0.8
572.283	0.8
572.624	0.8
572.965	0.8
573.306	0.8
573.646	0.8
573.987	0.8
574.328	0.8
574.668	0.8
575.009	0.8
575.349	0.8
575.69	0.8
576.03	0.81
576.37	0.8
576.711	0.8
577.051	0.8
577.391	0.8
577.731	0.81
578.072	0.81
578.412	0.81
578.752	0.81
579.092	0.81
579.431	0.8
579.771	0.79
580.111	0.78
580.451	0.79
580.791	0.81
581.13	0.81
581.47	0.81
581.81	0.82
582.149	0.82
582.489	0.82
582.828	0.81
583.167	0.79
583.507	0.75
583.846	0.74
584.185	0.77
584.525	0.8
584.864	0.82
585.203	0.83
585.542	0.84
585.881	0.84
586.22	0.85
586.559	0.84
586.898	0.83
587.236	0.83
587.575	0.82
587.914	0.83
588.252	0.85
588.591	0.86
588.93	0.86
589.268	0.86
589.607	0.86
589.945	0.87
590.283	0.87
590.622	0.88
590.96	0.88
591.298	0.89
591.636	0.89
591.974	0.89
592.313	0.9
592.651	0.9
592.989	0.9
593.326	0.91
593.664	0.91
594.002	0.92
594.34	0.91
594.678	0.92
595.015	0.92
595.353	0.91
595.691	0.92
596.028	0.93
596.366	0.94
596.703	0.94
597.04	0.94
597.378	0.94
597.715	0.95
598.052	0.95
598.389	0.96
598.726	0.96
599.064	0.96
599.401	0.97
599.738	0.97
600.074	0.97
600.411	0.97
600.748	0.97
601.085	0.97
601.422	0.96
601.758	0.97
602.095	0.97
602.432	0.97
602.768	0.97
603.105	0.97
603.441	0.98
603.777	0.98
604.114	0.98
604.45	0.98
604.786	0.98
605.122	0.98
605.459	0.98
605.795	0.98
606.131	0.98
606.467	0.98
606.803	0.98
607.139	0.98
607.474	0.97
607.81	0.97
608.146	0.97
608.482	0.97
608.817	0.97
609.153	0.96
609.488	0.96
609.824	0.95
610.159	0.96
610.495	0.95
610.83	0.96
611.165	0.95
611.5	0.95
611.836	0.94
612.171	0.95
612.506	0.94
612.841	0.94
613.176	0.94
613.511	0.94
613.845	0.93
614.18	0.93
614.515	0.93
614.85	0.93
615.184	0.92
615.519	0.92
615.854	0.92
616.188	0.92
616.523	0.91
616.857	0.91
617.191	0.91
617.526	0.91
617.86	0.91
618.194	0.89
618.528	0.9
618.862	0.9
619.196	0.89
619.53	0.9
619.864	0.89
620.198	0.89
620.532	0.89
620.866	0.88
621.2	0.88
621.533	0.88
621.867	0.88
622.201	0.87
622.534	0.87
622.868	0.87
623.201	0.86
623.534	0.86
623.868	0.85
624.201	0.86
624.534	0.84
624.868	0.85
625.201	0.84
625.534	0.84
625.867	0.83
626.2	0.83
626.533	0.83
626.865	0.82
627.198	0.82
627.531	0.81
627.864	0.81
628.196	0.81
628.529	0.81
628.862	0.81
629.194	0.8
629.527	0.79
629.859	0.79
630.191	0.79
630.524	0.79
630.856	0.78
631.188	0.78
631.52	0.77
631.852	0.76
632.184	0.76
632.516	0.75
632.848	0.74
633.18	0.74
633.512	0.73
633.844	0.73
634.175	0.73
634.507	0.72
634.839	0.71
635.17	0.71
635.502	0.7
635.833	0.69
636.165	0.69
636.496	0.68
636.827	0.68
637.159	0.67
637.49	0.67
637.821	0.66
638.152	0.66
638.483	0.65
638.814	0.65
639.145	0.64
639.476	0.64
639.807	0.63
640.137	0.63
640.468	0.63
640.799	0.62
641.129	0.62
641.46	0.61
641.791	0.6
642.121	0.6
642.451	0.6
642.782	0.6
643.112	0.59
643.442	0.59
643.773	0.58
644.103	0.58
644.433	0.57
644.763	0.57
645.093	0.57
645.423	0.57
645.753	0.56
646.082	0.56
646.412	0.56
646.742	0.56
647.072	0.55
647.401	0.55
647.731	0.55
648.06	0.55
648.39	0.55
648.719	0.54
649.048	0.55
649.378	0.54
649.707	0.54
650.036	0.53
650.365	0.53
650.694	0.53
651.023	0.52
651.352	0.52
651.681	0.52
652.01	0.52
652.339	0.52
652.668	0.52
652.996	0.53
653.325	0.53
653.654	0.53
653.982	0.52
654.311	0.52
654.639	0.52
654.967	0.52
655.296	0.52
655.624	0.52
655.952	0.52
656.28	0.52
656.609	0.51
656.937	0.51
657.265	0.52
657.593	0.42
657.92	0.29
658.248	0.24
658.576	0.25
658.904	0.36
659.231	0.45
659.559	0.5
659.887	0.51
660.214	0.51
660.542	0.51
660.869	0.51
661.196	0.51
661.524	0.51
661.851	0.51
662.178	0.51
662.505	0.51
662.832	0.5
663.159	0.5
663.486	0.5
663.813	0.51
664.14	0.5
664.467	0.5
664.794	0.5
665.12	0.5
665.447	0.5
665.774	0.49
666.1	0.49
666.427	0.49
666.753	0.49
667.079	0.48
667.406	0.48
667.732	0.48
668.058	0.48
668.384	0.48
668.71	0.48
669.036	0.48
669.362	0.48
669.688	0.47
670.014	0.47
670.34	0.47
670.666	0.47
670.991	0.47
671.317	0.46
671.643	0.46
671.968	0.46
672.294	0.46
672.619	0.45
672.945	0.45
673.27	0.45
673.595	0.45
673.92	0.44
674.246	0.44
674.571	0.44
674.896	0.43
675.221	0.43
675.546	0.43
675.87	0.43
676.195	0.42
676.52	0.42
676.845	0.42
677.169	0.42
677.494	0.41
677.819	0.42
678.143	0.41
678.468	0.4
678.792	0.4
679.116	0.4
679.44	0.4
679.765	0.39
680.089	0.39
680.413	0.39
680.737	0.38
681.061	0.38
681.385	0.38
681.709	0.37
682.033	0.37
682.356	0.37
682.68	0.36
683.004	0.35
683.327	0.35
683.651	0.35
683.974	0.34
684.298	0.34
684.621	0.34
684.944	0.33
685.268	0.33
685.591	0.33
685.914	0.32
686.237	0.32
686.56	0.32
686.883	0.31
687.206	0.31
687.529	0.3
687.852	0.3
688.175	0.3
688.497	0.3
688.82	0.3
689.142	0.29
689.465	0.29
689.787	0.29
690.11	0.29
690.432	0.28
690.755	0.28
691.077	0.27
691.399	0.27
691.721	0.27
692.043	0.26
692.365	0.26
692.687	0.26
693.009	0.25
693.331	0.25
693.653	0.25
693.974	0.24
694.296	0.24
694.618	0.24
694.939	0.24
695.261	0.24
695.582	0.23
695.904	0.23
696.225	0.23
696.546	0.23
696.868	0.22
697.189	0.22
697.51	0.22
697.831	0.21
698.152	0.21
698.473	0.21
698.794	0.21
699.114	0.2
699.435	0.19
699.756	0.19
700.077	0.19
700.397	0.19
700.718	0.19
701.038	0.19
701.359	0.19
701.679	0.19
701.999	0.19
702.32	0.19
702.64	0.18
702.96	0.18
703.28	0.18
703.6	0.18
703.92	0.18
704.24	0.18
704.56	0.17
704.879	0.18
705.199	0.18
705.519	0.18
705.838	0.18
706.158	0.18
706.478	0.18
706.797	0.17
707.116	0.17
707.436	0.17
707.755	0.17
708.074	0.17
708.393	0.16
708.712	0.16
709.031	0.15
709.35	0.15
709.669	0.15
709.988	0.15
710.307	0.15
710.626	0.16
710.944	0.16
711.263	0.16
711.582	0.16
711.9	0.16
712.219	0.16
712.537	0.16
712.855	0.16
713.174	0.16
713.492	0.16
713.81	0.16
714.128	0.16
714.446	0.16
714.764	0.16
715.082	0.15
715.4	0.16
715.718	0.16
716.035	0.16
716.353	0.16
716.671	0.16
716.988	0.16
717.306	0.16
717.623	0.16
717.941	0.16
718.258	0.16
718.575	0.16
718.893	0.16
719.21	0.16
719.527	0.16
719.844	0.16
720.161	0.16
720.478	0.16
720.795	0.16
721.112	0.17
721.428	0.17
721.745	0.17
722.062	0.17
722.378	0.17
722.695	0.17
723.011	0.17
723.328	0.17
723.644	0.17
723.96	0.17
724.276	0.17
724.593	0.17
724.909	0.17
725.225	0.17
725.541	0.17
725.857	0.17
726.173	0.17
726.488	0.17
726.804	0.17
727.12	0.17
727.435	0.18
727.751	0.18
728.067	0.18
728.382	0.18
728.697	0.18
729.013	0.18
729.328	0.18
729.643	0.18
729.958	0.18
730.273	0.18
730.588	0.18
730.903	0.18
731.218	0.19
731.533	0.18
731.848	0.18
732.163	0.18
732.477	0.18
732.792	0.18
733.107	0.17
733.421	0.18
733.736	0.18
734.05	0.18
734.364	0.18
734.678	0.18
734.993	0.18
735.307	0.18
735.621	0.18
735.935	0.18
736.249	0.18
736.563	0.18
736.877	0.18
737.19	0.18
737.504	0.18
737.818	0.18
738.131	0.18
738.445	0.18
738.758	0.18
739.072	0.18
739.385	0.18
739.698	0.18
740.012	0.18
740.325	0.17
740.638	0.17
740.951	0.17
741.264	0.17
741.577	0.17
741.89	0.17
742.203	0.17
742.515	0.17
742.828	0.17
743.141	0.17
743.453	0.17
743.766	0.16
744.078	0.16
744.391	0.16
744.703	0.16
745.015	0.16
745.327	0.15
745.639	0.15
745.952	0.15
746.264	0.15
746.575	0.15
746.887	0.15
747.199	0.15
747.511	0.14
747.823	0.14
748.134	0.14
748.446	0.14
748.757	0.14
749.069	0.14
749.38	0.13
749.692	0.13
750.003	0.13
750.314	0.13
750.625	0.13
750.936	0.12
751.248	0.12
751.559	0.12
751.869	0.12
752.18	0.12
752.491	0.12
752.802	0.12
753.112	0.11
753.423	0.11
753.734	0.11
754.044	0.11
754.355	0.11
754.665	0.11
754.975	0.1
755.285	0.1
755.596	0.1
755.906	0.1
756.216	0.1
756.526	0.1
756.836	0.1
757.146	0.1
757.455	0.1
757.765	0.09
758.075	0.09
758.385	0.08
758.694	0.08
759.004	0.08
759.313	0.08
759.622	0.08
759.932	0.08
760.241	0.08
760.55	0.07
760.859	0.08
761.168	0.08
761.477	0.08
761.786	0.07
762.095	0.07
762.404	0.07
762.713	0.07
763.021	0.07
763.33	0.07
763.639	0.07
763.947	0.07
764.256	0.07
764.564	0.07
764.872	0.07
765.181	0.07
765.489	0.07
765.797	0.07
766.105	0.07
766.413	0.07
766.721	0.07
767.029	0.07
767.337	0.07
767.644	0.06
767.952	0.06
768.26	0.06
768.567	0.07
768.875	0.06
769.182	0.06
769.49	0.06
769.797	0.06
770.104	0.06
770.411	0.06
770.718	0.06
771.026	0.06
771.333	0.06
771.639	0.06
771.946	0.06
772.253	0.06
772.56	0.06
772.867	0.05
773.173	0.05
773.48	0.05
773.786	0.05
774.093	0.05
774.399	0.05
774.705	0.06
775.012	0.05
775.318	0.05
775.624	0.05
775.93	0.05
776.236	0.05
776.542	0.05
776.848	0.05
777.154	0.05
777.459	0.05
777.765	0.05
778.071	0.05
778.376	0.05
778.682	0.05
778.987	0.05
779.292	0.05
779.598	0.05
779.903	0.05
780.208	0.04
780.513	0.04
780.818	0.04
781.123	0.04
781.428	0.04
781.733	0.04
782.038	0.04
782.343	0.04
782.647	0.04
782.952	0.04
783.256	0.05
783.561	0.04
783.865	0.05
784.17	0.05
784.474	0.05
784.778	0.04
785.082	0.05
785.386	0.04
785.69	0.05
785.994	0.04
786.298	0.05
786.602	0.04
786.906	0.04
787.209	0.04
787.513	0.04
787.817	0.04
788.12	0.05
788.424	0.05
788.727	0.04
789.03	0.05
789.333	0.04
789.637	0.05
789.94	0.05
790.243	0.05
790.546	0.05
790.849	0.05
791.152	0.05
791.454	0.05
791.757	0.05
792.06	0.05
792.362	0.05
792.665	0.05
792.967	0.04
793.27	0.04
793.572	0.04
793.874	0.04
794.177	0.04
794.479	0.04
794.781	0.04
795.083	0.04
795.385	0.04
795.687	0.04
795.989	0.04
796.29	0.04
796.592	0.04
796.894	0.05
797.195	0.05
797.497	0.05
797.798	0.05
798.1	0.05
798.401	0.05
798.702	0.04
799.003	0.05
799.304	0.05
799.605	0.05
799.906	0.05
800.207	0.05
800.508	0.04
800.809	0.04
801.11	0.05
801.41	0.05
801.711	0.05
802.011	0.05
802.312	0.05
802.612	0.05
802.913	0.05
803.213	0.05
803.513	0.04
803.813	0.05
804.113	0.04
804.413	0.04
804.713	0.04
805.013	0.04
805.313	0.04
805.613	0.04
805.912	0.04
806.212	0.04
806.511	0.03
806.811	0.03
807.11	0.03
807.41	0.03
807.709	0.03
808.008	0.03
808.307	0.03
808.606	0.04
808.905	0.04
809.204	0.04
809.503	0.04
809.802	0.04
810.101	0.04
810.399	0.04
810.698	0.04
810.997	0.04
811.295	0.04
811.593	0.04
811.892	0.04
812.19	0.04
812.488	0.05
812.786	0.04
813.084	0.04
813.383	0.04
813.68	0.04
813.978	0.04
814.276	0.04
814.574	0.04
814.872	0.04
815.169	0.05
815.467	0.05
815.764	0.05
816.062	0.05
816.359	0.04
816.656	0.04
816.954	0.04
817.251	0.04
817.548	0.04
817.845	0.03
818.142	0.04
818.439	0.04
818.735	0.05
819.032	0.04
819.329	0.04
819.626	0.04
819.922	0.04
820.219	0.04
820.515	0.04
820.811	0.04
821.108	0.04
821.404	0.04
821.7	0.05
821.996	0.04
822.292	0.05
822.588	0.04
822.884	0.05
823.18	0.05
823.475	0.05
823.771	0.04
824.067	0.05
824.362	0.05
824.658	0.05
824.953	0.05
825.249	0.05
825.544	0.05
825.839	0.05
826.134	0.04
826.429	0.05
826.724	0.04
827.019	0.05
827.314	0.05
827.609	0.04
827.904	0.05
828.198	0.04
828.493	0.04
828.787	0.04
829.082	0.04
829.376	0.04
829.671	0.04
829.965	0.05
830.259	0.04
830.553	0.05
830.847	0.05
831.141	0.05
831.435	0.04
831.729	0.04
832.023	0.04
832.317	0.04
832.61	0.05
832.904	0.05
833.197	0.06
833.491	0.05
833.784	0.06
834.077	0.06
834.371	0.05
834.664	0.06
834.957	0.06
835.25	0.05
835.543	0.05
835.836	0.06
836.129	0.06
836.421	0.06
836.714	0.06
837.007	0.04
837.299	0.05
837.592	0.05
837.884	0.04
838.177	0.05
838.469	0.05
838.761	0.05
839.053	0.05
839.345	0.05
839.637	0.04
839.929	0.02
840.221	0.03
840.513	0.04
840.805	0.04
841.096	0.04
841.388	0.05
841.68	0.05
841.971	0.04
842.262	0.05
842.554	0.06
842.845	0.04
843.136	0.04
843.427	0.05
843.718	0.05
844.009	0.04
844.3	0.05
844.591	0.05
844.882	0.04
845.173	0.05
845.463	0.05
845.754	0.05
846.044	0.05
846.335	0.05
846.625	0.05
846.915	0.05
847.206	0.05
847.496	0.04
847.786	0.05
848.076	0.05
848.366	0.05
848.656	0.05
848.945	0.04
849.235	0.05
849.525	0.05
849.814	0.04
850.104	0.06
850.393	0.05
850.683	0.04
850.972	0.06
851.261	0.06
851.551	0.04
851.84	0.05
852.129	0.04
852.418	0.05
852.707	0.05
852.995	0.03
853.284	0.05
853.573	0.03
853.862	0.04
854.15	0.04
854.439	0.05
854.727	0.05
855.015	0.03
855.304	0.04
855.592	0.04
855.88	0.05
856.168	0.04
856.456	0.04
856.744	0.05
857.032	0.03
857.32	0.03
857.607	0.04
857.895	0.04
858.183	0.05
858.47	0.06
858.757	0.05
859.045	0.04
859.332	0.04
859.619	0.04
859.907	0.05
860.194	0.06
860.481	0.04
860.768	0.06
861.054	0.04
861.341	0.04
861.628	0.05
861.915	0.06
862.201	0.05
862.488	0.05
862.774	0.03
863.061	0.02
863.347	0.05
863.633	0.03
863.919	0.03
864.205	0.03
864.491	0.04
864.777	0.05
865.063	0.02
865.349	0.03
865.635	0.02
865.92	0.04
866.206	0.05
866.492	0.04
866.777	0.08
867.062	0.04
867.348	0.06
867.633	0.06
867.918	0.02
868.203	0.04
868.488	0.06
868.773	0.06
869.058	0.05
869.343	0.07
869.628	0.01
869.912	0.01
870.197	0.03
870.482	0.04
870.766	0.01
871.05	0.05
871.335	0.02
871.619	0.02
871.903	0.03
872.187	0.04
872.471	0.05
872.755	0.02
873.039	0.07
873.323	0.01
873.607	0.01
873.89	0.01
874.174	-0.04
874.458	0
874.741	0.02
875.024	0.04
875.308	-0.02
875.591	0.04
875.874	0.03
876.157	-0.08
876.44	0.01
876.723	0.06
877.006	0.01
877.289	-0.03
877.572	0.12
877.854	0.03
878.137	0.08
878.42	0.01
878.702	0.07
878.984	0
879.267	-0.03
879.549	0.1
879.831	0.06
880.113	0.07
880.395	-0.02
880.677	0.04
880.959	-0.1
