Data from Rubpy_EV_1200_EDTA_Buffered_Absorbance_14-18-29-627.txt Node
Date: Tue Jun 30 14:18:29 BST 2026
User: fpm-admin
Spectrometer: OFX00224
Trigger mode: 0
Integration Time (sec): 7.000000E-2
Scans to average: 3
Nonlinearity correction enabled: false
Boxcar width: 0
Storing dark spectrum: false
XAxis mode: Wavelengths
Number of Pixels in Spectrum: 2136
>>>>>Begin Spectral Data<<<<<
154.91	-0.27
155.289	-0
155.669	-0.22
156.048	0.09
156.428	1.01
156.807	-0
157.186	-0.25
157.566	0.6
157.945	-0.24
158.325	-0.07
158.704	-0.07
159.083	-0.72
159.462	-0
159.842	-0.19
160.221	-0
160.6	0.51
160.979	0.45
161.359	-0.08
161.738	-0.73
162.117	-0
162.496	-0
162.875	-0.22
163.254	0.54
163.633	-1.15
164.012	0.36
164.391	-0
164.77	-1.26
165.149	-0.14
165.528	-0
165.907	1
166.286	-0.24
166.665	-0.02
167.044	-0.78
167.423	0.06
167.802	-0.24
168.181	-0
168.559	0.22
168.938	-0.6
169.317	-0.63
169.696	-1.28
170.074	-1.4
170.453	-0.2
170.832	-0.64
171.21	-0.08
171.589	-0.3
171.968	0.38
172.346	-0
172.725	0.3
173.103	-0
173.482	-0
173.861	0.16
174.239	0.06
174.617	-0
174.996	-0.68
175.374	-0.13
175.753	-0.18
176.131	-0
176.51	-0.19
176.888	-0
177.266	-0
177.645	-0.13
178.023	0.45
178.401	-0.38
178.779	0.12
179.158	0.25
179.536	0.44
179.914	0.1
180.292	-0
180.67	0.16
181.048	0.34
181.427	0.46
181.805	0.24
182.183	-0
182.561	-1.11
182.939	-0
183.317	0.34
183.695	0.37
184.073	-0
184.451	-0
184.829	0.26
185.206	0.29
185.584	0.55
185.962	-0.27
186.34	0.2
186.718	-0.38
187.096	-0
187.473	-0
187.851	0.3
188.229	-0
188.607	0.17
188.984	0.15
189.362	0.27
189.74	0.16
190.117	0.1
190.495	0.16
190.872	0.06
191.25	0.25
191.627	0.16
192.005	0.11
192.382	0.09
192.76	0.03
193.137	0.36
193.515	0.14
193.892	0.06
194.269	0.18
194.647	0.23
195.024	0.17
195.401	0.14
195.779	0.18
196.156	0.38
196.533	0.21
196.91	0.14
197.288	0.1
197.665	0.22
198.042	0.37
198.419	0.2
198.796	0.09
199.173	0.18
199.55	0.29
199.927	0.17
200.304	0.09
200.681	0.3
201.058	0.27
201.435	0.09
201.812	0.2
202.189	0.21
202.566	0.18
202.943	0.27
203.32	0.19
203.697	0.18
204.073	0.2
204.45	0.19
204.827	0.18
205.204	0.18
205.58	0.22
205.957	0.22
206.334	0.19
206.71	0.22
207.087	0.25
207.464	0.26
207.84	0.23
208.217	0.22
208.593	0.09
208.97	0.12
209.346	0.14
209.723	0.34
210.099	0.09
210.476	0.18
210.852	0.23
211.228	0.28
211.605	0.26
211.981	0.2
212.357	0.22
212.733	0.09
213.11	0.29
213.486	0.1
213.862	0.24
214.238	0.31
214.614	0.17
214.991	0.14
215.367	0.14
215.743	0.31
216.119	0.18
216.495	0.2
216.871	0.26
217.247	0.11
217.623	0.17
217.999	0.2
218.375	0.17
218.751	0.16
219.127	0.23
219.502	0.21
219.878	0.18
220.254	0.2
220.63	0.18
221.006	0.26
221.381	0.15
221.757	0.18
222.133	0.14
222.508	0.13
222.884	0.25
223.26	0.21
223.635	0.17
224.011	0.12
224.386	0.15
224.762	0.19
225.137	0.12
225.513	0.24
225.888	0.16
226.264	0.21
226.639	0.3
227.014	0.28
227.39	0.24
227.765	0.22
228.14	0.12
228.516	0.21
228.891	0.21
229.266	0.22
229.641	0.27
230.017	0.22
230.392	0.18
230.767	0.17
231.142	0.1
231.517	0.32
231.892	0.23
232.267	0.21
232.642	0.18
233.017	0.23
233.392	0.26
233.767	0.16
234.142	0.22
234.517	0.19
234.892	0.3
235.267	0.12
235.641	0.13
236.016	0.18
236.391	0.16
236.766	0.07
237.14	0.3
237.515	0.27
237.89	0.3
238.264	0.2
238.639	0.23
239.014	0.23
239.388	0.28
239.763	0.23
240.137	0.19
240.512	0.25
240.886	0.17
241.261	0.14
241.635	0.13
242.009	0.2
242.384	0.21
242.758	0.19
243.132	0.21
243.507	0.3
243.881	0.09
244.255	0.21
244.629	0.2
245.004	0.18
245.378	0.25
245.752	0.23
246.126	0.12
246.5	0.11
246.874	0.3
247.248	0.17
247.622	0.24
247.996	0.19
248.37	0.18
248.744	0.23
249.118	0.21
249.492	0.31
249.866	0.26
250.24	0.3
250.613	0.12
250.987	0.25
251.361	0.25
251.735	0.19
252.108	0.21
252.482	0.24
252.856	0.14
253.229	0.14
253.603	0.18
253.977	0.2
254.35	0.18
254.724	0.3
255.097	0.23
255.471	0.16
255.844	0.2
256.218	0.2
256.591	0.22
256.964	0.22
257.338	0.16
257.711	0.18
258.084	0.25
258.458	0.22
258.831	0.21
259.204	0.31
259.577	0.17
259.95	0.14
260.323	0.29
260.697	0.3
261.07	0.18
261.443	0.2
261.816	0.16
262.189	0.26
262.562	0.26
262.935	0.22
263.308	0.24
263.68	0.18
264.053	0.24
264.426	0.21
264.799	0.19
265.172	0.28
265.545	0.25
265.917	0.2
266.29	0.16
266.663	0.26
267.035	0.28
267.408	0.26
267.781	0.2
268.153	0.3
268.526	0.21
268.898	0.2
269.271	0.2
269.643	0.23
270.016	0.2
270.388	0.31
270.76	0.25
271.133	0.25
271.505	0.23
271.877	0.25
272.25	0.2
272.622	0.17
272.994	0.25
273.366	0.29
273.739	0.22
274.111	0.16
274.483	0.21
274.855	0.16
275.227	0.23
275.599	0.23
275.971	0.21
276.343	0.26
276.715	0.22
277.087	0.2
277.459	0.11
277.831	0.22
278.203	0.24
278.574	0.22
278.946	0.27
279.318	0.21
279.69	0.2
280.061	0.27
280.433	0.28
280.805	0.21
281.176	0.24
281.548	0.18
281.92	0.16
282.291	0.21
282.663	0.25
283.034	0.19
283.406	0.24
283.777	0.27
284.148	0.2
284.52	0.29
284.891	0.22
285.262	0.26
285.634	0.19
286.005	0.27
286.376	0.19
286.747	0.22
287.119	0.25
287.49	0.24
287.861	0.2
288.232	0.22
288.603	0.27
288.974	0.17
289.345	0.28
289.716	0.23
290.087	0.26
290.458	0.21
290.829	0.19
291.2	0.17
291.571	0.22
291.941	0.22
292.312	0.16
292.683	0.25
293.054	0.23
293.424	0.18
293.795	0.26
294.166	0.17
294.536	0.22
294.907	0.25
295.277	0.23
295.648	0.18
296.018	0.23
296.389	0.24
296.759	0.17
297.13	0.21
297.5	0.14
297.871	0.28
298.241	0.22
298.611	0.22
298.981	0.2
299.352	0.2
299.722	0.18
300.092	0.22
300.462	0.19
300.832	0.21
301.202	0.19
301.573	0.14
301.943	0.15
302.313	0.18
302.683	0.16
303.053	0.17
303.422	0.15
303.792	0.19
304.162	0.15
304.532	0.16
304.902	0.15
305.272	0.17
305.641	0.18
306.011	0.18
306.381	0.17
306.75	0.17
307.12	0.19
307.49	0.19
307.859	0.19
308.229	0.19
308.598	0.19
308.968	0.2
309.337	0.2
309.707	0.21
310.076	0.2
310.445	0.21
310.815	0.21
311.184	0.21
311.553	0.22
311.923	0.21
312.292	0.22
312.661	0.22
313.03	0.22
313.399	0.22
313.768	0.21
314.137	0.22
314.506	0.21
314.875	0.22
315.244	0.21
315.613	0.22
315.982	0.21
316.351	0.22
316.72	0.21
317.089	0.21
317.458	0.21
317.826	0.22
318.195	0.21
318.564	0.21
318.933	0.21
319.301	0.21
319.67	0.2
320.038	0.2
320.407	0.2
320.775	0.19
321.144	0.19
321.512	0.2
321.881	0.18
322.249	0.19
322.618	0.19
322.986	0.19
323.354	0.19
323.723	0.18
324.091	0.18
324.459	0.18
324.827	0.18
325.195	0.18
325.564	0.18
325.932	0.18
326.3	0.18
326.668	0.18
327.036	0.18
327.404	0.18
327.772	0.18
328.14	0.18
328.508	0.18
328.875	0.18
329.243	0.17
329.611	0.17
329.979	0.19
330.346	0.18
330.714	0.17
331.082	0.19
331.449	0.18
331.817	0.19
332.185	0.18
332.552	0.19
332.92	0.19
333.287	0.19
333.655	0.19
334.022	0.19
334.389	0.19
334.757	0.19
335.124	0.2
335.491	0.21
335.859	0.2
336.226	0.2
336.593	0.2
336.96	0.21
337.327	0.22
337.695	0.21
338.062	0.22
338.429	0.22
338.796	0.22
339.163	0.22
339.53	0.23
339.897	0.23
340.263	0.24
340.63	0.24
340.997	0.25
341.364	0.25
341.731	0.25
342.097	0.26
342.464	0.26
342.831	0.27
343.197	0.27
343.564	0.28
343.931	0.28
344.297	0.29
344.664	0.29
345.03	0.3
345.396	0.3
345.763	0.3
346.129	0.31
346.496	0.31
346.862	0.31
347.228	0.32
347.594	0.32
347.961	0.32
348.327	0.33
348.693	0.34
349.059	0.34
349.425	0.34
349.791	0.36
350.157	0.36
350.523	0.37
350.889	0.37
351.255	0.38
351.621	0.39
351.987	0.39
352.353	0.41
352.719	0.41
353.084	0.42
353.45	0.42
353.816	0.44
354.181	0.44
354.547	0.45
354.913	0.46
355.278	0.47
355.644	0.48
356.009	0.49
356.375	0.5
356.74	0.51
357.106	0.52
357.471	0.53
357.836	0.54
358.202	0.55
358.567	0.56
358.932	0.57
359.297	0.59
359.663	0.59
360.028	0.6
360.393	0.6
360.758	0.61
361.123	0.63
361.488	0.63
361.853	0.64
362.218	0.64
362.583	0.66
362.948	0.66
363.312	0.67
363.677	0.68
364.042	0.69
364.407	0.7
364.772	0.71
365.136	0.73
365.501	0.74
365.865	0.75
366.23	0.76
366.595	0.78
366.959	0.8
367.324	0.82
367.688	0.83
368.052	0.84
368.417	0.86
368.781	0.87
369.145	0.88
369.51	0.87
369.874	0.88
370.238	0.88
370.602	0.88
370.967	0.88
371.331	0.88
371.695	0.88
372.059	0.87
372.423	0.86
372.787	0.86
373.151	0.85
373.515	0.86
373.878	0.86
374.242	0.85
374.606	0.85
374.97	0.85
375.334	0.86
375.697	0.86
376.061	0.87
376.425	0.87
376.788	0.87
377.152	0.88
377.515	0.9
377.879	0.89
378.242	0.91
378.606	0.91
378.969	0.93
379.333	0.94
379.696	0.95
380.059	0.96
380.422	0.97
380.786	0.99
381.149	1
381.512	1.03
381.875	1.05
382.238	1.07
382.601	1.1
382.964	1.12
383.327	1.15
383.69	1.18
384.053	1.21
384.416	1.23
384.779	1.26
385.142	1.27
385.504	1.31
385.867	1.33
386.23	1.34
386.593	1.34
386.955	1.33
387.318	1.35
387.68	1.36
388.043	1.34
388.405	1.34
388.768	1.33
389.13	1.29
389.493	1.29
389.855	1.29
390.217	1.3
390.58	1.29
390.942	1.3
391.304	1.29
391.666	1.33
392.028	1.33
392.391	1.37
392.753	1.4
393.115	1.44
393.477	1.49
393.839	1.52
394.201	1.57
394.563	1.63
394.924	1.7
395.286	1.72
395.648	1.75
396.01	1.81
396.371	1.81
396.733	1.83
397.095	1.84
397.456	1.85
397.818	1.84
398.18	1.84
398.541	1.84
398.903	1.83
399.264	1.76
399.625	1.71
399.987	1.67
400.348	1.62
400.709	1.57
401.071	1.49
401.432	1.41
401.793	1.33
402.154	1.26
402.515	1.18
402.876	1.1
403.238	1.02
403.599	0.94
403.96	0.88
404.32	0.82
404.681	0.76
405.042	0.72
405.403	0.66
405.764	0.61
406.125	0.58
406.485	0.54
406.846	0.5
407.207	0.47
407.567	0.44
407.928	0.42
408.288	0.4
408.649	0.38
409.009	0.35
409.37	0.34
409.73	0.32
410.091	0.3
410.451	0.29
410.811	0.28
411.171	0.26
411.532	0.26
411.892	0.24
412.252	0.23
412.612	0.23
412.972	0.21
413.332	0.21
413.692	0.2
414.052	0.2
414.412	0.19
414.772	0.18
415.132	0.18
415.492	0.17
415.851	0.17
416.211	0.16
416.571	0.15
416.931	0.15
417.29	0.15
417.65	0.14
418.009	0.14
418.369	0.14
418.728	0.14
419.088	0.14
419.447	0.14
419.807	0.13
420.166	0.13
420.525	0.12
420.884	0.12
421.244	0.12
421.603	0.11
421.962	0.12
422.321	0.11
422.68	0.11
423.039	0.11
423.398	0.1
423.757	0.11
424.116	0.1
424.475	0.1
424.834	0.11
425.193	0.1
425.551	0.1
425.91	0.1
426.269	0.1
426.628	0.11
426.986	0.1
427.345	0.1
427.703	0.09
428.062	0.1
428.42	0.09
428.779	0.09
429.137	0.09
429.496	0.09
429.854	0.09
430.212	0.09
430.57	0.09
430.929	0.09
431.287	0.09
431.645	0.09
432.003	0.08
432.361	0.08
432.719	0.08
433.077	0.08
433.435	0.08
433.793	0.08
434.151	0.08
434.509	0.08
434.866	0.08
435.224	0.07
435.582	0.07
435.94	0.08
436.297	0.07
436.655	0.07
437.012	0.08
437.37	0.08
437.727	0.07
438.085	0.07
438.442	0.08
438.8	0.07
439.157	0.07
439.514	0.08
439.872	0.07
440.229	0.08
440.586	0.07
440.943	0.07
441.3	0.06
441.657	0.07
442.014	0.07
442.371	0.07
442.728	0.06
443.085	0.06
443.442	0.07
443.799	0.06
444.156	0.06
444.513	0.05
444.869	0.07
445.226	0.06
445.583	0.06
445.939	0.05
446.296	0.06
446.652	0.06
447.009	0.06
447.365	0.06
447.722	0.05
448.078	0.05
448.434	0.06
448.791	0.05
449.147	0.05
449.503	0.05
449.859	0.06
450.215	0.05
450.571	0.05
450.928	0.05
451.284	0.04
451.64	0.04
451.995	0.05
452.351	0.04
452.707	0.03
453.063	0.04
453.419	0.04
453.775	0.05
454.13	0.05
454.486	0.03
454.842	0.04
455.197	0.03
455.553	0.03
455.908	0.03
456.264	0.03
456.619	0.03
456.975	0.04
457.33	0.02
457.685	0.02
458.04	0.02
458.396	0.02
458.751	0.02
459.106	0.02
459.461	0.02
459.816	0.02
460.171	0.02
460.526	0.01
460.881	0.01
461.236	0.01
461.591	-0
461.946	0
462.301	0
462.655	-0.01
463.01	-0.01
463.365	-0
463.719	-0.01
464.074	-0.01
464.428	-0.01
464.783	-0.01
465.137	-0.02
465.492	-0.01
465.846	-0.01
466.201	-0.01
466.555	-0.01
466.909	-0.02
467.263	-0.01
467.618	-0.01
467.972	-0.01
468.326	-0.02
468.68	-0.01
469.034	-0.02
469.388	-0.02
469.742	-0.02
470.096	-0.02
470.45	-0.02
470.804	-0.02
471.157	-0.01
471.511	-0.01
471.865	-0.02
472.218	-0.01
472.572	-0.01
472.926	-0.01
473.279	-0.01
473.633	0
473.986	0
474.34	0
474.693	0.01
475.046	0.01
475.4	0.01
475.753	0.02
476.106	0.03
476.459	0.02
476.812	0.03
477.165	0.03
477.519	0.03
477.872	0.04
478.224	0.04
478.577	0.04
478.93	0.04
479.283	0.05
479.636	0.05
479.989	0.05
480.341	0.05
480.694	0.05
481.047	0.05
481.399	0.06
481.752	0.07
482.104	0.07
482.457	0.07
482.809	0.07
483.162	0.07
483.514	0.07
483.866	0.07
484.219	0.07
484.571	0.07
484.923	0.07
485.275	0.08
485.627	0.08
485.979	0.08
486.331	0.08
486.683	0.08
487.035	0.09
487.387	0.09
487.739	0.09
488.091	0.09
488.443	0.09
488.794	0.09
489.146	0.1
489.498	0.1
489.849	0.1
490.201	0.1
490.552	0.1
490.904	0.1
491.255	0.1
491.607	0.1
491.958	0.11
492.309	0.11
492.661	0.11
493.012	0.11
493.363	0.11
493.714	0.11
494.065	0.12
494.416	0.12
494.767	0.11
495.118	0.12
495.469	0.12
495.82	0.12
496.171	0.13
496.522	0.13
496.872	0.13
497.223	0.13
497.574	0.13
497.924	0.13
498.275	0.14
498.626	0.13
498.976	0.14
499.327	0.14
499.677	0.14
500.027	0.15
500.378	0.14
500.728	0.15
501.078	0.15
501.428	0.15
501.779	0.15
502.129	0.16
502.479	0.16
502.829	0.16
503.179	0.16
503.529	0.16
503.879	0.16
504.229	0.16
504.578	0.17
504.928	0.17
505.278	0.17
505.628	0.17
505.977	0.18
506.327	0.18
506.676	0.18
507.026	0.18
507.375	0.18
507.725	0.18
508.074	0.18
508.424	0.18
508.773	0.19
509.122	0.19
509.471	0.19
509.82	0.19
510.17	0.2
510.519	0.2
510.868	0.2
511.217	0.2
511.566	0.2
511.915	0.21
512.263	0.21
512.612	0.21
512.961	0.21
513.31	0.21
513.659	0.22
514.007	0.22
514.356	0.22
514.704	0.22
515.053	0.22
515.401	0.22
515.75	0.22
516.098	0.23
516.447	0.23
516.795	0.23
517.143	0.23
517.491	0.23
517.839	0.24
518.188	0.24
518.536	0.24
518.884	0.24
519.232	0.24
519.58	0.25
519.928	0.24
520.275	0.25
520.623	0.25
520.971	0.25
521.319	0.26
521.666	0.26
522.014	0.25
522.362	0.26
522.709	0.26
523.057	0.26
523.404	0.26
523.752	0.27
524.099	0.26
524.446	0.27
524.794	0.27
525.141	0.27
525.488	0.27
525.835	0.27
526.182	0.28
526.529	0.28
526.876	0.29
527.223	0.28
527.57	0.29
527.917	0.29
528.264	0.29
528.611	0.29
528.958	0.29
529.304	0.3
529.651	0.3
529.998	0.3
530.344	0.3
530.691	0.31
531.037	0.31
531.384	0.31
531.73	0.31
532.076	0.32
532.423	0.32
532.769	0.32
533.115	0.32
533.461	0.33
533.807	0.32
534.154	0.33
534.5	0.33
534.846	0.34
535.192	0.34
535.537	0.34
535.883	0.34
536.229	0.34
536.575	0.35
536.921	0.35
537.266	0.35
537.612	0.35
537.957	0.35
538.303	0.36
538.649	0.36
538.994	0.36
539.339	0.37
539.685	0.37
540.03	0.37
540.375	0.38
540.721	0.38
541.066	0.38
541.411	0.38
541.756	0.38
542.101	0.38
542.446	0.39
542.791	0.39
543.136	0.39
543.481	0.4
543.825	0.4
544.17	0.4
544.515	0.41
544.86	0.41
545.204	0.41
545.549	0.41
545.893	0.41
546.238	0.42
546.582	0.42
546.927	0.42
547.271	0.43
547.615	0.43
547.96	0.43
548.304	0.43
548.648	0.44
548.992	0.44
549.336	0.44
549.68	0.45
550.024	0.45
550.368	0.45
550.712	0.45
551.056	0.46
551.4	0.46
551.743	0.46
552.087	0.46
552.431	0.46
552.774	0.47
553.118	0.47
553.462	0.47
553.805	0.47
554.148	0.48
554.492	0.48
554.835	0.48
555.178	0.47
555.522	0.48
555.865	0.48
556.208	0.48
556.551	0.49
556.894	0.49
557.237	0.49
557.58	0.49
557.923	0.49
558.266	0.49
558.609	0.5
558.952	0.5
559.294	0.49
559.637	0.5
559.98	0.5
560.322	0.5
560.665	0.5
561.007	0.51
561.35	0.51
561.692	0.51
562.034	0.51
562.377	0.51
562.719	0.51
563.061	0.51
563.403	0.51
563.745	0.51
564.088	0.51
564.43	0.52
564.772	0.52
565.113	0.52
565.455	0.52
565.797	0.52
566.139	0.52
566.481	0.52
566.822	0.52
567.164	0.52
567.506	0.52
567.847	0.53
568.189	0.53
568.53	0.53
568.872	0.53
569.213	0.53
569.554	0.53
569.895	0.53
570.237	0.53
570.578	0.53
570.919	0.53
571.26	0.53
571.601	0.53
571.942	0.53
572.283	0.53
572.624	0.53
572.965	0.53
573.306	0.53
573.646	0.53
573.987	0.53
574.328	0.53
574.668	0.53
575.009	0.53
575.349	0.53
575.69	0.53
576.03	0.53
576.37	0.53
576.711	0.52
577.051	0.52
577.391	0.53
577.731	0.53
578.072	0.53
578.412	0.54
578.752	0.54
579.092	0.53
579.431	0.53
579.771	0.51
580.111	0.5
580.451	0.51
580.791	0.53
581.13	0.54
581.47	0.54
581.81	0.54
582.149	0.54
582.489	0.54
582.828	0.54
583.167	0.51
583.507	0.48
583.846	0.46
584.185	0.49
584.525	0.51
584.864	0.54
585.203	0.55
585.542	0.56
585.881	0.56
586.22	0.57
586.559	0.56
586.898	0.55
587.236	0.54
587.575	0.54
587.914	0.55
588.252	0.56
588.591	0.57
588.93	0.58
589.268	0.57
589.607	0.57
589.945	0.58
590.283	0.58
590.622	0.58
590.96	0.58
591.298	0.59
591.636	0.59
591.974	0.6
592.313	0.6
592.651	0.6
592.989	0.6
593.326	0.6
593.664	0.61
594.002	0.62
594.34	0.61
594.678	0.61
595.015	0.61
595.353	0.6
595.691	0.61
596.028	0.62
596.366	0.62
596.703	0.63
597.04	0.63
597.378	0.63
597.715	0.64
598.052	0.64
598.389	0.64
598.726	0.65
599.064	0.65
599.401	0.65
599.738	0.65
600.074	0.65
600.411	0.65
600.748	0.65
601.085	0.65
601.422	0.64
601.758	0.64
602.095	0.64
602.432	0.65
602.768	0.65
603.105	0.65
603.441	0.65
603.777	0.66
604.114	0.66
604.45	0.66
604.786	0.66
605.122	0.66
605.459	0.66
605.795	0.66
606.131	0.66
606.467	0.66
606.803	0.66
607.139	0.66
607.474	0.66
607.81	0.65
608.146	0.65
608.482	0.65
608.817	0.65
609.153	0.65
609.488	0.64
609.824	0.64
610.159	0.64
610.495	0.64
610.83	0.64
611.165	0.64
611.5	0.64
611.836	0.64
612.171	0.64
612.506	0.64
612.841	0.64
613.176	0.64
613.511	0.63
613.845	0.63
614.18	0.62
614.515	0.63
614.85	0.62
615.184	0.62
615.519	0.62
615.854	0.62
616.188	0.61
616.523	0.61
616.857	0.61
617.191	0.61
617.526	0.61
617.86	0.61
618.194	0.61
618.528	0.61
618.862	0.61
619.196	0.6
619.53	0.61
619.864	0.6
620.198	0.6
620.532	0.6
620.866	0.59
621.2	0.59
621.533	0.59
621.867	0.6
622.201	0.58
622.534	0.59
622.868	0.59
623.201	0.58
623.534	0.58
623.868	0.57
624.201	0.58
624.534	0.57
624.868	0.57
625.201	0.57
625.534	0.57
625.867	0.57
626.2	0.56
626.533	0.56
626.865	0.56
627.198	0.56
627.531	0.56
627.864	0.55
628.196	0.54
628.529	0.55
628.862	0.54
629.194	0.54
629.527	0.54
629.859	0.54
630.191	0.53
630.524	0.53
630.856	0.53
631.188	0.52
631.52	0.52
631.852	0.51
632.184	0.51
632.516	0.51
632.848	0.5
633.18	0.5
633.512	0.5
633.844	0.49
634.175	0.49
634.507	0.48
634.839	0.48
635.17	0.48
635.502	0.47
635.833	0.47
636.165	0.47
636.496	0.46
636.827	0.46
637.159	0.45
637.49	0.45
637.821	0.45
638.152	0.44
638.483	0.44
638.814	0.44
639.145	0.44
639.476	0.44
639.807	0.43
640.137	0.43
640.468	0.42
640.799	0.42
641.129	0.42
641.46	0.42
641.791	0.41
642.121	0.41
642.451	0.41
642.782	0.41
643.112	0.4
643.442	0.4
643.773	0.39
644.103	0.39
644.433	0.39
644.763	0.39
645.093	0.39
645.423	0.39
645.753	0.38
646.082	0.38
646.412	0.38
646.742	0.38
647.072	0.37
647.401	0.38
647.731	0.37
648.06	0.37
648.39	0.37
648.719	0.37
649.048	0.37
649.378	0.37
649.707	0.36
650.036	0.36
650.365	0.36
650.694	0.35
651.023	0.35
651.352	0.35
651.681	0.35
652.01	0.35
652.339	0.35
652.668	0.35
652.996	0.36
653.325	0.35
653.654	0.36
653.982	0.35
654.311	0.35
654.639	0.35
654.967	0.35
655.296	0.35
655.624	0.35
655.952	0.35
656.28	0.35
656.609	0.34
656.937	0.35
657.265	0.35
657.593	0.27
657.92	0.13
658.248	0.09
658.576	0.09
658.904	0.19
659.231	0.28
659.559	0.33
659.887	0.34
660.214	0.34
660.542	0.34
660.869	0.34
661.196	0.34
661.524	0.34
661.851	0.34
662.178	0.34
662.505	0.34
662.832	0.34
663.159	0.34
663.486	0.34
663.813	0.34
664.14	0.34
664.467	0.34
664.794	0.34
665.12	0.34
665.447	0.33
665.774	0.33
666.1	0.33
666.427	0.33
666.753	0.33
667.079	0.32
667.406	0.32
667.732	0.32
668.058	0.32
668.384	0.32
668.71	0.32
669.036	0.32
669.362	0.32
669.688	0.32
670.014	0.32
670.34	0.32
670.666	0.32
670.991	0.31
671.317	0.31
671.643	0.31
671.968	0.31
672.294	0.31
672.619	0.31
672.945	0.31
673.27	0.3
673.595	0.3
673.92	0.3
674.246	0.3
674.571	0.3
674.896	0.3
675.221	0.29
675.546	0.29
675.87	0.29
676.195	0.29
676.52	0.29
676.845	0.28
677.169	0.28
677.494	0.28
677.819	0.28
678.143	0.27
678.468	0.27
678.792	0.27
679.116	0.27
679.44	0.26
679.765	0.26
680.089	0.26
680.413	0.26
680.737	0.25
681.061	0.25
681.385	0.25
681.709	0.25
682.033	0.25
682.356	0.24
682.68	0.24
683.004	0.24
683.327	0.24
683.651	0.23
683.974	0.23
684.298	0.23
684.621	0.23
684.944	0.23
685.268	0.22
685.591	0.22
685.914	0.22
686.237	0.21
686.56	0.21
686.883	0.21
687.206	0.2
687.529	0.2
687.852	0.2
688.175	0.2
688.497	0.2
688.82	0.2
689.142	0.2
689.465	0.2
689.787	0.19
690.11	0.19
690.432	0.19
690.755	0.19
691.077	0.18
691.399	0.18
691.721	0.18
692.043	0.17
692.365	0.17
692.687	0.17
693.009	0.17
693.331	0.17
693.653	0.16
693.974	0.16
694.296	0.16
694.618	0.16
694.939	0.16
695.261	0.16
695.582	0.16
695.904	0.15
696.225	0.15
696.546	0.15
696.868	0.15
697.189	0.15
697.51	0.15
697.831	0.14
698.152	0.14
698.473	0.14
698.794	0.14
699.114	0.13
699.435	0.13
699.756	0.13
700.077	0.13
700.397	0.13
700.718	0.13
701.038	0.13
701.359	0.12
701.679	0.13
701.999	0.12
702.32	0.12
702.64	0.12
702.96	0.12
703.28	0.12
703.6	0.12
703.92	0.12
704.24	0.12
704.56	0.12
704.879	0.12
705.199	0.12
705.519	0.12
705.838	0.12
706.158	0.12
706.478	0.11
706.797	0.11
707.116	0.11
707.436	0.11
707.755	0.11
708.074	0.11
708.393	0.11
708.712	0.11
709.031	0.1
709.35	0.1
709.669	0.1
709.988	0.1
710.307	0.1
710.626	0.1
710.944	0.11
711.263	0.1
711.582	0.11
711.9	0.11
712.219	0.11
712.537	0.11
712.855	0.11
713.174	0.11
713.492	0.1
713.81	0.11
714.128	0.11
714.446	0.11
714.764	0.1
715.082	0.1
715.4	0.1
715.718	0.1
716.035	0.1
716.353	0.1
716.671	0.11
716.988	0.1
717.306	0.1
717.623	0.1
717.941	0.11
718.258	0.11
718.575	0.11
718.893	0.11
719.21	0.11
719.527	0.11
719.844	0.11
720.161	0.11
720.478	0.11
720.795	0.11
721.112	0.11
721.428	0.11
721.745	0.11
722.062	0.11
722.378	0.11
722.695	0.11
723.011	0.11
723.328	0.11
723.644	0.11
723.96	0.11
724.276	0.11
724.593	0.11
724.909	0.11
725.225	0.11
725.541	0.11
725.857	0.11
726.173	0.11
726.488	0.11
726.804	0.11
727.12	0.11
727.435	0.12
727.751	0.12
728.067	0.12
728.382	0.12
728.697	0.12
729.013	0.12
729.328	0.12
729.643	0.12
729.958	0.12
730.273	0.12
730.588	0.12
730.903	0.12
731.218	0.12
731.533	0.12
731.848	0.12
732.163	0.12
732.477	0.12
732.792	0.12
733.107	0.11
733.421	0.12
733.736	0.12
734.05	0.12
734.364	0.12
734.678	0.12
734.993	0.12
735.307	0.12
735.621	0.12
735.935	0.12
736.249	0.12
736.563	0.12
736.877	0.12
737.19	0.12
737.504	0.12
737.818	0.12
738.131	0.12
738.445	0.12
738.758	0.12
739.072	0.12
739.385	0.12
739.698	0.12
740.012	0.12
740.325	0.12
740.638	0.11
740.951	0.11
741.264	0.11
741.577	0.11
741.89	0.11
742.203	0.11
742.515	0.11
742.828	0.11
743.141	0.11
743.453	0.11
743.766	0.11
744.078	0.11
744.391	0.11
744.703	0.1
745.015	0.1
745.327	0.1
745.639	0.1
745.952	0.1
746.264	0.1
746.575	0.1
746.887	0.1
747.199	0.1
747.511	0.1
747.823	0.09
748.134	0.09
748.446	0.1
748.757	0.09
749.069	0.09
749.38	0.09
749.692	0.09
750.003	0.08
750.314	0.09
750.625	0.08
750.936	0.08
751.248	0.08
751.559	0.08
751.869	0.08
752.18	0.08
752.491	0.08
752.802	0.08
753.112	0.07
753.423	0.07
753.734	0.07
754.044	0.07
754.355	0.07
754.665	0.06
754.975	0.06
755.285	0.06
755.596	0.06
755.906	0.06
756.216	0.06
756.526	0.06
756.836	0.06
757.146	0.06
757.455	0.06
757.765	0.06
758.075	0.06
758.385	0.05
758.694	0.05
759.004	0.05
759.313	0.05
759.622	0.05
759.932	0.05
760.241	0.05
760.55	0.05
760.859	0.05
761.168	0.05
761.477	0.05
761.786	0.05
762.095	0.05
762.404	0.05
762.713	0.05
763.021	0.05
763.33	0.05
763.639	0.04
763.947	0.05
764.256	0.04
764.564	0.05
764.872	0.05
765.181	0.05
765.489	0.05
765.797	0.05
766.105	0.05
766.413	0.05
766.721	0.05
767.029	0.05
767.337	0.05
767.644	0.04
767.952	0.04
768.26	0.04
768.567	0.04
768.875	0.04
769.182	0.04
769.49	0.04
769.797	0.04
770.104	0.04
770.411	0.04
770.718	0.04
771.026	0.04
771.333	0.04
771.639	0.04
771.946	0.04
772.253	0.04
772.56	0.04
772.867	0.04
773.173	0.04
773.48	0.04
773.786	0.03
774.093	0.03
774.399	0.03
774.705	0.04
775.012	0.03
775.318	0.04
775.624	0.04
775.93	0.04
776.236	0.03
776.542	0.04
776.848	0.04
777.154	0.03
777.459	0.03
777.765	0.03
778.071	0.03
778.376	0.03
778.682	0.03
778.987	0.03
779.292	0.03
779.598	0.03
779.903	0.03
780.208	0.02
780.513	0.03
780.818	0.02
781.123	0.03
781.428	0.03
781.733	0.03
782.038	0.02
782.343	0.03
782.647	0.03
782.952	0.03
783.256	0.03
783.561	0.03
783.865	0.03
784.17	0.03
784.474	0.03
784.778	0.03
785.082	0.03
785.386	0.03
785.69	0.03
785.994	0.03
786.298	0.03
786.602	0.03
786.906	0.02
787.209	0.03
787.513	0.02
787.817	0.03
788.12	0.03
788.424	0.03
788.727	0.03
789.03	0.03
789.333	0.03
789.637	0.03
789.94	0.03
790.243	0.03
790.546	0.03
790.849	0.03
791.152	0.04
791.454	0.03
791.757	0.03
792.06	0.03
792.362	0.03
792.665	0.03
792.967	0.02
793.27	0.03
793.572	0.03
793.874	0.03
794.177	0.03
794.479	0.03
794.781	0.03
795.083	0.03
795.385	0.03
795.687	0.03
795.989	0.03
796.29	0.03
796.592	0.03
796.894	0.03
797.195	0.03
797.497	0.03
797.798	0.03
798.1	0.03
798.401	0.03
798.702	0.03
799.003	0.03
799.304	0.03
799.605	0.03
799.906	0.04
800.207	0.03
800.508	0.03
800.809	0.03
801.11	0.03
801.41	0.04
801.711	0.03
802.011	0.03
802.312	0.04
802.612	0.04
802.913	0.04
803.213	0.03
803.513	0.03
803.813	0.03
804.113	0.03
804.413	0.03
804.713	0.03
805.013	0.03
805.313	0.03
805.613	0.03
805.912	0.03
806.212	0.03
806.511	0.02
806.811	0.02
807.11	0.02
807.41	0.02
807.709	0.02
808.008	0.02
808.307	0.01
808.606	0.02
808.905	0.02
809.204	0.03
809.503	0.03
809.802	0.03
810.101	0.03
810.399	0.03
810.698	0.03
810.997	0.02
811.295	0.02
811.593	0.03
811.892	0.03
812.19	0.02
812.488	0.03
812.786	0.03
813.084	0.03
813.383	0.03
813.68	0.03
813.978	0.03
814.276	0.03
814.574	0.03
814.872	0.03
815.169	0.03
815.467	0.03
815.764	0.03
816.062	0.03
816.359	0.03
816.656	0.02
816.954	0.02
817.251	0.02
817.548	0.02
817.845	0.02
818.142	0.02
818.439	0.02
818.735	0.02
819.032	0.02
819.329	0.02
819.626	0.02
819.922	0.01
820.219	0.01
820.515	0.02
820.811	0.02
821.108	0.02
821.404	0.03
821.7	0.03
821.996	0.02
822.292	0.03
822.588	0.02
822.884	0.03
823.18	0.03
823.475	0.04
823.771	0.03
824.067	0.04
824.362	0.03
824.658	0.04
824.953	0.04
825.249	0.04
825.544	0.03
825.839	0.03
826.134	0.03
826.429	0.03
826.724	0.03
827.019	0.03
827.314	0.03
827.609	0.03
827.904	0.03
828.198	0.04
828.493	0.03
828.787	0.03
829.082	0.03
829.376	0.03
829.671	0.03
829.965	0.03
830.259	0.03
830.553	0.03
830.847	0.03
831.141	0.03
831.435	0.03
831.729	0.03
832.023	0.02
832.317	0.03
832.61	0.03
832.904	0.03
833.197	0.04
833.491	0.04
833.784	0.04
834.077	0.04
834.371	0.04
834.664	0.04
834.957	0.04
835.25	0.04
835.543	0.03
835.836	0.03
836.129	0.03
836.421	0.04
836.714	0.04
837.007	0.03
837.299	0.03
837.592	0.04
837.884	0.03
838.177	0.04
838.469	0.04
838.761	0.03
839.053	0.03
839.345	0.03
839.637	0.02
839.929	0.02
840.221	0.01
840.513	0.01
840.805	0.02
841.096	0.03
841.388	0.03
841.68	0.03
841.971	0.03
842.262	0.02
842.554	0.03
842.845	0.02
843.136	0.02
843.427	0.03
843.718	0.03
844.009	0.02
844.3	0.03
844.591	0.04
844.882	0.02
845.173	0.03
845.463	0.03
845.754	0.03
846.044	0.03
846.335	0.03
846.625	0.04
846.915	0.03
847.206	0.04
847.496	0.04
847.786	0.04
848.076	0.04
848.366	0.03
848.656	0.04
848.945	0.04
849.235	0.03
849.525	0.04
849.814	0.03
850.104	0.04
850.393	0.02
850.683	0.03
850.972	0.03
851.261	0.03
851.551	0.02
851.84	0.03
852.129	0.02
852.418	0.03
852.707	0.02
852.995	0.02
853.284	0.03
853.573	0.01
853.862	0.02
854.15	0.03
854.439	0.04
854.727	0.03
855.015	0.02
855.304	0.02
855.592	0.02
855.88	0.02
856.168	0.03
856.456	0.02
856.744	0.02
857.032	0.01
857.32	0.03
857.607	0.02
857.895	0.02
858.183	0.03
858.47	0.04
858.757	0.02
859.045	0.03
859.332	0.04
859.619	0.02
859.907	0.02
860.194	0.06
860.481	0.03
860.768	0.03
861.054	0.04
861.341	0.03
861.628	0.03
861.915	0.04
862.201	0.02
862.488	0.02
862.774	0.02
863.061	0.03
863.347	0.01
863.633	0.04
863.919	0.05
864.205	0.03
864.491	0.04
864.777	0.03
865.063	0.03
865.349	0.02
865.635	0.03
865.92	0.02
866.206	0.03
866.492	0.06
866.777	0.03
867.062	0.05
867.348	0.05
867.633	0.04
867.918	0.02
868.203	0.06
868.488	0.03
868.773	0.03
869.058	0.01
869.343	0.02
869.628	-0.01
869.912	-0.01
870.197	0.03
870.482	0.01
870.766	-0
871.05	0.01
871.335	0.05
871.619	0.02
871.903	0.03
872.187	0.03
872.471	0
872.755	0.04
873.039	0.01
873.323	0.03
873.607	-0.01
873.89	0.02
874.174	-0.03
874.458	-0.06
874.741	-0.01
875.024	0.07
875.308	-0.04
875.591	0.02
875.874	0.02
876.157	0
876.44	-0.02
876.723	0.02
877.006	-0.05
877.289	-0.01
877.572	0.07
877.854	0.01
878.137	0.03
878.42	-0
878.702	0.01
878.984	-0.05
879.267	-0.02
879.549	0.09
879.831	-0.01
880.113	-0.01
880.395	0.08
880.677	-0.01
880.959	-0.1
