Data from Rubpy_EV_1200_EDTA_Buffered_Absorbance_14-12-39-578.txt Node
Date: Tue Jun 30 14:12:39 BST 2026
User: fpm-admin
Spectrometer: OFX00224
Trigger mode: 0
Integration Time (sec): 7.000000E-2
Scans to average: 3
Nonlinearity correction enabled: false
Boxcar width: 0
Storing dark spectrum: false
XAxis mode: Wavelengths
Number of Pixels in Spectrum: 2136
>>>>>Begin Spectral Data<<<<<
154.91	-0.17
155.289	0.27
155.669	0.22
156.048	-0
156.428	0.09
156.807	-0
157.186	-0.1
157.566	-0
157.945	-0.04
158.325	0.12
158.704	-0.12
159.083	-0
159.462	0.5
159.842	-0.16
160.221	0.28
160.6	0.21
160.979	-0.13
161.359	-0.15
161.738	-0.6
162.117	-0
162.496	-0
162.875	-0.19
163.254	-0
163.633	-0
164.012	0.36
164.391	-0.03
164.77	-1.11
165.149	0.85
165.528	-0
165.907	-0.43
166.286	-0
166.665	-0.09
167.044	-0.51
167.423	-0.09
167.802	-0
168.181	-0
168.559	-0
168.938	0.37
169.317	-0
169.696	-1.54
170.074	-0
170.453	-0
170.832	-0.96
171.21	-0.28
171.589	-0
171.968	-0
172.346	-0
172.725	-0.24
173.103	-0
173.482	-0
173.861	-0
174.239	-0
174.617	-0.29
174.996	-0.88
175.374	-0.27
175.753	-0.6
176.131	0.37
176.51	-0
176.888	-0
177.266	-0
177.645	-0.1
178.023	1.23
178.401	-0.28
178.779	0.19
179.158	-0.09
179.536	1.72
179.914	0.52
180.292	-0
180.67	-0.18
181.048	0.14
181.427	0.56
181.805	-0.19
182.183	-0
182.561	-1.11
182.939	-0
183.317	0.04
183.695	0.11
184.073	-0
184.451	-0
184.829	0.21
185.206	0.03
185.584	1.63
185.962	-0.32
186.34	0.49
186.718	-0
187.096	-0.11
187.473	-0
187.851	-0
188.229	-0
188.607	0.07
188.984	-0.01
189.362	0.08
189.74	-0.01
190.117	0.01
190.495	-0.03
190.872	0.01
191.25	0.08
191.627	0.06
192.005	0.06
192.382	0.06
192.76	-0.05
193.137	0.19
193.515	0.14
193.892	-0.08
194.269	0.07
194.647	0.05
195.024	0.06
195.401	0.12
195.779	-0
196.156	-0.03
196.533	0.03
196.91	-0
197.288	0.04
197.665	0.1
198.042	0.07
198.419	0.04
198.796	-0
199.173	0.03
199.55	0.05
199.927	0.06
200.304	0.09
200.681	0.13
201.058	0.08
201.435	0.01
201.812	0.02
202.189	0.08
202.566	0.07
202.943	0.1
203.32	0.13
203.697	0.07
204.073	0.1
204.45	0.14
204.827	0.04
205.204	0.08
205.58	0.12
205.957	0.11
206.334	0.09
206.71	-0.03
207.087	0.05
207.464	0.08
207.84	0.11
208.217	0.15
208.593	0.12
208.97	0.11
209.346	0.07
209.723	0.03
210.099	0.09
210.476	0.14
210.852	0.13
211.228	0.21
211.605	0.21
211.981	0.1
212.357	0.12
212.733	0.08
213.11	0.16
213.486	0.08
213.862	0.05
214.238	0.15
214.614	0.12
214.991	0.09
215.367	0.15
215.743	0.13
216.119	0.06
216.495	0.07
216.871	0.15
217.247	0.18
217.623	0.02
217.999	0.06
218.375	0.15
218.751	0.11
219.127	0.11
219.502	0.06
219.878	0.09
220.254	0.1
220.63	0.14
221.006	0.11
221.381	0.14
221.757	0.06
222.133	0.11
222.508	0.08
222.884	0.18
223.26	0.15
223.635	0.14
224.011	0.06
224.386	0.09
224.762	0.13
225.137	0.04
225.513	0.1
225.888	0.11
226.264	0.06
226.639	0.11
227.014	0.2
227.39	0.09
227.765	0.09
228.14	0.03
228.516	0.07
228.891	0.14
229.266	0.11
229.641	0.11
230.017	0.22
230.392	0.05
230.767	0.18
231.142	0.08
231.517	0.11
231.892	0.07
232.267	0.08
232.642	0.11
233.017	0.12
233.392	0.1
233.767	0.14
234.142	0.18
234.517	0.11
234.892	0.1
235.267	0.04
235.641	0.12
236.016	-0.02
236.391	0.14
236.766	0.12
237.14	0.09
237.515	0.04
237.89	0.06
238.264	0.17
238.639	0.05
239.014	0.06
239.388	0.1
239.763	0.16
240.137	0.01
240.512	0.05
240.886	-0.01
241.261	-0.02
241.635	0
242.009	0.1
242.384	0.03
242.758	0.04
243.132	0.06
243.507	0.04
243.881	-0.04
244.255	0.12
244.629	0.1
245.004	0.04
245.378	0.11
245.752	0.17
246.126	0.14
246.5	0
246.874	0.13
247.248	0.1
247.622	0.14
247.996	0.08
248.37	0.03
248.744	0.12
249.118	0.09
249.492	0.03
249.866	0.03
250.24	0.09
250.613	0.11
250.987	0.11
251.361	0.1
251.735	0.02
252.108	0.06
252.482	0.17
252.856	0.03
253.229	0.12
253.603	0.07
253.977	0.13
254.35	0.09
254.724	0.09
255.097	0.08
255.471	0.1
255.844	0.09
256.218	0.06
256.591	0.05
256.964	0.12
257.338	0.1
257.711	0.1
258.084	0.11
258.458	0.08
258.831	0.02
259.204	0.12
259.577	0.09
259.95	0.08
260.323	0.14
260.697	0.15
261.07	0.09
261.443	0.14
261.816	0.07
262.189	0.09
262.562	0.09
262.935	0.09
263.308	0.06
263.68	0.03
264.053	0.14
264.426	0.1
264.799	0.11
265.172	0.11
265.545	0.14
265.917	0.12
266.29	0.1
266.663	0.18
267.035	0.12
267.408	0.1
267.781	0.11
268.153	0.08
268.526	0.14
268.898	0.06
269.271	0.07
269.643	0.14
270.016	0.08
270.388	0.09
270.76	0.09
271.133	0.07
271.505	0.09
271.877	0.06
272.25	0.1
272.622	0.12
272.994	0.14
273.366	0.12
273.739	0.07
274.111	0.13
274.483	0.14
274.855	0.06
275.227	0.06
275.599	0.08
275.971	0.07
276.343	0.11
276.715	0.1
277.087	0.13
277.459	0.1
277.831	0.05
278.203	0.05
278.574	0.06
278.946	0.11
279.318	0.06
279.69	0.12
280.061	0.12
280.433	0.12
280.805	0.12
281.176	0.15
281.548	0.07
281.92	0.03
282.291	0.14
282.663	0.06
283.034	0.08
283.406	0.12
283.777	0.11
284.148	0.13
284.52	0.08
284.891	0.11
285.262	0.11
285.634	0.11
286.005	0.11
286.376	0.09
286.747	0.09
287.119	0.1
287.49	0.11
287.861	0.09
288.232	0.07
288.603	0.09
288.974	0.07
289.345	0.11
289.716	0.05
290.087	0.1
290.458	0.06
290.829	0.06
291.2	0.1
291.571	0.07
291.941	0.09
292.312	0.07
292.683	0.11
293.054	0.05
293.424	0.13
293.795	0.09
294.166	0.03
294.536	0.1
294.907	0.1
295.277	0.08
295.648	0.05
296.018	0.11
296.389	0.1
296.759	0.05
297.13	0.08
297.5	-0.03
297.871	0.1
298.241	0.13
298.611	0.09
298.981	0.09
299.352	0.07
299.722	0.1
300.092	0.06
300.462	0.09
300.832	0.07
301.202	0.07
301.573	0.03
301.943	0.04
302.313	0.09
302.683	0.06
303.053	0.07
303.422	0.04
303.792	0.08
304.162	0.06
304.532	0.08
304.902	0.08
305.272	0.07
305.641	0.07
306.011	0.06
306.381	0.07
306.75	0.08
307.12	0.08
307.49	0.08
307.859	0.08
308.229	0.07
308.598	0.07
308.968	0.07
309.337	0.07
309.707	0.08
310.076	0.08
310.445	0.08
310.815	0.08
311.184	0.09
311.553	0.08
311.923	0.07
312.292	0.09
312.661	0.09
313.03	0.09
313.399	0.08
313.768	0.08
314.137	0.09
314.506	0.08
314.875	0.09
315.244	0.08
315.613	0.08
315.982	0.08
316.351	0.08
316.72	0.08
317.089	0.08
317.458	0.09
317.826	0.08
318.195	0.08
318.564	0.08
318.933	0.07
319.301	0.08
319.67	0.07
320.038	0.08
320.407	0.08
320.775	0.08
321.144	0.08
321.512	0.07
321.881	0.07
322.249	0.07
322.618	0.07
322.986	0.08
323.354	0.07
323.723	0.07
324.091	0.07
324.459	0.07
324.827	0.07
325.195	0.06
325.564	0.07
325.932	0.06
326.3	0.07
326.668	0.07
327.036	0.07
327.404	0.07
327.772	0.06
328.14	0.07
328.508	0.07
328.875	0.07
329.243	0.06
329.611	0.06
329.979	0.07
330.346	0.07
330.714	0.07
331.082	0.07
331.449	0.07
331.817	0.07
332.185	0.06
332.552	0.07
332.92	0.07
333.287	0.07
333.655	0.07
334.022	0.07
334.389	0.07
334.757	0.07
335.124	0.07
335.491	0.08
335.859	0.07
336.226	0.07
336.593	0.07
336.96	0.07
337.327	0.08
337.695	0.08
338.062	0.07
338.429	0.07
338.796	0.08
339.163	0.08
339.53	0.08
339.897	0.08
340.263	0.08
340.63	0.09
340.997	0.09
341.364	0.09
341.731	0.09
342.097	0.09
342.464	0.09
342.831	0.1
343.197	0.1
343.564	0.1
343.931	0.1
344.297	0.1
344.664	0.11
345.03	0.1
345.396	0.11
345.763	0.11
346.129	0.11
346.496	0.12
346.862	0.11
347.228	0.11
347.594	0.12
347.961	0.11
348.327	0.12
348.693	0.12
349.059	0.12
349.425	0.12
349.791	0.13
350.157	0.13
350.523	0.13
350.889	0.13
351.255	0.14
351.621	0.14
351.987	0.14
352.353	0.15
352.719	0.15
353.084	0.16
353.45	0.16
353.816	0.16
354.181	0.16
354.547	0.16
354.913	0.17
355.278	0.17
355.644	0.18
356.009	0.18
356.375	0.19
356.74	0.18
357.106	0.19
357.471	0.19
357.836	0.2
358.202	0.21
358.567	0.21
358.932	0.21
359.297	0.22
359.663	0.22
360.028	0.22
360.393	0.23
360.758	0.23
361.123	0.23
361.488	0.24
361.853	0.24
362.218	0.24
362.583	0.25
362.948	0.25
363.312	0.25
363.677	0.25
364.042	0.26
364.407	0.26
364.772	0.27
365.136	0.28
365.501	0.28
365.865	0.28
366.23	0.29
366.595	0.3
366.959	0.31
367.324	0.32
367.688	0.32
368.052	0.33
368.417	0.33
368.781	0.34
369.145	0.34
369.51	0.34
369.874	0.35
370.238	0.34
370.602	0.34
370.967	0.34
371.331	0.34
371.695	0.34
372.059	0.34
372.423	0.34
372.787	0.34
373.151	0.34
373.515	0.34
373.878	0.33
374.242	0.34
374.606	0.33
374.97	0.34
375.334	0.34
375.697	0.34
376.061	0.35
376.425	0.35
376.788	0.34
377.152	0.34
377.515	0.35
377.879	0.35
378.242	0.36
378.606	0.37
378.969	0.37
379.333	0.37
379.696	0.38
380.059	0.39
380.422	0.4
380.786	0.4
381.149	0.41
381.512	0.42
381.875	0.43
382.238	0.44
382.601	0.45
382.964	0.46
383.327	0.47
383.69	0.49
384.053	0.5
384.416	0.51
384.779	0.52
385.142	0.54
385.504	0.54
385.867	0.56
386.23	0.56
386.593	0.56
386.955	0.57
387.318	0.57
387.68	0.56
388.043	0.55
388.405	0.56
388.768	0.55
389.13	0.54
389.493	0.54
389.855	0.54
390.217	0.53
390.58	0.54
390.942	0.54
391.304	0.54
391.666	0.55
392.028	0.56
392.391	0.58
392.753	0.59
393.115	0.6
393.477	0.63
393.839	0.65
394.201	0.68
394.563	0.71
394.924	0.74
395.286	0.77
395.648	0.8
396.01	0.82
396.371	0.84
396.733	0.86
397.095	0.87
397.456	0.88
397.818	0.88
398.18	0.87
398.541	0.86
398.903	0.85
399.264	0.82
399.625	0.79
399.987	0.75
400.348	0.73
400.709	0.68
401.071	0.65
401.432	0.61
401.793	0.57
402.154	0.53
402.515	0.49
402.876	0.46
403.238	0.43
403.599	0.4
403.96	0.37
404.32	0.34
404.681	0.32
405.042	0.29
405.403	0.28
405.764	0.25
406.125	0.24
406.485	0.22
406.846	0.21
407.207	0.19
407.567	0.18
407.928	0.17
408.288	0.16
408.649	0.15
409.009	0.15
409.37	0.13
409.73	0.13
410.091	0.13
410.451	0.12
410.811	0.11
411.171	0.11
411.532	0.1
411.892	0.1
412.252	0.09
412.612	0.09
412.972	0.09
413.332	0.08
413.692	0.08
414.052	0.08
414.412	0.08
414.772	0.07
415.132	0.07
415.492	0.07
415.851	0.07
416.211	0.07
416.571	0.07
416.931	0.06
417.29	0.06
417.65	0.06
418.009	0.06
418.369	0.06
418.728	0.06
419.088	0.06
419.447	0.06
419.807	0.05
420.166	0.05
420.525	0.06
420.884	0.05
421.244	0.05
421.603	0.05
421.962	0.05
422.321	0.04
422.68	0.05
423.039	0.04
423.398	0.04
423.757	0.05
424.116	0.04
424.475	0.04
424.834	0.04
425.193	0.04
425.551	0.04
425.91	0.04
426.269	0.04
426.628	0.04
426.986	0.04
427.345	0.04
427.703	0.04
428.062	0.04
428.42	0.03
428.779	0.04
429.137	0.03
429.496	0.04
429.854	0.04
430.212	0.04
430.57	0.03
430.929	0.04
431.287	0.04
431.645	0.03
432.003	0.03
432.361	0.03
432.719	0.03
433.077	0.03
433.435	0.03
433.793	0.04
434.151	0.03
434.509	0.04
434.866	0.04
435.224	0.03
435.582	0.03
435.94	0.03
436.297	0.02
436.655	0.03
437.012	0.03
437.37	0.03
437.727	0.02
438.085	0.03
438.442	0.03
438.8	0.03
439.157	0.03
439.514	0.03
439.872	0.03
440.229	0.03
440.586	0.03
440.943	0.02
441.3	0.02
441.657	0.03
442.014	0.02
442.371	0.03
442.728	0.02
443.085	0.02
443.442	0.02
443.799	0.02
444.156	0.02
444.513	0.02
444.869	0.03
445.226	0.03
445.583	0.03
445.939	0.01
446.296	0.02
446.652	0.03
447.009	0.02
447.365	0.02
447.722	0.02
448.078	0.01
448.434	0.01
448.791	0.02
449.147	0.02
449.503	0.01
449.859	0.02
450.215	0.01
450.571	0.01
450.928	0.01
451.284	0.01
451.64	0
451.995	0
452.351	0.01
452.707	0
453.063	0.01
453.419	0.01
453.775	0.01
454.13	0.01
454.486	-0
454.842	-0.01
455.197	-0.01
455.553	-0
455.908	-0
456.264	-0.01
456.619	-0
456.975	-0
457.33	-0
457.685	-0.01
458.04	-0.02
458.396	-0.01
458.751	-0.02
459.106	-0.01
459.461	-0.01
459.816	-0.02
460.171	-0.02
460.526	-0.02
460.881	-0.03
461.236	-0.02
461.591	-0.03
461.946	-0.03
462.301	-0.03
462.655	-0.03
463.01	-0.04
463.365	-0.03
463.719	-0.04
464.074	-0.04
464.428	-0.05
464.783	-0.04
465.137	-0.05
465.492	-0.05
465.846	-0.04
466.201	-0.05
466.555	-0.04
466.909	-0.05
467.263	-0.05
467.618	-0.05
467.972	-0.04
468.326	-0.05
468.68	-0.05
469.034	-0.05
469.388	-0.05
469.742	-0.05
470.096	-0.06
470.45	-0.05
470.804	-0.06
471.157	-0.05
471.511	-0.05
471.865	-0.05
472.218	-0.05
472.572	-0.04
472.926	-0.05
473.279	-0.05
473.633	-0.04
473.986	-0.04
474.34	-0.04
474.693	-0.04
475.046	-0.03
475.4	-0.03
475.753	-0.02
476.106	-0.02
476.459	-0.02
476.812	-0.02
477.165	-0.02
477.519	-0.02
477.872	-0.01
478.224	-0.01
478.577	-0.01
478.93	-0.01
479.283	-0.01
479.636	-0
479.989	0
480.341	0
480.694	-0
481.047	0
481.399	0.01
481.752	0.01
482.104	0.01
482.457	0.01
482.809	0.01
483.162	0.01
483.514	0.01
483.866	0.01
484.219	0.01
484.571	0.02
484.923	0.02
485.275	0.01
485.627	0.02
485.979	0.02
486.331	0.02
486.683	0.02
487.035	0.02
487.387	0.02
487.739	0.02
488.091	0.03
488.443	0.03
488.794	0.02
489.146	0.03
489.498	0.03
489.849	0.03
490.201	0.03
490.552	0.03
490.904	0.03
491.255	0.03
491.607	0.03
491.958	0.03
492.309	0.03
492.661	0.03
493.012	0.03
493.363	0.03
493.714	0.03
494.065	0.04
494.416	0.04
494.767	0.04
495.118	0.04
495.469	0.04
495.82	0.04
496.171	0.04
496.522	0.04
496.872	0.04
497.223	0.04
497.574	0.04
497.924	0.04
498.275	0.04
498.626	0.04
498.976	0.05
499.327	0.05
499.677	0.05
500.027	0.05
500.378	0.05
500.728	0.05
501.078	0.05
501.428	0.05
501.779	0.05
502.129	0.05
502.479	0.05
502.829	0.06
503.179	0.06
503.529	0.06
503.879	0.06
504.229	0.06
504.578	0.06
504.928	0.06
505.278	0.06
505.628	0.06
505.977	0.06
506.327	0.06
506.676	0.06
507.026	0.06
507.375	0.06
507.725	0.07
508.074	0.07
508.424	0.06
508.773	0.07
509.122	0.07
509.471	0.07
509.82	0.07
510.17	0.07
510.519	0.07
510.868	0.07
511.217	0.07
511.566	0.07
511.915	0.08
512.263	0.07
512.612	0.08
512.961	0.08
513.31	0.08
513.659	0.08
514.007	0.08
514.356	0.08
514.704	0.08
515.053	0.08
515.401	0.08
515.75	0.08
516.098	0.08
516.447	0.08
516.795	0.09
517.143	0.08
517.491	0.08
517.839	0.09
518.188	0.09
518.536	0.09
518.884	0.09
519.232	0.09
519.58	0.09
519.928	0.09
520.275	0.09
520.623	0.09
520.971	0.09
521.319	0.1
521.666	0.1
522.014	0.09
522.362	0.1
522.709	0.1
523.057	0.1
523.404	0.1
523.752	0.1
524.099	0.1
524.446	0.1
524.794	0.1
525.141	0.1
525.488	0.1
525.835	0.1
526.182	0.11
526.529	0.11
526.876	0.11
527.223	0.11
527.57	0.11
527.917	0.11
528.264	0.11
528.611	0.11
528.958	0.11
529.304	0.11
529.651	0.12
529.998	0.12
530.344	0.11
530.691	0.12
531.037	0.12
531.384	0.12
531.73	0.12
532.076	0.12
532.423	0.12
532.769	0.12
533.115	0.12
533.461	0.12
533.807	0.12
534.154	0.13
534.5	0.13
534.846	0.13
535.192	0.13
535.537	0.13
535.883	0.13
536.229	0.13
536.575	0.13
536.921	0.14
537.266	0.13
537.612	0.14
537.957	0.14
538.303	0.14
538.649	0.14
538.994	0.14
539.339	0.14
539.685	0.15
540.03	0.15
540.375	0.14
540.721	0.15
541.066	0.15
541.411	0.14
541.756	0.14
542.101	0.15
542.446	0.15
542.791	0.15
543.136	0.15
543.481	0.15
543.825	0.15
544.17	0.16
544.515	0.15
544.86	0.16
545.204	0.16
545.549	0.16
545.893	0.16
546.238	0.17
546.582	0.16
546.927	0.16
547.271	0.17
547.615	0.17
547.96	0.17
548.304	0.17
548.648	0.17
548.992	0.17
549.336	0.17
549.68	0.17
550.024	0.17
550.368	0.18
550.712	0.18
551.056	0.18
551.4	0.18
551.743	0.18
552.087	0.18
552.431	0.18
552.774	0.18
553.118	0.19
553.462	0.18
553.805	0.18
554.148	0.18
554.492	0.19
554.835	0.19
555.178	0.18
555.522	0.19
555.865	0.19
556.208	0.19
556.551	0.19
556.894	0.19
557.237	0.19
557.58	0.19
557.923	0.19
558.266	0.19
558.609	0.2
558.952	0.2
559.294	0.2
559.637	0.19
559.98	0.2
560.322	0.2
560.665	0.2
561.007	0.2
561.35	0.2
561.692	0.2
562.034	0.2
562.377	0.21
562.719	0.2
563.061	0.2
563.403	0.2
563.745	0.2
564.088	0.2
564.43	0.2
564.772	0.2
565.113	0.2
565.455	0.2
565.797	0.2
566.139	0.21
566.481	0.21
566.822	0.21
567.164	0.21
567.506	0.21
567.847	0.21
568.189	0.21
568.53	0.21
568.872	0.21
569.213	0.21
569.554	0.21
569.895	0.21
570.237	0.21
570.578	0.21
570.919	0.2
571.26	0.21
571.601	0.21
571.942	0.21
572.283	0.21
572.624	0.2
572.965	0.21
573.306	0.21
573.646	0.2
573.987	0.2
574.328	0.2
574.668	0.21
575.009	0.21
575.349	0.21
575.69	0.21
576.03	0.21
576.37	0.2
576.711	0.2
577.051	0.2
577.391	0.2
577.731	0.21
578.072	0.21
578.412	0.21
578.752	0.21
579.092	0.2
579.431	0.2
579.771	0.18
580.111	0.17
580.451	0.18
580.791	0.2
581.13	0.2
581.47	0.21
581.81	0.21
582.149	0.21
582.489	0.21
582.828	0.2
583.167	0.18
583.507	0.14
583.846	0.13
584.185	0.15
584.525	0.18
584.864	0.2
585.203	0.21
585.542	0.21
585.881	0.22
586.22	0.22
586.559	0.22
586.898	0.21
587.236	0.2
587.575	0.2
587.914	0.2
588.252	0.22
588.591	0.22
588.93	0.22
589.268	0.22
589.607	0.22
589.945	0.22
590.283	0.22
590.622	0.22
590.96	0.23
591.298	0.23
591.636	0.23
591.974	0.23
592.313	0.23
592.651	0.24
592.989	0.23
593.326	0.24
593.664	0.24
594.002	0.24
594.34	0.24
594.678	0.24
595.015	0.23
595.353	0.22
595.691	0.23
596.028	0.24
596.366	0.24
596.703	0.25
597.04	0.25
597.378	0.25
597.715	0.25
598.052	0.25
598.389	0.25
598.726	0.26
599.064	0.26
599.401	0.26
599.738	0.26
600.074	0.26
600.411	0.26
600.748	0.26
601.085	0.25
601.422	0.25
601.758	0.25
602.095	0.25
602.432	0.25
602.768	0.25
603.105	0.26
603.441	0.26
603.777	0.26
604.114	0.26
604.45	0.26
604.786	0.26
605.122	0.26
605.459	0.26
605.795	0.26
606.131	0.26
606.467	0.26
606.803	0.26
607.139	0.26
607.474	0.26
607.81	0.26
608.146	0.26
608.482	0.26
608.817	0.26
609.153	0.26
609.488	0.26
609.824	0.25
610.159	0.26
610.495	0.25
610.83	0.26
611.165	0.26
611.5	0.25
611.836	0.25
612.171	0.25
612.506	0.26
612.841	0.26
613.176	0.25
613.511	0.26
613.845	0.25
614.18	0.25
614.515	0.25
614.85	0.25
615.184	0.25
615.519	0.25
615.854	0.24
616.188	0.25
616.523	0.24
616.857	0.24
617.191	0.24
617.526	0.24
617.86	0.24
618.194	0.24
618.528	0.24
618.862	0.24
619.196	0.24
619.53	0.24
619.864	0.24
620.198	0.24
620.532	0.24
620.866	0.24
621.2	0.24
621.533	0.24
621.867	0.24
622.201	0.24
622.534	0.24
622.868	0.24
623.201	0.23
623.534	0.23
623.868	0.23
624.201	0.23
624.534	0.23
624.868	0.23
625.201	0.23
625.534	0.22
625.867	0.23
626.2	0.23
626.533	0.23
626.865	0.22
627.198	0.22
627.531	0.22
627.864	0.22
628.196	0.22
628.529	0.22
628.862	0.22
629.194	0.22
629.527	0.22
629.859	0.22
630.191	0.22
630.524	0.22
630.856	0.21
631.188	0.21
631.52	0.21
631.852	0.21
632.184	0.21
632.516	0.2
632.848	0.2
633.18	0.2
633.512	0.2
633.844	0.2
634.175	0.2
634.507	0.19
634.839	0.19
635.17	0.19
635.502	0.19
635.833	0.19
636.165	0.19
636.496	0.18
636.827	0.19
637.159	0.18
637.49	0.18
637.821	0.18
638.152	0.18
638.483	0.17
638.814	0.18
639.145	0.17
639.476	0.17
639.807	0.17
640.137	0.17
640.468	0.17
640.799	0.17
641.129	0.17
641.46	0.17
641.791	0.16
642.121	0.16
642.451	0.16
642.782	0.16
643.112	0.16
643.442	0.16
643.773	0.16
644.103	0.16
644.433	0.16
644.763	0.16
645.093	0.16
645.423	0.16
645.753	0.16
646.082	0.15
646.412	0.15
646.742	0.15
647.072	0.15
647.401	0.16
647.731	0.15
648.06	0.15
648.39	0.15
648.719	0.15
649.048	0.15
649.378	0.15
649.707	0.15
650.036	0.14
650.365	0.15
650.694	0.14
651.023	0.14
651.352	0.14
651.681	0.14
652.01	0.14
652.339	0.14
652.668	0.14
652.996	0.15
653.325	0.14
653.654	0.14
653.982	0.14
654.311	0.14
654.639	0.14
654.967	0.14
655.296	0.14
655.624	0.14
655.952	0.14
656.28	0.14
656.609	0.14
656.937	0.14
657.265	0.14
657.593	0.07
657.92	0
658.248	0
658.576	0
658.904	0.01
659.231	0.08
659.559	0.13
659.887	0.13
660.214	0.13
660.542	0.14
660.869	0.13
661.196	0.14
661.524	0.13
661.851	0.13
662.178	0.14
662.505	0.14
662.832	0.14
663.159	0.14
663.486	0.14
663.813	0.14
664.14	0.14
664.467	0.13
664.794	0.14
665.12	0.14
665.447	0.13
665.774	0.14
666.1	0.13
666.427	0.13
666.753	0.13
667.079	0.13
667.406	0.13
667.732	0.13
668.058	0.13
668.384	0.13
668.71	0.13
669.036	0.13
669.362	0.12
669.688	0.13
670.014	0.13
670.34	0.13
670.666	0.13
670.991	0.13
671.317	0.12
671.643	0.12
671.968	0.12
672.294	0.12
672.619	0.12
672.945	0.12
673.27	0.12
673.595	0.12
673.92	0.12
674.246	0.12
674.571	0.12
674.896	0.12
675.221	0.12
675.546	0.12
675.87	0.11
676.195	0.11
676.52	0.11
676.845	0.11
677.169	0.11
677.494	0.11
677.819	0.11
678.143	0.11
678.468	0.11
678.792	0.1
679.116	0.1
679.44	0.1
679.765	0.1
680.089	0.1
680.413	0.1
680.737	0.1
681.061	0.1
681.385	0.1
681.709	0.1
682.033	0.1
682.356	0.1
682.68	0.1
683.004	0.1
683.327	0.09
683.651	0.09
683.974	0.09
684.298	0.09
684.621	0.09
684.944	0.09
685.268	0.09
685.591	0.09
685.914	0.09
686.237	0.09
686.56	0.09
686.883	0.09
687.206	0.08
687.529	0.08
687.852	0.08
688.175	0.08
688.497	0.08
688.82	0.08
689.142	0.08
689.465	0.08
689.787	0.08
690.11	0.08
690.432	0.07
690.755	0.07
691.077	0.07
691.399	0.07
691.721	0.07
692.043	0.07
692.365	0.07
692.687	0.07
693.009	0.07
693.331	0.07
693.653	0.07
693.974	0.07
694.296	0.06
694.618	0.06
694.939	0.06
695.261	0.07
695.582	0.06
695.904	0.06
696.225	0.06
696.546	0.06
696.868	0.06
697.189	0.06
697.51	0.06
697.831	0.06
698.152	0.06
698.473	0.06
698.794	0.06
699.114	0.05
699.435	0.05
699.756	0.05
700.077	0.05
700.397	0.05
700.718	0.05
701.038	0.05
701.359	0.05
701.679	0.05
701.999	0.05
702.32	0.04
702.64	0.04
702.96	0.04
703.28	0.05
703.6	0.05
703.92	0.04
704.24	0.04
704.56	0.04
704.879	0.04
705.199	0.05
705.519	0.05
705.838	0.05
706.158	0.05
706.478	0.05
706.797	0.04
707.116	0.04
707.436	0.04
707.755	0.04
708.074	0.04
708.393	0.04
708.712	0.04
709.031	0.03
709.35	0.03
709.669	0.03
709.988	0.03
710.307	0.04
710.626	0.04
710.944	0.04
711.263	0.04
711.582	0.04
711.9	0.04
712.219	0.04
712.537	0.04
712.855	0.04
713.174	0.04
713.492	0.04
713.81	0.04
714.128	0.04
714.446	0.04
714.764	0.04
715.082	0.04
715.4	0.04
715.718	0.04
716.035	0.04
716.353	0.04
716.671	0.04
716.988	0.04
717.306	0.04
717.623	0.04
717.941	0.04
718.258	0.04
718.575	0.04
718.893	0.05
719.21	0.04
719.527	0.04
719.844	0.04
720.161	0.04
720.478	0.04
720.795	0.04
721.112	0.04
721.428	0.04
721.745	0.04
722.062	0.04
722.378	0.04
722.695	0.04
723.011	0.04
723.328	0.04
723.644	0.04
723.96	0.04
724.276	0.04
724.593	0.04
724.909	0.04
725.225	0.04
725.541	0.04
725.857	0.04
726.173	0.04
726.488	0.04
726.804	0.04
727.12	0.04
727.435	0.04
727.751	0.04
728.067	0.04
728.382	0.05
728.697	0.05
729.013	0.05
729.328	0.05
729.643	0.05
729.958	0.05
730.273	0.05
730.588	0.05
730.903	0.05
731.218	0.05
731.533	0.05
731.848	0.05
732.163	0.05
732.477	0.05
732.792	0.05
733.107	0.04
733.421	0.05
733.736	0.05
734.05	0.05
734.364	0.05
734.678	0.05
734.993	0.05
735.307	0.05
735.621	0.05
735.935	0.05
736.249	0.05
736.563	0.05
736.877	0.05
737.19	0.05
737.504	0.05
737.818	0.05
738.131	0.05
738.445	0.05
738.758	0.05
739.072	0.05
739.385	0.05
739.698	0.05
740.012	0.05
740.325	0.05
740.638	0.05
740.951	0.05
741.264	0.04
741.577	0.05
741.89	0.05
742.203	0.05
742.515	0.05
742.828	0.05
743.141	0.05
743.453	0.05
743.766	0.04
744.078	0.04
744.391	0.04
744.703	0.04
745.015	0.04
745.327	0.04
745.639	0.04
745.952	0.04
746.264	0.04
746.575	0.04
746.887	0.04
747.199	0.03
747.511	0.04
747.823	0.03
748.134	0.04
748.446	0.04
748.757	0.04
749.069	0.04
749.38	0.04
749.692	0.03
750.003	0.03
750.314	0.03
750.625	0.03
750.936	0.03
751.248	0.03
751.559	0.03
751.869	0.03
752.18	0.03
752.491	0.03
752.802	0.03
753.112	0.03
753.423	0.03
753.734	0.02
754.044	0.02
754.355	0.02
754.665	0.02
754.975	0.02
755.285	0.02
755.596	0.02
755.906	0.02
756.216	0.02
756.526	0.02
756.836	0.02
757.146	0.02
757.455	0.02
757.765	0.02
758.075	0.02
758.385	0.02
758.694	0.02
759.004	0.02
759.313	0.02
759.622	0.02
759.932	0.02
760.241	0.02
760.55	0.02
760.859	0.02
761.168	0.02
761.477	0.02
761.786	0.02
762.095	0.02
762.404	0.02
762.713	0.02
763.021	0.02
763.33	0.02
763.639	0.02
763.947	0.02
764.256	0.02
764.564	0.02
764.872	0.02
765.181	0.02
765.489	0.02
765.797	0.02
766.105	0.02
766.413	0.02
766.721	0.02
767.029	0.02
767.337	0.02
767.644	0.02
767.952	0.02
768.26	0.02
768.567	0.02
768.875	0.02
769.182	0.02
769.49	0.02
769.797	0.02
770.104	0.02
770.411	0.02
770.718	0.02
771.026	0.02
771.333	0.02
771.639	0.02
771.946	0.02
772.253	0.02
772.56	0.02
772.867	0.01
773.173	0.01
773.48	0.01
773.786	0.01
774.093	0.01
774.399	0.02
774.705	0.02
775.012	0.02
775.318	0.02
775.624	0.01
775.93	0.02
776.236	0.01
776.542	0.02
776.848	0.02
777.154	0.02
777.459	0.02
777.765	0.02
778.071	0.02
778.376	0.02
778.682	0.01
778.987	0.01
779.292	0.01
779.598	0.01
779.903	0.01
780.208	0.01
780.513	0.01
780.818	0.01
781.123	0.01
781.428	0.01
781.733	0.01
782.038	0.01
782.343	0.01
782.647	0.01
782.952	0.01
783.256	0.01
783.561	0.01
783.865	0.01
784.17	0.01
784.474	0.01
784.778	0.01
785.082	0.01
785.386	0.01
785.69	0.01
785.994	0
786.298	0.01
786.602	0.01
786.906	0.01
787.209	0.01
787.513	0.01
787.817	0.01
788.12	0.01
788.424	0.01
788.727	0.01
789.03	0.02
789.333	0.01
789.637	0.02
789.94	0.02
790.243	0.02
790.546	0.02
790.849	0.02
791.152	0.02
791.454	0.01
791.757	0.02
792.06	0.02
792.362	0.01
792.665	0.01
792.967	0.01
793.27	0.01
793.572	0.01
793.874	0.01
794.177	0.01
794.479	0.01
794.781	0.01
795.083	0.01
795.385	0.01
795.687	0.01
795.989	0.01
796.29	0.01
796.592	0.01
796.894	0.01
797.195	0.01
797.497	0.01
797.798	0.01
798.1	0.01
798.401	0.01
798.702	0.01
799.003	0.01
799.304	0.01
799.605	0.01
799.906	0.01
800.207	0.01
800.508	0.01
800.809	0.01
801.11	0.01
801.41	0.01
801.711	0.02
802.011	0.01
802.312	0.01
802.612	0.01
802.913	0.02
803.213	0.01
803.513	0.01
803.813	0.01
804.113	0.01
804.413	0.01
804.713	0.02
805.013	0.01
805.313	0.01
805.613	0.01
805.912	0.01
806.212	0.01
806.511	0
806.811	0
807.11	0
807.41	-0
807.709	-0
808.008	-0
808.307	-0
808.606	0
808.905	0
809.204	0.01
809.503	0.01
809.802	0.01
810.101	0.01
810.399	0.01
810.698	0
810.997	0
811.295	0.01
811.593	0.01
811.892	0.01
812.19	0.01
812.488	0.02
812.786	0.01
813.084	0.01
813.383	0.02
813.68	0.01
813.978	0.01
814.276	0.01
814.574	0.01
814.872	0.01
815.169	0.02
815.467	0.01
815.764	0.01
816.062	0.01
816.359	0.01
816.656	0.01
816.954	0.01
817.251	0.01
817.548	0
817.845	0
818.142	0.01
818.439	0
818.735	0.01
819.032	0.01
819.329	0
819.626	0
819.922	-0
820.219	0
820.515	-0
820.811	0
821.108	0
821.404	0
821.7	0.01
821.996	0
822.292	0.01
822.588	0
822.884	0.01
823.18	0.01
823.475	0.01
823.771	0.01
824.067	0.02
824.362	0.01
824.658	0.02
824.953	0.02
825.249	0.02
825.544	0.01
825.839	0.01
826.134	0.01
826.429	0.01
826.724	0.01
827.019	0.02
827.314	0.02
827.609	0.01
827.904	0.01
828.198	0.02
828.493	0.01
828.787	0.01
829.082	0.01
829.376	0.01
829.671	0
829.965	0.01
830.259	0.01
830.553	0.01
830.847	0.01
831.141	0.01
831.435	0.01
831.729	0.01
832.023	0
832.317	0.01
832.61	0.01
832.904	0.01
833.197	0.01
833.491	0.02
833.784	0.03
834.077	0.02
834.371	0.02
834.664	0.03
834.957	0.02
835.25	0.02
835.543	0.02
835.836	0.02
836.129	0.01
836.421	0.02
836.714	0.01
837.007	0.01
837.299	0.01
837.592	0.01
837.884	0
838.177	0.01
838.469	0.01
838.761	0.01
839.053	0.01
839.345	0.02
839.637	0.01
839.929	-0.01
840.221	0.01
840.513	0
840.805	0.01
841.096	0.01
841.388	0.02
841.68	0.02
841.971	0.01
842.262	0
842.554	0.02
842.845	0
843.136	0.01
843.427	0.01
843.718	-0
844.009	0.01
844.3	0.01
844.591	0.01
844.882	0.01
845.173	0.01
845.463	0.01
845.754	0.01
846.044	0.01
846.335	0.01
846.625	0.01
846.915	0
847.206	0.01
847.496	0.01
847.786	0.01
848.076	0.02
848.366	0.01
848.656	0.01
848.945	0.01
849.235	0.02
849.525	0.03
849.814	0.01
850.104	0.02
850.393	0.01
850.683	0.01
850.972	0.02
851.261	0.02
851.551	0.01
851.84	0.01
852.129	0
852.418	0
852.707	-0
852.995	-0
853.284	0.02
853.573	-0
853.862	0.01
854.15	0.01
854.439	0.01
854.727	0.01
855.015	0.01
855.304	-0
855.592	0
855.88	0
856.168	0.01
856.456	0
856.744	0
857.032	-0
857.32	0
857.607	0.01
857.895	-0.01
858.183	0.01
858.47	0
858.757	0.01
859.045	-0
859.332	0.02
859.619	0.01
859.907	-0.01
860.194	0.02
860.481	0.01
860.768	0.01
861.054	0.02
861.341	-0.01
861.628	0.01
861.915	0.02
862.201	0.03
862.488	0.01
862.774	-0
863.061	0.01
863.347	0.01
863.633	0.01
863.919	0.02
864.205	0
864.491	-0
864.777	0.02
865.063	0
865.349	0.02
865.635	-0.01
865.92	0.04
866.206	0.02
866.492	0.02
866.777	0.01
867.062	-0.01
867.348	0.01
867.633	0.02
867.918	-0.04
868.203	0.01
868.488	0.03
868.773	0.01
869.058	-0
869.343	0.03
869.628	-0.02
869.912	-0.04
870.197	0.02
870.482	-0.02
870.766	-0.03
871.05	0.03
871.335	-0.01
871.619	-0.03
871.903	0
872.187	-0.01
872.471	-0
872.755	0.02
873.039	0.02
873.323	0.01
873.607	-0.02
873.89	-0.04
874.174	-0.07
874.458	-0.07
874.741	-0.02
875.024	-0.02
875.308	-0.1
875.591	0.02
875.874	0.05
876.157	-0.04
876.44	-0.06
876.723	0.03
877.006	-0.07
877.289	0
877.572	0.11
877.854	-0.02
878.137	0.01
878.42	-0.05
878.702	0.04
878.984	0.02
879.267	-0.14
879.549	0.03
879.831	0.07
880.113	-0.05
880.395	0.02
880.677	0.06
880.959	-0.08
