Data from Rubpy_EV_1200_EDTA_Buffered_Absorbance_14-19-16-673.txt Node
Date: Tue Jun 30 14:19:16 BST 2026
User: fpm-admin
Spectrometer: OFX00224
Trigger mode: 0
Integration Time (sec): 7.000000E-2
Scans to average: 3
Nonlinearity correction enabled: false
Boxcar width: 0
Storing dark spectrum: false
XAxis mode: Wavelengths
Number of Pixels in Spectrum: 2136
>>>>>Begin Spectral Data<<<<<
154.91	0.07
155.289	0.29
155.669	0.16
156.048	-0.17
156.428	0.01
156.807	1.08
157.186	-0.21
157.566	-0
157.945	0.05
158.325	-0.43
158.704	0.52
159.083	-0
159.462	0.09
159.842	0.13
160.221	-0.22
160.6	0.41
160.979	0.54
161.359	-0
161.738	-0
162.117	0.43
162.496	-0
162.875	0.02
163.254	0.54
163.633	-0
164.012	0.17
164.391	-0
164.77	-1.18
165.149	0.19
165.528	-0
165.907	-0.15
166.286	-0.57
166.665	-0.2
167.044	-0.59
167.423	0.11
167.802	-0
168.181	-0
168.559	-0
168.938	0.54
169.317	0.35
169.696	-1.41
170.074	-0
170.453	-0.89
170.832	-0.81
171.21	0.03
171.589	-0
171.968	-0
172.346	0.14
172.725	-0
173.103	-0
173.482	-0
173.861	0.28
174.239	-0
174.617	0.36
174.996	-0.1
175.374	-0.22
175.753	-0
176.131	-0
176.51	-0.32
176.888	-0
177.266	-0
177.645	-0.05
178.023	0.87
178.401	-0.44
178.779	-0.01
179.158	-0
179.536	0.64
179.914	0.1
180.292	-0.8
180.67	-0.14
181.048	-0.04
181.427	-0
181.805	-0.15
182.183	-0
182.561	-0
182.939	-0
183.317	-0.07
183.695	0.15
184.073	-0
184.451	-0.27
184.829	-0.08
185.206	0.16
185.584	0.2
185.962	-0.49
186.34	0.11
186.718	0.53
187.096	-0.06
187.473	-0
187.851	-0
188.229	0.07
188.607	0.1
188.984	0.22
189.362	0.28
189.74	0.19
190.117	0.4
190.495	0.1
190.872	0.03
191.25	0.3
191.627	0.23
192.005	0.15
192.382	0.28
192.76	0.11
193.137	0.32
193.515	0.23
193.892	0.13
194.269	0.26
194.647	0.19
195.024	0.21
195.401	0.31
195.779	0.19
196.156	0.18
196.533	0.11
196.91	0.21
197.288	0.21
197.665	0.19
198.042	0.32
198.419	0.32
198.796	0.15
199.173	0.12
199.55	0.07
199.927	0.13
200.304	0.1
200.681	0.25
201.058	0.12
201.435	0.1
201.812	0.19
202.189	0.26
202.566	0.3
202.943	0.18
203.32	0.2
203.697	0.18
204.073	0.24
204.45	0.22
204.827	0.21
205.204	0.17
205.58	0.3
205.957	0.34
206.334	0.23
206.71	0.1
207.087	0.17
207.464	0.24
207.84	0.31
208.217	0.23
208.593	0.2
208.97	0.23
209.346	0.17
209.723	0.26
210.099	0.18
210.476	0.27
210.852	0.19
211.228	0.48
211.605	0.32
211.981	0.25
212.357	0.2
212.733	0.17
213.11	0.23
213.486	0.1
213.862	0.1
214.238	0.21
214.614	0.2
214.991	0.13
215.367	0.14
215.743	0.37
216.119	0.26
216.495	0.19
216.871	0.4
217.247	0.27
217.623	0.25
217.999	0.19
218.375	0.3
218.751	0.26
219.127	0.2
219.502	0.13
219.878	0.19
220.254	0.17
220.63	0.18
221.006	0.29
221.381	0.23
221.757	0.19
222.133	0.31
222.508	0.22
222.884	0.3
223.26	0.24
223.635	0.22
224.011	0.12
224.386	0.16
224.762	0.23
225.137	0.21
225.513	0.18
225.888	0.24
226.264	0.2
226.639	0.23
227.014	0.22
227.39	0.22
227.765	0.19
228.14	0.15
228.516	0.28
228.891	0.21
229.266	0.2
229.641	0.17
230.017	0.36
230.392	0.09
230.767	0.34
231.142	0.21
231.517	0.23
231.892	0.23
232.267	0.23
232.642	0.3
233.017	0.36
233.392	0.26
233.767	0.2
234.142	0.18
234.517	0.23
234.892	0.16
235.267	0.2
235.641	0.34
236.016	0.24
236.391	0.22
236.766	0.15
237.14	0.14
237.515	0.19
237.89	0.23
238.264	0.2
238.639	0.14
239.014	0.32
239.388	0.26
239.763	0.15
240.137	0.19
240.512	0.12
240.886	0.15
241.261	0.1
241.635	0.13
242.009	0.18
242.384	0.21
242.758	0.33
243.132	0.1
243.507	0.23
243.881	0.2
244.255	0.21
244.629	0.34
245.004	0.19
245.378	0.27
245.752	0.19
246.126	0.3
246.5	0.18
246.874	0.24
247.248	0.24
247.622	0.1
247.996	0.28
248.37	0.24
248.744	0.14
249.118	0.14
249.492	0.55
249.866	0.16
250.24	0.23
250.613	0.15
250.987	0.12
251.361	0.25
251.735	0.17
252.108	0.18
252.482	0.24
252.856	0.14
253.229	0.26
253.603	0.18
253.977	0.23
254.35	0.1
254.724	0.25
255.097	0.23
255.471	0.26
255.844	0.21
256.218	0.16
256.591	0.22
256.964	0.2
257.338	0.12
257.711	0.19
258.084	0.17
258.458	0.19
258.831	0.17
259.204	0.3
259.577	0.25
259.95	0.24
260.323	0.24
260.697	0.22
261.07	0.24
261.443	0.19
261.816	0.23
262.189	0.24
262.562	0.16
262.935	0.14
263.308	0.17
263.68	0.14
264.053	0.2
264.426	0.19
264.799	0.28
265.172	0.27
265.545	0.26
265.917	0.19
266.29	0.21
266.663	0.33
267.035	0.21
267.408	0.24
267.781	0.2
268.153	0.31
268.526	0.22
268.898	0.21
269.271	0.18
269.643	0.18
270.016	0.21
270.388	0.26
270.76	0.22
271.133	0.28
271.505	0.18
271.877	0.23
272.25	0.24
272.622	0.33
272.994	0.26
273.366	0.24
273.739	0.31
274.111	0.19
274.483	0.26
274.855	0.23
275.227	0.16
275.599	0.2
275.971	0.23
276.343	0.16
276.715	0.29
277.087	0.22
277.459	0.17
277.831	0.21
278.203	0.28
278.574	0.26
278.946	0.26
279.318	0.15
279.69	0.25
280.061	0.22
280.433	0.27
280.805	0.26
281.176	0.27
281.548	0.25
281.92	0.17
282.291	0.23
282.663	0.23
283.034	0.22
283.406	0.22
283.777	0.24
284.148	0.21
284.52	0.36
284.891	0.23
285.262	0.22
285.634	0.26
286.005	0.26
286.376	0.26
286.747	0.22
287.119	0.21
287.49	0.29
287.861	0.21
288.232	0.21
288.603	0.26
288.974	0.15
289.345	0.27
289.716	0.18
290.087	0.2
290.458	0.22
290.829	0.41
291.2	0.3
291.571	0.25
291.941	0.26
292.312	0.16
292.683	0.26
293.054	0.24
293.424	0.26
293.795	0.22
294.166	0.23
294.536	0.23
294.907	0.31
295.277	0.23
295.648	0.28
296.018	0.2
296.389	0.23
296.759	0.21
297.13	0.22
297.5	0.14
297.871	0.28
298.241	0.23
298.611	0.28
298.981	0.22
299.352	0.25
299.722	0.2
300.092	0.24
300.462	0.18
300.832	0.22
301.202	0.19
301.573	0.15
301.943	0.17
302.313	0.17
302.683	0.17
303.053	0.19
303.422	0.15
303.792	0.18
304.162	0.17
304.532	0.17
304.902	0.18
305.272	0.19
305.641	0.19
306.011	0.19
306.381	0.19
306.75	0.2
307.12	0.21
307.49	0.2
307.859	0.2
308.229	0.21
308.598	0.21
308.968	0.21
309.337	0.22
309.707	0.22
310.076	0.22
310.445	0.22
310.815	0.22
311.184	0.23
311.553	0.23
311.923	0.23
312.292	0.23
312.661	0.23
313.03	0.23
313.399	0.23
313.768	0.23
314.137	0.23
314.506	0.23
314.875	0.23
315.244	0.23
315.613	0.23
315.982	0.23
316.351	0.23
316.72	0.22
317.089	0.23
317.458	0.23
317.826	0.23
318.195	0.23
318.564	0.22
318.933	0.22
319.301	0.22
319.67	0.21
320.038	0.21
320.407	0.21
320.775	0.21
321.144	0.21
321.512	0.21
321.881	0.2
322.249	0.21
322.618	0.2
322.986	0.2
323.354	0.2
323.723	0.2
324.091	0.19
324.459	0.19
324.827	0.2
325.195	0.19
325.564	0.19
325.932	0.19
326.3	0.19
326.668	0.19
327.036	0.19
327.404	0.19
327.772	0.19
328.14	0.19
328.508	0.19
328.875	0.19
329.243	0.19
329.611	0.18
329.979	0.19
330.346	0.19
330.714	0.19
331.082	0.2
331.449	0.2
331.817	0.2
332.185	0.2
332.552	0.2
332.92	0.2
333.287	0.2
333.655	0.21
334.022	0.21
334.389	0.21
334.757	0.21
335.124	0.21
335.491	0.22
335.859	0.22
336.226	0.22
336.593	0.22
336.96	0.22
337.327	0.22
337.695	0.23
338.062	0.23
338.429	0.24
338.796	0.24
339.163	0.24
339.53	0.24
339.897	0.25
340.263	0.25
340.63	0.26
340.997	0.27
341.364	0.27
341.731	0.27
342.097	0.28
342.464	0.28
342.831	0.29
343.197	0.29
343.564	0.3
343.931	0.3
344.297	0.31
344.664	0.32
345.03	0.31
345.396	0.32
345.763	0.32
346.129	0.33
346.496	0.33
346.862	0.33
347.228	0.34
347.594	0.34
347.961	0.35
348.327	0.36
348.693	0.36
349.059	0.37
349.425	0.37
349.791	0.38
350.157	0.39
350.523	0.4
350.889	0.39
351.255	0.41
351.621	0.41
351.987	0.41
352.353	0.43
352.719	0.44
353.084	0.45
353.45	0.45
353.816	0.47
354.181	0.47
354.547	0.48
354.913	0.5
355.278	0.5
355.644	0.51
356.009	0.53
356.375	0.53
356.74	0.55
357.106	0.56
357.471	0.57
357.836	0.58
358.202	0.59
358.567	0.6
358.932	0.61
359.297	0.63
359.663	0.64
360.028	0.65
360.393	0.66
360.758	0.66
361.123	0.66
361.488	0.67
361.853	0.68
362.218	0.69
362.583	0.7
362.948	0.7
363.312	0.72
363.677	0.72
364.042	0.74
364.407	0.75
364.772	0.76
365.136	0.77
365.501	0.79
365.865	0.8
366.23	0.81
366.595	0.82
366.959	0.85
367.324	0.87
367.688	0.88
368.052	0.89
368.417	0.9
368.781	0.92
369.145	0.93
369.51	0.94
369.874	0.94
370.238	0.93
370.602	0.93
370.967	0.93
371.331	0.93
371.695	0.93
372.059	0.93
372.423	0.93
372.787	0.91
373.151	0.91
373.515	0.92
373.878	0.91
374.242	0.91
374.606	0.91
374.97	0.9
375.334	0.91
375.697	0.92
376.061	0.92
376.425	0.92
376.788	0.92
377.152	0.93
377.515	0.95
377.879	0.96
378.242	0.95
378.606	0.96
378.969	0.98
379.333	0.99
379.696	1.01
380.059	1.03
380.422	1.03
380.786	1.05
381.149	1.07
381.512	1.09
381.875	1.1
382.238	1.12
382.601	1.16
382.964	1.19
383.327	1.21
383.69	1.25
384.053	1.27
384.416	1.3
384.779	1.33
385.142	1.36
385.504	1.37
385.867	1.39
386.23	1.41
386.593	1.42
386.955	1.42
387.318	1.42
387.68	1.42
388.043	1.39
388.405	1.4
388.768	1.39
389.13	1.37
389.493	1.36
389.855	1.36
390.217	1.35
390.58	1.36
390.942	1.36
391.304	1.37
391.666	1.38
392.028	1.41
392.391	1.43
392.753	1.47
393.115	1.52
393.477	1.54
393.839	1.59
394.201	1.65
394.563	1.7
394.924	1.79
395.286	1.8
395.648	1.84
396.01	1.85
396.371	1.89
396.733	1.88
397.095	1.9
397.456	1.89
397.818	1.89
398.18	1.91
398.541	1.89
398.903	1.89
399.264	1.83
399.625	1.81
399.987	1.75
400.348	1.71
400.709	1.62
401.071	1.56
401.432	1.48
401.793	1.4
402.154	1.32
402.515	1.22
402.876	1.15
403.238	1.08
403.599	0.99
403.96	0.93
404.32	0.87
404.681	0.81
405.042	0.76
405.403	0.7
405.764	0.65
406.125	0.62
406.485	0.58
406.846	0.53
407.207	0.5
407.567	0.47
407.928	0.45
408.288	0.42
408.649	0.4
409.009	0.38
409.37	0.36
409.73	0.34
410.091	0.32
410.451	0.3
410.811	0.29
411.171	0.28
411.532	0.27
411.892	0.26
412.252	0.24
412.612	0.24
412.972	0.23
413.332	0.22
413.692	0.22
414.052	0.21
414.412	0.2
414.772	0.19
415.132	0.19
415.492	0.18
415.851	0.18
416.211	0.17
416.571	0.17
416.931	0.16
417.29	0.16
417.65	0.16
418.009	0.15
418.369	0.15
418.728	0.15
419.088	0.14
419.447	0.15
419.807	0.14
420.166	0.13
420.525	0.13
420.884	0.13
421.244	0.13
421.603	0.13
421.962	0.13
422.321	0.12
422.68	0.12
423.039	0.12
423.398	0.12
423.757	0.12
424.116	0.1
424.475	0.11
424.834	0.11
425.193	0.1
425.551	0.1
425.91	0.11
426.269	0.1
426.628	0.11
426.986	0.1
427.345	0.1
427.703	0.1
428.062	0.1
428.42	0.1
428.779	0.1
429.137	0.1
429.496	0.09
429.854	0.1
430.212	0.1
430.57	0.09
430.929	0.1
431.287	0.1
431.645	0.08
432.003	0.08
432.361	0.08
432.719	0.09
433.077	0.08
433.435	0.08
433.793	0.09
434.151	0.08
434.509	0.09
434.866	0.08
435.224	0.08
435.582	0.08
435.94	0.08
436.297	0.07
436.655	0.08
437.012	0.09
437.37	0.08
437.727	0.08
438.085	0.07
438.442	0.08
438.8	0.08
439.157	0.07
439.514	0.08
439.872	0.07
440.229	0.08
440.586	0.07
440.943	0.07
441.3	0.07
441.657	0.07
442.014	0.07
442.371	0.07
442.728	0.07
443.085	0.07
443.442	0.07
443.799	0.07
444.156	0.06
444.513	0.05
444.869	0.06
445.226	0.07
445.583	0.06
445.939	0.05
446.296	0.06
446.652	0.06
447.009	0.06
447.365	0.06
447.722	0.07
448.078	0.06
448.434	0.05
448.791	0.06
449.147	0.05
449.503	0.06
449.859	0.06
450.215	0.06
450.571	0.06
450.928	0.05
451.284	0.05
451.64	0.05
451.995	0.05
452.351	0.05
452.707	0.04
453.063	0.04
453.419	0.04
453.775	0.05
454.13	0.05
454.486	0.03
454.842	0.04
455.197	0.03
455.553	0.05
455.908	0.04
456.264	0.03
456.619	0.04
456.975	0.04
457.33	0.03
457.685	0.03
458.04	0.03
458.396	0.02
458.751	0.02
459.106	0.02
459.461	0.02
459.816	0.03
460.171	0.01
460.526	0.02
460.881	0.01
461.236	0.02
461.591	0.01
461.946	0.01
462.301	0.01
462.655	0.01
463.01	-0
463.365	0
463.719	-0
464.074	-0.01
464.428	-0.01
464.783	-0.01
465.137	-0.01
465.492	-0.01
465.846	-0.01
466.201	-0.01
466.555	-0.01
466.909	-0.01
467.263	-0.01
467.618	-0
467.972	-0.01
468.326	-0.02
468.68	-0.01
469.034	-0.01
469.388	-0.01
469.742	-0.01
470.096	-0.02
470.45	-0.01
470.804	-0.01
471.157	-0.01
471.511	-0.01
471.865	-0.01
472.218	-0.01
472.572	-0
472.926	-0.01
473.279	-0
473.633	0
473.986	0
474.34	0
474.693	0.01
475.046	0.02
475.4	0.02
475.753	0.02
476.106	0.03
476.459	0.03
476.812	0.04
477.165	0.04
477.519	0.03
477.872	0.04
478.224	0.04
478.577	0.04
478.93	0.05
479.283	0.05
479.636	0.05
479.989	0.06
480.341	0.06
480.694	0.06
481.047	0.06
481.399	0.07
481.752	0.07
482.104	0.07
482.457	0.08
482.809	0.07
483.162	0.08
483.514	0.07
483.866	0.08
484.219	0.08
484.571	0.08
484.923	0.08
485.275	0.08
485.627	0.08
485.979	0.09
486.331	0.09
486.683	0.09
487.035	0.09
487.387	0.09
487.739	0.1
488.091	0.1
488.443	0.1
488.794	0.1
489.146	0.1
489.498	0.11
489.849	0.11
490.201	0.11
490.552	0.11
490.904	0.11
491.255	0.11
491.607	0.12
491.958	0.11
492.309	0.12
492.661	0.12
493.012	0.12
493.363	0.12
493.714	0.13
494.065	0.13
494.416	0.13
494.767	0.13
495.118	0.13
495.469	0.13
495.82	0.13
496.171	0.13
496.522	0.14
496.872	0.14
497.223	0.14
497.574	0.14
497.924	0.14
498.275	0.14
498.626	0.14
498.976	0.15
499.327	0.15
499.677	0.15
500.027	0.15
500.378	0.15
500.728	0.16
501.078	0.16
501.428	0.16
501.779	0.16
502.129	0.17
502.479	0.17
502.829	0.17
503.179	0.17
503.529	0.18
503.879	0.17
504.229	0.18
504.578	0.18
504.928	0.18
505.278	0.18
505.628	0.18
505.977	0.19
506.327	0.2
506.676	0.19
507.026	0.19
507.375	0.2
507.725	0.19
508.074	0.2
508.424	0.2
508.773	0.2
509.122	0.2
509.471	0.2
509.82	0.2
510.17	0.21
510.519	0.21
510.868	0.21
511.217	0.21
511.566	0.22
511.915	0.22
512.263	0.22
512.612	0.22
512.961	0.23
513.31	0.23
513.659	0.23
514.007	0.23
514.356	0.23
514.704	0.23
515.053	0.24
515.401	0.24
515.75	0.24
516.098	0.24
516.447	0.24
516.795	0.24
517.143	0.25
517.491	0.25
517.839	0.25
518.188	0.25
518.536	0.26
518.884	0.26
519.232	0.26
519.58	0.26
519.928	0.26
520.275	0.26
520.623	0.27
520.971	0.26
521.319	0.27
521.666	0.28
522.014	0.28
522.362	0.28
522.709	0.28
523.057	0.28
523.404	0.28
523.752	0.28
524.099	0.28
524.446	0.29
524.794	0.29
525.141	0.29
525.488	0.29
525.835	0.29
526.182	0.3
526.529	0.31
526.876	0.3
527.223	0.3
527.57	0.31
527.917	0.31
528.264	0.31
528.611	0.31
528.958	0.32
529.304	0.31
529.651	0.32
529.998	0.33
530.344	0.32
530.691	0.33
531.037	0.33
531.384	0.33
531.73	0.33
532.076	0.34
532.423	0.34
532.769	0.34
533.115	0.34
533.461	0.35
533.807	0.35
534.154	0.35
534.5	0.35
534.846	0.36
535.192	0.36
535.537	0.36
535.883	0.36
536.229	0.37
536.575	0.37
536.921	0.37
537.266	0.38
537.612	0.37
537.957	0.37
538.303	0.38
538.649	0.38
538.994	0.39
539.339	0.39
539.685	0.4
540.03	0.4
540.375	0.4
540.721	0.4
541.066	0.41
541.411	0.41
541.756	0.4
542.101	0.41
542.446	0.42
542.791	0.42
543.136	0.42
543.481	0.42
543.825	0.43
544.17	0.43
544.515	0.43
544.86	0.44
545.204	0.44
545.549	0.44
545.893	0.44
546.238	0.45
546.582	0.45
546.927	0.45
547.271	0.45
547.615	0.45
547.96	0.46
548.304	0.46
548.648	0.46
548.992	0.47
549.336	0.47
549.68	0.47
550.024	0.48
550.368	0.48
550.712	0.48
551.056	0.48
551.4	0.49
551.743	0.49
552.087	0.49
552.431	0.49
552.774	0.49
553.118	0.5
553.462	0.5
553.805	0.5
554.148	0.51
554.492	0.51
554.835	0.5
555.178	0.51
555.522	0.51
555.865	0.51
556.208	0.51
556.551	0.51
556.894	0.52
557.237	0.52
557.58	0.52
557.923	0.52
558.266	0.52
558.609	0.53
558.952	0.53
559.294	0.53
559.637	0.53
559.98	0.53
560.322	0.53
560.665	0.53
561.007	0.54
561.35	0.54
561.692	0.54
562.034	0.54
562.377	0.55
562.719	0.54
563.061	0.54
563.403	0.55
563.745	0.54
564.088	0.54
564.43	0.54
564.772	0.54
565.113	0.55
565.455	0.55
565.797	0.55
566.139	0.55
566.481	0.55
566.822	0.55
567.164	0.55
567.506	0.55
567.847	0.56
568.189	0.56
568.53	0.56
568.872	0.56
569.213	0.56
569.554	0.56
569.895	0.56
570.237	0.56
570.578	0.56
570.919	0.56
571.26	0.56
571.601	0.56
571.942	0.56
572.283	0.56
572.624	0.57
572.965	0.57
573.306	0.57
573.646	0.56
573.987	0.56
574.328	0.56
574.668	0.57
575.009	0.57
575.349	0.57
575.69	0.56
576.03	0.56
576.37	0.56
576.711	0.56
577.051	0.56
577.391	0.56
577.731	0.57
578.072	0.57
578.412	0.57
578.752	0.57
579.092	0.57
579.431	0.56
579.771	0.54
580.111	0.53
580.451	0.54
580.791	0.57
581.13	0.57
581.47	0.57
581.81	0.57
582.149	0.57
582.489	0.58
582.828	0.57
583.167	0.55
583.507	0.51
583.846	0.49
584.185	0.52
584.525	0.55
584.864	0.57
585.203	0.59
585.542	0.59
585.881	0.6
586.22	0.6
586.559	0.59
586.898	0.59
587.236	0.58
587.575	0.57
587.914	0.59
588.252	0.6
588.591	0.6
588.93	0.61
589.268	0.61
589.607	0.61
589.945	0.61
590.283	0.61
590.622	0.61
590.96	0.62
591.298	0.63
591.636	0.63
591.974	0.63
592.313	0.64
592.651	0.64
592.989	0.64
593.326	0.64
593.664	0.65
594.002	0.65
594.34	0.65
594.678	0.65
595.015	0.64
595.353	0.64
595.691	0.65
596.028	0.66
596.366	0.66
596.703	0.66
597.04	0.67
597.378	0.67
597.715	0.67
598.052	0.68
598.389	0.68
598.726	0.69
599.064	0.69
599.401	0.69
599.738	0.69
600.074	0.69
600.411	0.69
600.748	0.69
601.085	0.69
601.422	0.68
601.758	0.68
602.095	0.69
602.432	0.68
602.768	0.69
603.105	0.69
603.441	0.69
603.777	0.69
604.114	0.69
604.45	0.7
604.786	0.7
605.122	0.7
605.459	0.7
605.795	0.7
606.131	0.69
606.467	0.7
606.803	0.7
607.139	0.7
607.474	0.69
607.81	0.69
608.146	0.69
608.482	0.69
608.817	0.69
609.153	0.68
609.488	0.68
609.824	0.68
610.159	0.68
610.495	0.68
610.83	0.68
611.165	0.68
611.5	0.68
611.836	0.68
612.171	0.68
612.506	0.68
612.841	0.68
613.176	0.67
613.511	0.67
613.845	0.66
614.18	0.66
614.515	0.66
614.85	0.66
615.184	0.65
615.519	0.66
615.854	0.66
616.188	0.66
616.523	0.65
616.857	0.65
617.191	0.65
617.526	0.64
617.86	0.65
618.194	0.64
618.528	0.64
618.862	0.64
619.196	0.64
619.53	0.64
619.864	0.64
620.198	0.63
620.532	0.63
620.866	0.63
621.2	0.63
621.533	0.63
621.867	0.63
622.201	0.63
622.534	0.62
622.868	0.62
623.201	0.62
623.534	0.61
623.868	0.61
624.201	0.61
624.534	0.61
624.868	0.6
625.201	0.6
625.534	0.6
625.867	0.6
626.2	0.6
626.533	0.59
626.865	0.59
627.198	0.59
627.531	0.58
627.864	0.58
628.196	0.58
628.529	0.58
628.862	0.58
629.194	0.58
629.527	0.57
629.859	0.57
630.191	0.57
630.524	0.57
630.856	0.56
631.188	0.55
631.52	0.55
631.852	0.54
632.184	0.54
632.516	0.54
632.848	0.53
633.18	0.53
633.512	0.52
633.844	0.52
634.175	0.52
634.507	0.52
634.839	0.51
635.17	0.5
635.502	0.5
635.833	0.5
636.165	0.5
636.496	0.49
636.827	0.49
637.159	0.48
637.49	0.48
637.821	0.47
638.152	0.47
638.483	0.47
638.814	0.47
639.145	0.46
639.476	0.46
639.807	0.45
640.137	0.45
640.468	0.45
640.799	0.45
641.129	0.44
641.46	0.44
641.791	0.43
642.121	0.43
642.451	0.43
642.782	0.43
643.112	0.43
643.442	0.42
643.773	0.42
644.103	0.41
644.433	0.41
644.763	0.41
645.093	0.41
645.423	0.41
645.753	0.41
646.082	0.4
646.412	0.4
646.742	0.4
647.072	0.39
647.401	0.4
647.731	0.39
648.06	0.4
648.39	0.39
648.719	0.39
649.048	0.39
649.378	0.39
649.707	0.39
650.036	0.38
650.365	0.38
650.694	0.38
651.023	0.37
651.352	0.37
651.681	0.37
652.01	0.37
652.339	0.37
652.668	0.38
652.996	0.38
653.325	0.38
653.654	0.38
653.982	0.37
654.311	0.37
654.639	0.37
654.967	0.37
655.296	0.37
655.624	0.37
655.952	0.37
656.28	0.37
656.609	0.37
656.937	0.37
657.265	0.37
657.593	0.29
657.92	0.15
658.248	0.1
658.576	0.11
658.904	0.21
659.231	0.3
659.559	0.35
659.887	0.36
660.214	0.36
660.542	0.36
660.869	0.36
661.196	0.36
661.524	0.36
661.851	0.36
662.178	0.36
662.505	0.36
662.832	0.36
663.159	0.36
663.486	0.36
663.813	0.36
664.14	0.36
664.467	0.36
664.794	0.36
665.12	0.36
665.447	0.35
665.774	0.35
666.1	0.35
666.427	0.35
666.753	0.35
667.079	0.34
667.406	0.35
667.732	0.34
668.058	0.34
668.384	0.34
668.71	0.34
669.036	0.34
669.362	0.34
669.688	0.34
670.014	0.34
670.34	0.34
670.666	0.34
670.991	0.33
671.317	0.33
671.643	0.33
671.968	0.33
672.294	0.33
672.619	0.33
672.945	0.33
673.27	0.32
673.595	0.32
673.92	0.32
674.246	0.31
674.571	0.31
674.896	0.31
675.221	0.31
675.546	0.31
675.87	0.31
676.195	0.3
676.52	0.3
676.845	0.3
677.169	0.3
677.494	0.29
677.819	0.3
678.143	0.29
678.468	0.29
678.792	0.29
679.116	0.29
679.44	0.28
679.765	0.28
680.089	0.27
680.413	0.27
680.737	0.27
681.061	0.27
681.385	0.27
681.709	0.26
682.033	0.26
682.356	0.26
682.68	0.26
683.004	0.26
683.327	0.25
683.651	0.25
683.974	0.25
684.298	0.24
684.621	0.24
684.944	0.24
685.268	0.24
685.591	0.23
685.914	0.23
686.237	0.23
686.56	0.22
686.883	0.22
687.206	0.22
687.529	0.21
687.852	0.21
688.175	0.21
688.497	0.21
688.82	0.21
689.142	0.21
689.465	0.2
689.787	0.2
690.11	0.2
690.432	0.2
690.755	0.2
691.077	0.19
691.399	0.19
691.721	0.19
692.043	0.19
692.365	0.18
692.687	0.18
693.009	0.18
693.331	0.18
693.653	0.17
693.974	0.17
694.296	0.17
694.618	0.17
694.939	0.17
695.261	0.17
695.582	0.16
695.904	0.16
696.225	0.16
696.546	0.16
696.868	0.16
697.189	0.16
697.51	0.16
697.831	0.15
698.152	0.15
698.473	0.15
698.794	0.15
699.114	0.14
699.435	0.13
699.756	0.14
700.077	0.14
700.397	0.14
700.718	0.14
701.038	0.14
701.359	0.14
701.679	0.13
701.999	0.13
702.32	0.13
702.64	0.13
702.96	0.13
703.28	0.13
703.6	0.13
703.92	0.13
704.24	0.12
704.56	0.12
704.879	0.12
705.199	0.12
705.519	0.13
705.838	0.13
706.158	0.13
706.478	0.12
706.797	0.12
707.116	0.12
707.436	0.12
707.755	0.12
708.074	0.12
708.393	0.12
708.712	0.12
709.031	0.11
709.35	0.11
709.669	0.1
709.988	0.11
710.307	0.11
710.626	0.11
710.944	0.11
711.263	0.11
711.582	0.11
711.9	0.11
712.219	0.11
712.537	0.11
712.855	0.11
713.174	0.11
713.492	0.11
713.81	0.12
714.128	0.11
714.446	0.11
714.764	0.11
715.082	0.11
715.4	0.11
715.718	0.11
716.035	0.11
716.353	0.11
716.671	0.11
716.988	0.11
717.306	0.11
717.623	0.11
717.941	0.11
718.258	0.12
718.575	0.11
718.893	0.12
719.21	0.11
719.527	0.11
719.844	0.11
720.161	0.11
720.478	0.11
720.795	0.12
721.112	0.12
721.428	0.12
721.745	0.12
722.062	0.12
722.378	0.12
722.695	0.12
723.011	0.12
723.328	0.12
723.644	0.12
723.96	0.12
724.276	0.12
724.593	0.12
724.909	0.12
725.225	0.12
725.541	0.12
725.857	0.12
726.173	0.12
726.488	0.12
726.804	0.12
727.12	0.12
727.435	0.12
727.751	0.12
728.067	0.12
728.382	0.13
728.697	0.13
729.013	0.13
729.328	0.12
729.643	0.13
729.958	0.13
730.273	0.13
730.588	0.13
730.903	0.13
731.218	0.13
731.533	0.13
731.848	0.13
732.163	0.13
732.477	0.13
732.792	0.13
733.107	0.12
733.421	0.13
733.736	0.13
734.05	0.13
734.364	0.13
734.678	0.13
734.993	0.13
735.307	0.13
735.621	0.13
735.935	0.13
736.249	0.13
736.563	0.13
736.877	0.13
737.19	0.13
737.504	0.13
737.818	0.13
738.131	0.13
738.445	0.13
738.758	0.13
739.072	0.13
739.385	0.13
739.698	0.13
740.012	0.13
740.325	0.12
740.638	0.12
740.951	0.12
741.264	0.12
741.577	0.12
741.89	0.12
742.203	0.12
742.515	0.12
742.828	0.12
743.141	0.12
743.453	0.12
743.766	0.11
744.078	0.11
744.391	0.11
744.703	0.11
745.015	0.11
745.327	0.11
745.639	0.11
745.952	0.1
746.264	0.11
746.575	0.1
746.887	0.1
747.199	0.1
747.511	0.1
747.823	0.1
748.134	0.1
748.446	0.1
748.757	0.1
749.069	0.1
749.38	0.1
749.692	0.09
750.003	0.09
750.314	0.09
750.625	0.09
750.936	0.09
751.248	0.08
751.559	0.08
751.869	0.08
752.18	0.08
752.491	0.08
752.802	0.08
753.112	0.08
753.423	0.08
753.734	0.07
754.044	0.07
754.355	0.07
754.665	0.07
754.975	0.07
755.285	0.07
755.596	0.06
755.906	0.06
756.216	0.07
756.526	0.07
756.836	0.07
757.146	0.06
757.455	0.06
757.765	0.06
758.075	0.06
758.385	0.06
758.694	0.06
759.004	0.06
759.313	0.05
759.622	0.05
759.932	0.05
760.241	0.05
760.55	0.05
760.859	0.05
761.168	0.05
761.477	0.05
761.786	0.05
762.095	0.05
762.404	0.05
762.713	0.05
763.021	0.05
763.33	0.05
763.639	0.05
763.947	0.05
764.256	0.05
764.564	0.05
764.872	0.05
765.181	0.05
765.489	0.05
765.797	0.05
766.105	0.05
766.413	0.05
766.721	0.05
767.029	0.05
767.337	0.05
767.644	0.05
767.952	0.05
768.26	0.04
768.567	0.05
768.875	0.04
769.182	0.04
769.49	0.04
769.797	0.04
770.104	0.04
770.411	0.04
770.718	0.04
771.026	0.04
771.333	0.04
771.639	0.05
771.946	0.04
772.253	0.04
772.56	0.04
772.867	0.04
773.173	0.04
773.48	0.03
773.786	0.04
774.093	0.03
774.399	0.04
774.705	0.04
775.012	0.04
775.318	0.04
775.624	0.04
775.93	0.04
776.236	0.03
776.542	0.04
776.848	0.04
777.154	0.03
777.459	0.03
777.765	0.04
778.071	0.03
778.376	0.03
778.682	0.03
778.987	0.03
779.292	0.03
779.598	0.03
779.903	0.03
780.208	0.03
780.513	0.03
780.818	0.03
781.123	0.03
781.428	0.03
781.733	0.03
782.038	0.03
782.343	0.03
782.647	0.03
782.952	0.03
783.256	0.03
783.561	0.03
783.865	0.03
784.17	0.03
784.474	0.03
784.778	0.03
785.082	0.03
785.386	0.03
785.69	0.03
785.994	0.03
786.298	0.03
786.602	0.03
786.906	0.03
787.209	0.03
787.513	0.03
787.817	0.03
788.12	0.03
788.424	0.03
788.727	0.03
789.03	0.04
789.333	0.03
789.637	0.04
789.94	0.03
790.243	0.03
790.546	0.03
790.849	0.03
791.152	0.04
791.454	0.03
791.757	0.03
792.06	0.03
792.362	0.03
792.665	0.03
792.967	0.03
793.27	0.03
793.572	0.03
793.874	0.03
794.177	0.03
794.479	0.03
794.781	0.03
795.083	0.03
795.385	0.03
795.687	0.03
795.989	0.03
796.29	0.03
796.592	0.03
796.894	0.03
797.195	0.03
797.497	0.03
797.798	0.03
798.1	0.03
798.401	0.03
798.702	0.03
799.003	0.03
799.304	0.03
799.605	0.03
799.906	0.03
800.207	0.03
800.508	0.03
800.809	0.03
801.11	0.03
801.41	0.04
801.711	0.04
802.011	0.04
802.312	0.04
802.612	0.04
802.913	0.04
803.213	0.04
803.513	0.03
803.813	0.03
804.113	0.03
804.413	0.03
804.713	0.03
805.013	0.03
805.313	0.03
805.613	0.03
805.912	0.02
806.212	0.03
806.511	0.02
806.811	0.02
807.11	0.02
807.41	0.02
807.709	0.02
808.008	0.02
808.307	0.02
808.606	0.02
808.905	0.02
809.204	0.03
809.503	0.03
809.802	0.03
810.101	0.03
810.399	0.03
810.698	0.03
810.997	0.03
811.295	0.02
811.593	0.03
811.892	0.03
812.19	0.03
812.488	0.03
812.786	0.03
813.084	0.03
813.383	0.03
813.68	0.03
813.978	0.03
814.276	0.03
814.574	0.03
814.872	0.03
815.169	0.03
815.467	0.03
815.764	0.03
816.062	0.03
816.359	0.03
816.656	0.03
816.954	0.03
817.251	0.03
817.548	0.02
817.845	0.02
818.142	0.03
818.439	0.02
818.735	0.03
819.032	0.03
819.329	0.03
819.626	0.02
819.922	0.02
820.219	0.02
820.515	0.02
820.811	0.02
821.108	0.02
821.404	0.03
821.7	0.03
821.996	0.03
822.292	0.04
822.588	0.02
822.884	0.03
823.18	0.04
823.475	0.04
823.771	0.04
824.067	0.04
824.362	0.03
824.658	0.04
824.953	0.04
825.249	0.03
825.544	0.03
825.839	0.03
826.134	0.03
826.429	0.04
826.724	0.03
827.019	0.03
827.314	0.03
827.609	0.03
827.904	0.03
828.198	0.04
828.493	0.03
828.787	0.03
829.082	0.03
829.376	0.03
829.671	0.03
829.965	0.03
830.259	0.02
830.553	0.03
830.847	0.03
831.141	0.03
831.435	0.03
831.729	0.03
832.023	0.03
832.317	0.03
832.61	0.04
832.904	0.04
833.197	0.03
833.491	0.04
833.784	0.04
834.077	0.04
834.371	0.03
834.664	0.04
834.957	0.04
835.25	0.04
835.543	0.04
835.836	0.04
836.129	0.03
836.421	0.03
836.714	0.04
837.007	0.03
837.299	0.03
837.592	0.04
837.884	0.03
838.177	0.04
838.469	0.04
838.761	0.03
839.053	0.03
839.345	0.03
839.637	0.03
839.929	0.01
840.221	0.03
840.513	0.02
840.805	0.03
841.096	0.03
841.388	0.04
841.68	0.04
841.971	0.03
842.262	0.02
842.554	0.03
842.845	0.02
843.136	0.03
843.427	0.03
843.718	0.03
844.009	0.02
844.3	0.02
844.591	0.03
844.882	0.03
845.173	0.03
845.463	0.03
845.754	0.03
846.044	0.03
846.335	0.03
846.625	0.04
846.915	0.03
847.206	0.04
847.496	0.04
847.786	0.04
848.076	0.03
848.366	0.04
848.656	0.04
848.945	0.03
849.235	0.04
849.525	0.04
849.814	0.03
850.104	0.04
850.393	0.03
850.683	0.04
850.972	0.03
851.261	0.04
851.551	0.04
851.84	0.03
852.129	0.02
852.418	0.03
852.707	0.02
852.995	0.01
853.284	0.03
853.573	0.02
853.862	0.02
854.15	0.03
854.439	0.04
854.727	0.03
855.015	0.02
855.304	0.02
855.592	0.02
855.88	0.04
856.168	0.02
856.456	0.02
856.744	0.03
857.032	0.02
857.32	0.02
857.607	0.02
857.895	0.04
858.183	0.03
858.47	0.04
858.757	0.03
859.045	0.02
859.332	0.03
859.619	0.02
859.907	0.03
860.194	0.04
860.481	0.03
860.768	0.04
861.054	0.03
861.341	0.03
861.628	0.04
861.915	0.03
862.201	0.03
862.488	0.05
862.774	0.02
863.061	0.01
863.347	0.04
863.633	0.02
863.919	0.04
864.205	0.01
864.491	0.04
864.777	0.04
865.063	0.04
865.349	0.04
865.635	0.03
865.92	0.04
866.206	0.05
866.492	0.04
866.777	0.04
867.062	0.05
867.348	0.04
867.633	0.02
867.918	0.02
868.203	0.04
868.488	0.05
868.773	0.03
869.058	0.05
869.343	0.02
869.628	-0.02
869.912	0
870.197	0.03
870.482	0.02
870.766	-0
871.05	0.01
871.335	-0.02
871.619	0.01
871.903	0.01
872.187	-0.02
872.471	0.01
872.755	0
873.039	0.01
873.323	0.03
873.607	-0.01
873.89	0.01
874.174	-0.03
874.458	-0.01
874.741	-0.03
875.024	-0.02
875.308	-0.04
875.591	-0.04
875.874	0.06
876.157	-0.07
876.44	-0.04
876.723	0.01
877.006	0.03
877.289	-0.02
877.572	0.03
877.854	-0.03
878.137	0.03
878.42	-0.01
878.702	-0
878.984	0.01
879.267	-0.08
879.549	0.09
879.831	-0.06
880.113	-0.01
880.395	0.16
880.677	0.1
880.959	-0.11
