Data from Rubpy_EV_1200_EDTA_Buffered_Absorbance_14-13-44-686.txt Node
Date: Tue Jun 30 14:13:44 BST 2026
User: fpm-admin
Spectrometer: OFX00224
Trigger mode: 0
Integration Time (sec): 7.000000E-2
Scans to average: 3
Nonlinearity correction enabled: false
Boxcar width: 0
Storing dark spectrum: false
XAxis mode: Wavelengths
Number of Pixels in Spectrum: 2136
>>>>>Begin Spectral Data<<<<<
154.91	-0.08
155.289	-0
155.669	-0.27
156.048	0.09
156.428	0.19
156.807	-0
157.186	-0.04
157.566	0.46
157.945	-0.17
158.325	-0.29
158.704	0.22
159.083	-0.44
159.462	-0
159.842	-0.02
160.221	0.32
160.6	-0
160.979	-0.2
161.359	-0.2
161.738	-0
162.117	-0
162.496	-0
162.875	-0.18
163.254	0.1
163.633	-0
164.012	0.82
164.391	0.33
164.77	-0.7
165.149	-0
165.528	-0
165.907	-0
166.286	-0
166.665	-0.22
167.044	-0.3
167.423	0.45
167.802	-0.1
168.181	-0
168.559	-0
168.938	-0.23
169.317	-0
169.696	-0.3
170.074	-1.41
170.453	-0
170.832	-0.6
171.21	-0.24
171.589	-0.06
171.968	-0
172.346	-0
172.725	0.12
173.103	-0
173.482	0.15
173.861	-0
174.239	1.1
174.617	0.09
174.996	0.12
175.374	-0.41
175.753	-0.78
176.131	-0
176.51	0.48
176.888	0.15
177.266	-0
177.645	-0.03
178.023	0.61
178.401	-0.24
178.779	0.08
179.158	-0
179.536	0.27
179.914	-0.1
180.292	-0
180.67	0.28
181.048	-0.32
181.427	0.1
181.805	-0
182.183	-0
182.561	-0
182.939	-0
183.317	-0
183.695	0.15
184.073	-0.1
184.451	-0.48
184.829	0.09
185.206	0.19
185.584	0.1
185.962	-0.13
186.34	-0
186.718	-0
187.096	-0.32
187.473	-0
187.851	-0
188.229	-0
188.607	0.14
188.984	0.11
189.362	0.23
189.74	0.06
190.117	0
190.495	0.01
190.872	-0
191.25	0.21
191.627	0.12
192.005	0.04
192.382	0.13
192.76	0.04
193.137	0.22
193.515	0.18
193.892	0.15
194.269	0.16
194.647	0
195.024	0.06
195.401	0.14
195.779	0.04
196.156	0.09
196.533	0.03
196.91	0.02
197.288	0.01
197.665	0.12
198.042	0.24
198.419	0.18
198.796	0.14
199.173	0.02
199.55	0.12
199.927	0.04
200.304	0.06
200.681	0.21
201.058	0.04
201.435	0.02
201.812	0.14
202.189	0.13
202.566	0.19
202.943	0.17
203.32	0.15
203.697	0.27
204.073	0.12
204.45	0.13
204.827	0.13
205.204	0.15
205.58	0.17
205.957	0.06
206.334	0.18
206.71	-0.02
207.087	0.1
207.464	0.13
207.84	0.15
208.217	0.17
208.593	0.18
208.97	0.02
209.346	0.11
209.723	0.11
210.099	0.13
210.476	0.18
210.852	0.13
211.228	0.16
211.605	0.24
211.981	0.13
212.357	0.11
212.733	0.15
213.11	0.18
213.486	0.04
213.862	0.01
214.238	0.16
214.614	0.18
214.991	0.08
215.367	0.1
215.743	0.16
216.119	0.13
216.495	0.15
216.871	0.24
217.247	0.07
217.623	0.1
217.999	0.17
218.375	0.1
218.751	0.08
219.127	0.07
219.502	0.1
219.878	0.15
220.254	0.17
220.63	0.16
221.006	0.09
221.381	0.11
221.757	0.03
222.133	0.18
222.508	0.05
222.884	0.1
223.26	0.14
223.635	0.12
224.011	0.12
224.386	0.11
224.762	0.14
225.137	0.12
225.513	0.19
225.888	0.12
226.264	0.08
226.639	0.13
227.014	0.2
227.39	0.29
227.765	0.09
228.14	0.16
228.516	0.15
228.891	0.07
229.266	0.16
229.641	0.15
230.017	0.17
230.392	0.08
230.767	0.2
231.142	0.09
231.517	0.19
231.892	0.07
232.267	0.14
232.642	0.16
233.017	0.08
233.392	0.1
233.767	0.19
234.142	0.15
234.517	0.06
234.892	0.19
235.267	0.08
235.641	0.08
236.016	0.12
236.391	0.16
236.766	0.06
237.14	0.19
237.515	0.1
237.89	0.17
238.264	0.08
238.639	0.04
239.014	0.13
239.388	0.17
239.763	0.17
240.137	0.1
240.512	0.11
240.886	0.06
241.261	0.09
241.635	0.1
242.009	0.06
242.384	0.06
242.758	0.17
243.132	0.05
243.507	0.1
243.881	0.1
244.255	0.2
244.629	0.16
245.004	0.16
245.378	0.11
245.752	0.13
246.126	0.12
246.5	0.1
246.874	0.04
247.248	0.22
247.622	0.13
247.996	0.09
248.37	0.17
248.744	0.18
249.118	0.14
249.492	0.16
249.866	0.08
250.24	0.17
250.613	0.19
250.987	0.11
251.361	0.16
251.735	0.07
252.108	0.12
252.482	0.19
252.856	0.1
253.229	0.11
253.603	0.07
253.977	0.05
254.35	0.07
254.724	0.13
255.097	0.13
255.471	0.15
255.844	0.14
256.218	0.08
256.591	0.08
256.964	0.09
257.338	0.09
257.711	0.11
258.084	0.18
258.458	0.06
258.831	0.13
259.204	0.17
259.577	0.05
259.95	0.07
260.323	0.16
260.697	0.17
261.07	0.17
261.443	0.1
261.816	0.14
262.189	0.16
262.562	0.12
262.935	0.08
263.308	0.13
263.68	0.14
264.053	0.16
264.426	0.15
264.799	0.12
265.172	0.22
265.545	0.16
265.917	0.08
266.29	0.12
266.663	0.17
267.035	0.13
267.408	0.14
267.781	0.11
268.153	0.18
268.526	0.17
268.898	0.17
269.271	0.14
269.643	0.16
270.016	0.1
270.388	0.19
270.76	0.2
271.133	0.14
271.505	0.16
271.877	0.1
272.25	0.11
272.622	0.15
272.994	0.11
273.366	0.15
273.739	0.13
274.111	0.1
274.483	0.18
274.855	0.08
275.227	0.12
275.599	0.1
275.971	0.11
276.343	0.09
276.715	0.17
277.087	0.21
277.459	0.13
277.831	0.15
278.203	0.07
278.574	0.14
278.946	0.21
279.318	0.11
279.69	0.15
280.061	0.16
280.433	0.2
280.805	0.13
281.176	0.21
281.548	0.14
281.92	0.09
282.291	0.19
282.663	0.16
283.034	0.11
283.406	0.14
283.777	0.21
284.148	0.16
284.52	0.2
284.891	0.16
285.262	0.15
285.634	0.16
286.005	0.17
286.376	0.18
286.747	0.16
287.119	0.12
287.49	0.11
287.861	0.16
288.232	0.15
288.603	0.21
288.974	0.09
289.345	0.21
289.716	0.17
290.087	0.11
290.458	0.1
290.829	0.19
291.2	0.19
291.571	0.1
291.941	0.08
292.312	0.21
292.683	0.15
293.054	0.11
293.424	0.14
293.795	0.16
294.166	0.1
294.536	0.14
294.907	0.12
295.277	0.12
295.648	0.12
296.018	0.13
296.389	0.17
296.759	0.12
297.13	0.14
297.5	0.07
297.871	0.16
298.241	0.14
298.611	0.18
298.981	0.1
299.352	0.08
299.722	0.13
300.092	0.13
300.462	0.1
300.832	0.11
301.202	0.11
301.573	0.09
301.943	0.07
302.313	0.1
302.683	0.11
303.053	0.09
303.422	0.08
303.792	0.1
304.162	0.08
304.532	0.09
304.902	0.1
305.272	0.09
305.641	0.1
306.011	0.11
306.381	0.09
306.75	0.11
307.12	0.11
307.49	0.1
307.859	0.1
308.229	0.1
308.598	0.09
308.968	0.1
309.337	0.1
309.707	0.12
310.076	0.11
310.445	0.11
310.815	0.11
311.184	0.12
311.553	0.11
311.923	0.11
312.292	0.12
312.661	0.12
313.03	0.11
313.399	0.12
313.768	0.11
314.137	0.12
314.506	0.12
314.875	0.12
315.244	0.11
315.613	0.11
315.982	0.11
316.351	0.12
316.72	0.12
317.089	0.12
317.458	0.11
317.826	0.11
318.195	0.12
318.564	0.11
318.933	0.11
319.301	0.11
319.67	0.1
320.038	0.11
320.407	0.1
320.775	0.1
321.144	0.1
321.512	0.1
321.881	0.1
322.249	0.1
322.618	0.09
322.986	0.1
323.354	0.1
323.723	0.1
324.091	0.09
324.459	0.09
324.827	0.09
325.195	0.09
325.564	0.09
325.932	0.09
326.3	0.09
326.668	0.09
327.036	0.09
327.404	0.09
327.772	0.09
328.14	0.09
328.508	0.09
328.875	0.09
329.243	0.09
329.611	0.08
329.979	0.1
330.346	0.09
330.714	0.09
331.082	0.09
331.449	0.09
331.817	0.09
332.185	0.1
332.552	0.1
332.92	0.1
333.287	0.1
333.655	0.1
334.022	0.1
334.389	0.09
334.757	0.1
335.124	0.1
335.491	0.1
335.859	0.1
336.226	0.11
336.593	0.1
336.96	0.11
337.327	0.11
337.695	0.11
338.062	0.11
338.429	0.11
338.796	0.12
339.163	0.11
339.53	0.12
339.897	0.12
340.263	0.12
340.63	0.12
340.997	0.12
341.364	0.13
341.731	0.13
342.097	0.13
342.464	0.14
342.831	0.14
343.197	0.14
343.564	0.14
343.931	0.14
344.297	0.15
344.664	0.15
345.03	0.15
345.396	0.15
345.763	0.15
346.129	0.15
346.496	0.16
346.862	0.16
347.228	0.16
347.594	0.16
347.961	0.16
348.327	0.17
348.693	0.17
349.059	0.17
349.425	0.17
349.791	0.18
350.157	0.18
350.523	0.19
350.889	0.19
351.255	0.19
351.621	0.2
351.987	0.2
352.353	0.21
352.719	0.21
353.084	0.21
353.45	0.22
353.816	0.22
354.181	0.23
354.547	0.23
354.913	0.24
355.278	0.24
355.644	0.25
356.009	0.25
356.375	0.25
356.74	0.26
357.106	0.27
357.471	0.27
357.836	0.28
358.202	0.29
358.567	0.29
358.932	0.29
359.297	0.31
359.663	0.31
360.028	0.31
360.393	0.32
360.758	0.32
361.123	0.32
361.488	0.33
361.853	0.33
362.218	0.33
362.583	0.34
362.948	0.34
363.312	0.35
363.677	0.35
364.042	0.37
364.407	0.37
364.772	0.37
365.136	0.38
365.501	0.38
365.865	0.39
366.23	0.4
366.595	0.41
366.959	0.42
367.324	0.43
367.688	0.44
368.052	0.45
368.417	0.46
368.781	0.46
369.145	0.47
369.51	0.47
369.874	0.47
370.238	0.47
370.602	0.47
370.967	0.47
371.331	0.47
371.695	0.47
372.059	0.47
372.423	0.46
372.787	0.46
373.151	0.47
373.515	0.46
373.878	0.46
374.242	0.46
374.606	0.46
374.97	0.46
375.334	0.47
375.697	0.46
376.061	0.47
376.425	0.47
376.788	0.47
377.152	0.48
377.515	0.48
377.879	0.49
378.242	0.49
378.606	0.5
378.969	0.5
379.333	0.51
379.696	0.51
380.059	0.53
380.422	0.54
380.786	0.55
381.149	0.56
381.512	0.57
381.875	0.58
382.238	0.59
382.601	0.62
382.964	0.62
383.327	0.64
383.69	0.66
384.053	0.68
384.416	0.7
384.779	0.7
385.142	0.73
385.504	0.74
385.867	0.75
386.23	0.76
386.593	0.76
386.955	0.76
387.318	0.76
387.68	0.76
388.043	0.76
388.405	0.76
388.768	0.75
389.13	0.74
389.493	0.74
389.855	0.73
390.217	0.73
390.58	0.73
390.942	0.73
391.304	0.74
391.666	0.75
392.028	0.75
392.391	0.78
392.753	0.8
393.115	0.83
393.477	0.85
393.839	0.88
394.201	0.92
394.563	0.96
394.924	0.99
395.286	1.04
395.648	1.06
396.01	1.09
396.371	1.12
396.733	1.14
397.095	1.16
397.456	1.17
397.818	1.18
398.18	1.16
398.541	1.15
398.903	1.14
399.264	1.09
399.625	1.06
399.987	1.02
400.348	0.97
400.709	0.93
401.071	0.88
401.432	0.83
401.793	0.77
402.154	0.71
402.515	0.67
402.876	0.63
403.238	0.58
403.599	0.53
403.96	0.5
404.32	0.46
404.681	0.43
405.042	0.4
405.403	0.37
405.764	0.35
406.125	0.32
406.485	0.3
406.846	0.28
407.207	0.27
407.567	0.25
407.928	0.23
408.288	0.22
408.649	0.21
409.009	0.19
409.37	0.18
409.73	0.18
410.091	0.17
410.451	0.16
410.811	0.15
411.171	0.15
411.532	0.14
411.892	0.13
412.252	0.13
412.612	0.13
412.972	0.12
413.332	0.11
413.692	0.12
414.052	0.11
414.412	0.11
414.772	0.1
415.132	0.11
415.492	0.1
415.851	0.09
416.211	0.09
416.571	0.09
416.931	0.09
417.29	0.08
417.65	0.08
418.009	0.08
418.369	0.08
418.728	0.08
419.088	0.08
419.447	0.08
419.807	0.07
420.166	0.07
420.525	0.07
420.884	0.06
421.244	0.07
421.603	0.06
421.962	0.07
422.321	0.07
422.68	0.06
423.039	0.06
423.398	0.06
423.757	0.06
424.116	0.06
424.475	0.06
424.834	0.06
425.193	0.06
425.551	0.05
425.91	0.06
426.269	0.05
426.628	0.06
426.986	0.06
427.345	0.06
427.703	0.05
428.062	0.06
428.42	0.04
428.779	0.05
429.137	0.05
429.496	0.05
429.854	0.05
430.212	0.04
430.57	0.05
430.929	0.05
431.287	0.05
431.645	0.05
432.003	0.04
432.361	0.05
432.719	0.04
433.077	0.04
433.435	0.05
433.793	0.05
434.151	0.04
434.509	0.05
434.866	0.04
435.224	0.04
435.582	0.04
435.94	0.03
436.297	0.03
436.655	0.04
437.012	0.04
437.37	0.04
437.727	0.04
438.085	0.03
438.442	0.03
438.8	0.04
439.157	0.03
439.514	0.04
439.872	0.04
440.229	0.04
440.586	0.03
440.943	0.03
441.3	0.03
441.657	0.03
442.014	0.03
442.371	0.03
442.728	0.03
443.085	0.03
443.442	0.04
443.799	0.03
444.156	0.03
444.513	0.02
444.869	0.04
445.226	0.04
445.583	0.03
445.939	0.03
446.296	0.03
446.652	0.02
447.009	0.03
447.365	0.02
447.722	0.03
448.078	0.03
448.434	0.02
448.791	0.02
449.147	0.02
449.503	0.02
449.859	0.02
450.215	0.03
450.571	0.02
450.928	0.01
451.284	0.01
451.64	0.01
451.995	0.01
452.351	0.02
452.707	0.01
453.063	0.02
453.419	0.01
453.775	0.02
454.13	0.02
454.486	0
454.842	0.01
455.197	0.01
455.553	0.02
455.908	-0
456.264	0
456.619	0
456.975	0
457.33	-0
457.685	-0
458.04	-0.01
458.396	-0.01
458.751	-0.01
459.106	-0
459.461	-0.01
459.816	-0
460.171	-0.01
460.526	-0.01
460.881	-0.02
461.236	-0.02
461.591	-0.02
461.946	-0.02
462.301	-0.02
462.655	-0.03
463.01	-0.03
463.365	-0.03
463.719	-0.03
464.074	-0.03
464.428	-0.04
464.783	-0.03
465.137	-0.04
465.492	-0.04
465.846	-0.04
466.201	-0.03
466.555	-0.04
466.909	-0.04
467.263	-0.04
467.618	-0.03
467.972	-0.03
468.326	-0.04
468.68	-0.04
469.034	-0.05
469.388	-0.05
469.742	-0.05
470.096	-0.05
470.45	-0.05
470.804	-0.05
471.157	-0.04
471.511	-0.04
471.865	-0.04
472.218	-0.04
472.572	-0.04
472.926	-0.04
473.279	-0.04
473.633	-0.03
473.986	-0.03
474.34	-0.03
474.693	-0.03
475.046	-0.02
475.4	-0.02
475.753	-0.01
476.106	-0.01
476.459	-0.01
476.812	-0.01
477.165	-0
477.519	-0.01
477.872	-0
478.224	0
478.577	0
478.93	0
479.283	0.01
479.636	0.01
479.989	0.01
480.341	0.01
480.694	0.01
481.047	0.01
481.399	0.01
481.752	0.02
482.104	0.02
482.457	0.02
482.809	0.03
483.162	0.03
483.514	0.03
483.866	0.02
484.219	0.02
484.571	0.03
484.923	0.03
485.275	0.03
485.627	0.04
485.979	0.03
486.331	0.04
486.683	0.03
487.035	0.04
487.387	0.04
487.739	0.04
488.091	0.04
488.443	0.04
488.794	0.04
489.146	0.04
489.498	0.04
489.849	0.04
490.201	0.05
490.552	0.04
490.904	0.05
491.255	0.05
491.607	0.05
491.958	0.05
492.309	0.05
492.661	0.05
493.012	0.05
493.363	0.05
493.714	0.05
494.065	0.06
494.416	0.05
494.767	0.05
495.118	0.06
495.469	0.06
495.82	0.06
496.171	0.06
496.522	0.06
496.872	0.06
497.223	0.06
497.574	0.06
497.924	0.07
498.275	0.06
498.626	0.06
498.976	0.07
499.327	0.07
499.677	0.07
500.027	0.07
500.378	0.07
500.728	0.07
501.078	0.08
501.428	0.07
501.779	0.07
502.129	0.08
502.479	0.08
502.829	0.08
503.179	0.08
503.529	0.08
503.879	0.08
504.229	0.08
504.578	0.09
504.928	0.08
505.278	0.09
505.628	0.08
505.977	0.09
506.327	0.09
506.676	0.09
507.026	0.09
507.375	0.09
507.725	0.09
508.074	0.09
508.424	0.09
508.773	0.1
509.122	0.1
509.471	0.09
509.82	0.1
510.17	0.1
510.519	0.1
510.868	0.11
511.217	0.1
511.566	0.1
511.915	0.1
512.263	0.11
512.612	0.11
512.961	0.11
513.31	0.11
513.659	0.11
514.007	0.11
514.356	0.11
514.704	0.11
515.053	0.11
515.401	0.11
515.75	0.12
516.098	0.11
516.447	0.12
516.795	0.12
517.143	0.12
517.491	0.12
517.839	0.12
518.188	0.13
518.536	0.13
518.884	0.13
519.232	0.12
519.58	0.13
519.928	0.13
520.275	0.13
520.623	0.13
520.971	0.13
521.319	0.13
521.666	0.14
522.014	0.14
522.362	0.13
522.709	0.13
523.057	0.13
523.404	0.14
523.752	0.14
524.099	0.14
524.446	0.14
524.794	0.14
525.141	0.14
525.488	0.14
525.835	0.14
526.182	0.15
526.529	0.15
526.876	0.15
527.223	0.15
527.57	0.15
527.917	0.15
528.264	0.15
528.611	0.16
528.958	0.16
529.304	0.16
529.651	0.16
529.998	0.16
530.344	0.16
530.691	0.17
531.037	0.17
531.384	0.17
531.73	0.17
532.076	0.16
532.423	0.17
532.769	0.17
533.115	0.17
533.461	0.17
533.807	0.17
534.154	0.17
534.5	0.18
534.846	0.18
535.192	0.18
535.537	0.18
535.883	0.18
536.229	0.19
536.575	0.18
536.921	0.18
537.266	0.18
537.612	0.19
537.957	0.19
538.303	0.19
538.649	0.19
538.994	0.19
539.339	0.2
539.685	0.2
540.03	0.2
540.375	0.2
540.721	0.2
541.066	0.2
541.411	0.2
541.756	0.2
542.101	0.2
542.446	0.21
542.791	0.21
543.136	0.21
543.481	0.21
543.825	0.21
544.17	0.22
544.515	0.22
544.86	0.22
545.204	0.22
545.549	0.23
545.893	0.22
546.238	0.23
546.582	0.23
546.927	0.23
547.271	0.23
547.615	0.23
547.96	0.23
548.304	0.23
548.648	0.24
548.992	0.24
549.336	0.24
549.68	0.24
550.024	0.24
550.368	0.24
550.712	0.25
551.056	0.25
551.4	0.25
551.743	0.25
552.087	0.25
552.431	0.25
552.774	0.25
553.118	0.26
553.462	0.25
553.805	0.25
554.148	0.26
554.492	0.26
554.835	0.26
555.178	0.25
555.522	0.26
555.865	0.26
556.208	0.26
556.551	0.26
556.894	0.27
557.237	0.26
557.58	0.27
557.923	0.27
558.266	0.27
558.609	0.27
558.952	0.27
559.294	0.27
559.637	0.27
559.98	0.27
560.322	0.27
560.665	0.27
561.007	0.28
561.35	0.27
561.692	0.27
562.034	0.28
562.377	0.28
562.719	0.28
563.061	0.28
563.403	0.28
563.745	0.28
564.088	0.28
564.43	0.28
564.772	0.28
565.113	0.28
565.455	0.28
565.797	0.28
566.139	0.28
566.481	0.28
566.822	0.28
567.164	0.28
567.506	0.28
567.847	0.29
568.189	0.28
568.53	0.29
568.872	0.29
569.213	0.29
569.554	0.29
569.895	0.29
570.237	0.29
570.578	0.29
570.919	0.28
571.26	0.29
571.601	0.29
571.942	0.29
572.283	0.29
572.624	0.29
572.965	0.28
573.306	0.29
573.646	0.28
573.987	0.28
574.328	0.28
574.668	0.29
575.009	0.29
575.349	0.28
575.69	0.29
576.03	0.29
576.37	0.28
576.711	0.28
577.051	0.28
577.391	0.28
577.731	0.28
578.072	0.29
578.412	0.29
578.752	0.29
579.092	0.28
579.431	0.28
579.771	0.26
580.111	0.25
580.451	0.26
580.791	0.28
581.13	0.29
581.47	0.29
581.81	0.29
582.149	0.29
582.489	0.29
582.828	0.29
583.167	0.26
583.507	0.22
583.846	0.21
584.185	0.23
584.525	0.26
584.864	0.28
585.203	0.3
585.542	0.3
585.881	0.3
586.22	0.3
586.559	0.3
586.898	0.29
587.236	0.28
587.575	0.28
587.914	0.29
588.252	0.3
588.591	0.31
588.93	0.31
589.268	0.31
589.607	0.31
589.945	0.31
590.283	0.31
590.622	0.31
590.96	0.32
591.298	0.32
591.636	0.32
591.974	0.32
592.313	0.32
592.651	0.33
592.989	0.32
593.326	0.33
593.664	0.33
594.002	0.33
594.34	0.33
594.678	0.33
595.015	0.32
595.353	0.31
595.691	0.32
596.028	0.34
596.366	0.34
596.703	0.34
597.04	0.34
597.378	0.34
597.715	0.34
598.052	0.35
598.389	0.35
598.726	0.35
599.064	0.36
599.401	0.35
599.738	0.35
600.074	0.36
600.411	0.36
600.748	0.35
601.085	0.35
601.422	0.35
601.758	0.35
602.095	0.35
602.432	0.35
602.768	0.35
603.105	0.35
603.441	0.36
603.777	0.36
604.114	0.36
604.45	0.36
604.786	0.36
605.122	0.36
605.459	0.36
605.795	0.36
606.131	0.36
606.467	0.36
606.803	0.36
607.139	0.36
607.474	0.36
607.81	0.35
608.146	0.36
608.482	0.36
608.817	0.35
609.153	0.35
609.488	0.35
609.824	0.35
610.159	0.35
610.495	0.35
610.83	0.35
611.165	0.35
611.5	0.35
611.836	0.35
612.171	0.35
612.506	0.35
612.841	0.35
613.176	0.35
613.511	0.35
613.845	0.34
614.18	0.35
614.515	0.34
614.85	0.34
615.184	0.34
615.519	0.34
615.854	0.34
616.188	0.34
616.523	0.33
616.857	0.33
617.191	0.33
617.526	0.33
617.86	0.33
618.194	0.33
618.528	0.33
618.862	0.33
619.196	0.33
619.53	0.34
619.864	0.33
620.198	0.33
620.532	0.33
620.866	0.33
621.2	0.33
621.533	0.33
621.867	0.33
622.201	0.33
622.534	0.32
622.868	0.32
623.201	0.32
623.534	0.32
623.868	0.32
624.201	0.31
624.534	0.31
624.868	0.31
625.201	0.31
625.534	0.31
625.867	0.31
626.2	0.31
626.533	0.31
626.865	0.31
627.198	0.31
627.531	0.3
627.864	0.3
628.196	0.3
628.529	0.3
628.862	0.3
629.194	0.3
629.527	0.29
629.859	0.3
630.191	0.3
630.524	0.29
630.856	0.29
631.188	0.29
631.52	0.29
631.852	0.28
632.184	0.28
632.516	0.28
632.848	0.28
633.18	0.27
633.512	0.27
633.844	0.27
634.175	0.27
634.507	0.26
634.839	0.26
635.17	0.26
635.502	0.26
635.833	0.26
636.165	0.26
636.496	0.25
636.827	0.25
637.159	0.25
637.49	0.25
637.821	0.24
638.152	0.24
638.483	0.24
638.814	0.24
639.145	0.24
639.476	0.24
639.807	0.24
640.137	0.24
640.468	0.23
640.799	0.23
641.129	0.23
641.46	0.23
641.791	0.22
642.121	0.22
642.451	0.22
642.782	0.22
643.112	0.22
643.442	0.22
643.773	0.22
644.103	0.21
644.433	0.21
644.763	0.21
645.093	0.21
645.423	0.21
645.753	0.21
646.082	0.21
646.412	0.21
646.742	0.21
647.072	0.21
647.401	0.21
647.731	0.21
648.06	0.2
648.39	0.2
648.719	0.2
649.048	0.21
649.378	0.2
649.707	0.2
650.036	0.2
650.365	0.2
650.694	0.19
651.023	0.19
651.352	0.19
651.681	0.19
652.01	0.19
652.339	0.19
652.668	0.19
652.996	0.2
653.325	0.2
653.654	0.2
653.982	0.19
654.311	0.19
654.639	0.19
654.967	0.19
655.296	0.19
655.624	0.19
655.952	0.19
656.28	0.19
656.609	0.19
656.937	0.19
657.265	0.2
657.593	0.12
657.92	0
658.248	0
658.576	0
658.904	0.04
659.231	0.13
659.559	0.18
659.887	0.18
660.214	0.18
660.542	0.19
660.869	0.19
661.196	0.19
661.524	0.19
661.851	0.18
662.178	0.19
662.505	0.19
662.832	0.19
663.159	0.19
663.486	0.19
663.813	0.19
664.14	0.19
664.467	0.19
664.794	0.19
665.12	0.19
665.447	0.18
665.774	0.18
666.1	0.18
666.427	0.18
666.753	0.18
667.079	0.18
667.406	0.18
667.732	0.18
668.058	0.18
668.384	0.17
668.71	0.18
669.036	0.17
669.362	0.17
669.688	0.17
670.014	0.17
670.34	0.17
670.666	0.17
670.991	0.17
671.317	0.18
671.643	0.17
671.968	0.17
672.294	0.17
672.619	0.17
672.945	0.17
673.27	0.17
673.595	0.17
673.92	0.17
674.246	0.16
674.571	0.16
674.896	0.16
675.221	0.16
675.546	0.16
675.87	0.16
676.195	0.15
676.52	0.15
676.845	0.15
677.169	0.15
677.494	0.15
677.819	0.15
678.143	0.15
678.468	0.15
678.792	0.15
679.116	0.15
679.44	0.14
679.765	0.14
680.089	0.14
680.413	0.14
680.737	0.14
681.061	0.14
681.385	0.14
681.709	0.14
682.033	0.13
682.356	0.13
682.68	0.13
683.004	0.13
683.327	0.13
683.651	0.12
683.974	0.13
684.298	0.12
684.621	0.12
684.944	0.12
685.268	0.12
685.591	0.12
685.914	0.12
686.237	0.12
686.56	0.12
686.883	0.12
687.206	0.11
687.529	0.11
687.852	0.11
688.175	0.11
688.497	0.11
688.82	0.11
689.142	0.11
689.465	0.11
689.787	0.1
690.11	0.1
690.432	0.1
690.755	0.1
691.077	0.1
691.399	0.1
691.721	0.1
692.043	0.09
692.365	0.09
692.687	0.09
693.009	0.09
693.331	0.09
693.653	0.09
693.974	0.09
694.296	0.09
694.618	0.09
694.939	0.09
695.261	0.09
695.582	0.09
695.904	0.08
696.225	0.08
696.546	0.08
696.868	0.08
697.189	0.08
697.51	0.08
697.831	0.08
698.152	0.08
698.473	0.08
698.794	0.08
699.114	0.07
699.435	0.07
699.756	0.07
700.077	0.07
700.397	0.07
700.718	0.07
701.038	0.07
701.359	0.07
701.679	0.07
701.999	0.06
702.32	0.06
702.64	0.06
702.96	0.06
703.28	0.06
703.6	0.06
703.92	0.06
704.24	0.06
704.56	0.06
704.879	0.06
705.199	0.06
705.519	0.06
705.838	0.06
706.158	0.07
706.478	0.06
706.797	0.06
707.116	0.06
707.436	0.06
707.755	0.06
708.074	0.06
708.393	0.06
708.712	0.06
709.031	0.05
709.35	0.05
709.669	0.05
709.988	0.05
710.307	0.05
710.626	0.05
710.944	0.05
711.263	0.05
711.582	0.06
711.9	0.06
712.219	0.06
712.537	0.06
712.855	0.06
713.174	0.06
713.492	0.06
713.81	0.06
714.128	0.06
714.446	0.06
714.764	0.06
715.082	0.05
715.4	0.06
715.718	0.05
716.035	0.05
716.353	0.06
716.671	0.06
716.988	0.06
717.306	0.05
717.623	0.06
717.941	0.06
718.258	0.06
718.575	0.06
718.893	0.06
719.21	0.06
719.527	0.06
719.844	0.06
720.161	0.05
720.478	0.06
720.795	0.06
721.112	0.06
721.428	0.06
721.745	0.06
722.062	0.06
722.378	0.06
722.695	0.06
723.011	0.06
723.328	0.06
723.644	0.06
723.96	0.06
724.276	0.06
724.593	0.06
724.909	0.06
725.225	0.06
725.541	0.06
725.857	0.06
726.173	0.06
726.488	0.06
726.804	0.06
727.12	0.06
727.435	0.06
727.751	0.06
728.067	0.06
728.382	0.06
728.697	0.06
729.013	0.07
729.328	0.07
729.643	0.07
729.958	0.07
730.273	0.07
730.588	0.07
730.903	0.06
731.218	0.07
731.533	0.07
731.848	0.06
732.163	0.07
732.477	0.07
732.792	0.07
733.107	0.06
733.421	0.06
733.736	0.06
734.05	0.06
734.364	0.06
734.678	0.06
734.993	0.06
735.307	0.07
735.621	0.07
735.935	0.07
736.249	0.07
736.563	0.07
736.877	0.07
737.19	0.07
737.504	0.07
737.818	0.07
738.131	0.07
738.445	0.07
738.758	0.07
739.072	0.07
739.385	0.07
739.698	0.07
740.012	0.07
740.325	0.07
740.638	0.07
740.951	0.06
741.264	0.06
741.577	0.06
741.89	0.06
742.203	0.06
742.515	0.07
742.828	0.06
743.141	0.06
743.453	0.06
743.766	0.06
744.078	0.06
744.391	0.06
744.703	0.05
745.015	0.05
745.327	0.05
745.639	0.05
745.952	0.05
746.264	0.05
746.575	0.05
746.887	0.05
747.199	0.05
747.511	0.05
747.823	0.05
748.134	0.05
748.446	0.05
748.757	0.05
749.069	0.05
749.38	0.05
749.692	0.05
750.003	0.05
750.314	0.05
750.625	0.05
750.936	0.04
751.248	0.04
751.559	0.04
751.869	0.04
752.18	0.04
752.491	0.04
752.802	0.04
753.112	0.04
753.423	0.04
753.734	0.04
754.044	0.04
754.355	0.03
754.665	0.03
754.975	0.03
755.285	0.03
755.596	0.03
755.906	0.03
756.216	0.03
756.526	0.03
756.836	0.03
757.146	0.03
757.455	0.03
757.765	0.03
758.075	0.03
758.385	0.03
758.694	0.02
759.004	0.02
759.313	0.02
759.622	0.02
759.932	0.02
760.241	0.03
760.55	0.02
760.859	0.03
761.168	0.02
761.477	0.02
761.786	0.03
762.095	0.03
762.404	0.03
762.713	0.03
763.021	0.03
763.33	0.03
763.639	0.03
763.947	0.03
764.256	0.03
764.564	0.03
764.872	0.03
765.181	0.03
765.489	0.03
765.797	0.03
766.105	0.03
766.413	0.03
766.721	0.03
767.029	0.03
767.337	0.03
767.644	0.03
767.952	0.02
768.26	0.02
768.567	0.03
768.875	0.02
769.182	0.02
769.49	0.02
769.797	0.02
770.104	0.02
770.411	0.02
770.718	0.02
771.026	0.02
771.333	0.02
771.639	0.03
771.946	0.02
772.253	0.03
772.56	0.02
772.867	0.02
773.173	0.02
773.48	0.02
773.786	0.02
774.093	0.02
774.399	0.02
774.705	0.02
775.012	0.02
775.318	0.02
775.624	0.02
775.93	0.02
776.236	0.02
776.542	0.02
776.848	0.02
777.154	0.02
777.459	0.02
777.765	0.02
778.071	0.02
778.376	0.02
778.682	0.02
778.987	0.02
779.292	0.01
779.598	0.01
779.903	0.01
780.208	0.01
780.513	0.01
780.818	0.01
781.123	0.01
781.428	0.01
781.733	0.01
782.038	0.01
782.343	0.01
782.647	0.02
782.952	0.01
783.256	0.02
783.561	0.02
783.865	0.02
784.17	0.02
784.474	0.02
784.778	0.02
785.082	0.02
785.386	0.01
785.69	0.01
785.994	0.01
786.298	0.01
786.602	0.01
786.906	0.01
787.209	0.01
787.513	0.01
787.817	0.01
788.12	0.02
788.424	0.01
788.727	0.02
789.03	0.02
789.333	0.02
789.637	0.02
789.94	0.02
790.243	0.02
790.546	0.02
790.849	0.02
791.152	0.02
791.454	0.02
791.757	0.02
792.06	0.02
792.362	0.02
792.665	0.02
792.967	0.02
793.27	0.01
793.572	0.01
793.874	0.01
794.177	0.01
794.479	0.01
794.781	0.02
795.083	0.01
795.385	0.01
795.687	0.01
795.989	0.01
796.29	0.01
796.592	0.01
796.894	0.02
797.195	0.01
797.497	0.01
797.798	0.02
798.1	0.01
798.401	0.02
798.702	0.02
799.003	0.01
799.304	0.02
799.605	0.02
799.906	0.02
800.207	0.02
800.508	0.02
800.809	0.01
801.11	0.02
801.41	0.02
801.711	0.02
802.011	0.02
802.312	0.02
802.612	0.02
802.913	0.02
803.213	0.02
803.513	0.01
803.813	0.02
804.113	0.01
804.413	0.02
804.713	0.02
805.013	0.01
805.313	0.01
805.613	0.01
805.912	0.01
806.212	0.01
806.511	0.01
806.811	0.01
807.11	0
807.41	0
807.709	0
808.008	0
808.307	0
808.606	0
808.905	0.01
809.204	0.01
809.503	0.02
809.802	0.02
810.101	0.01
810.399	0.02
810.698	0.01
810.997	0.01
811.295	0.01
811.593	0.01
811.892	0.02
812.19	0.01
812.488	0.02
812.786	0.02
813.084	0.02
813.383	0.02
813.68	0.02
813.978	0.02
814.276	0.02
814.574	0.02
814.872	0.02
815.169	0.02
815.467	0.02
815.764	0.02
816.062	0.02
816.359	0.02
816.656	0.02
816.954	0.01
817.251	0.01
817.548	0.01
817.845	0
818.142	0.01
818.439	0.01
818.735	0.01
819.032	0.01
819.329	0.01
819.626	0
819.922	0
820.219	0.01
820.515	0
820.811	0.01
821.108	0.01
821.404	0.01
821.7	0.01
821.996	0
822.292	0.02
822.588	0.01
822.884	0.02
823.18	0.02
823.475	0.02
823.771	0.02
824.067	0.02
824.362	0.02
824.658	0.02
824.953	0.02
825.249	0.02
825.544	0.01
825.839	0.02
826.134	0.01
826.429	0.02
826.724	0.01
827.019	0.02
827.314	0.02
827.609	0.01
827.904	0.02
828.198	0.02
828.493	0.02
828.787	0.02
829.082	0.02
829.376	0.02
829.671	0.01
829.965	0.02
830.259	0.01
830.553	0.02
830.847	0.01
831.141	0.02
831.435	0.01
831.729	0.01
832.023	0.01
832.317	0.01
832.61	0.02
832.904	0.02
833.197	0.02
833.491	0.03
833.784	0.03
834.077	0.03
834.371	0.02
834.664	0.03
834.957	0.02
835.25	0.02
835.543	0.02
835.836	0.02
836.129	0.02
836.421	0.03
836.714	0.03
837.007	0.02
837.299	0.02
837.592	0.02
837.884	0.01
838.177	0.02
838.469	0.02
838.761	0.02
839.053	0.02
839.345	0.02
839.637	0.01
839.929	0.01
840.221	0
840.513	0.01
840.805	0.01
841.096	0.01
841.388	0.03
841.68	0.02
841.971	0.01
842.262	0.01
842.554	0.02
842.845	0.01
843.136	0.01
843.427	0.02
843.718	0.01
844.009	0.01
844.3	0.02
844.591	0.01
844.882	0.02
845.173	0.01
845.463	0.02
845.754	0.01
846.044	0.01
846.335	0.01
846.625	0.02
846.915	0.01
847.206	0.02
847.496	0.01
847.786	0.02
848.076	0.02
848.366	0.02
848.656	0.02
848.945	0.02
849.235	0.02
849.525	0.02
849.814	0.01
850.104	0.02
850.393	0.01
850.683	0.02
850.972	0.02
851.261	0.02
851.551	0.02
851.84	0.01
852.129	0
852.418	0.01
852.707	0.01
852.995	0
853.284	0.01
853.573	0
853.862	0.01
854.15	0.01
854.439	0.02
854.727	0.01
855.015	0.01
855.304	0
855.592	0.01
855.88	0.01
856.168	0.01
856.456	0.01
856.744	0.03
857.032	-0
857.32	0.01
857.607	0
857.895	0
858.183	0.01
858.47	0.02
858.757	0.02
859.045	0.01
859.332	0.02
859.619	0.02
859.907	0.02
860.194	0.03
860.481	0.02
860.768	0.02
861.054	0.02
861.341	0.02
861.628	0.02
861.915	0.02
862.201	0.02
862.488	0.03
862.774	0.01
863.061	0.02
863.347	0.02
863.633	0.02
863.919	0.03
864.205	0.02
864.491	0
864.777	0.02
865.063	0.02
865.349	0.02
865.635	0.01
865.92	0.02
866.206	0.01
866.492	0.04
866.777	0.03
867.062	-0.01
867.348	0.02
867.633	0.03
867.918	0.01
868.203	0.02
868.488	-0.01
868.773	0.03
869.058	-0
869.343	0.01
869.628	-0.01
869.912	-0.01
870.197	0.01
870.482	-0.04
870.766	-0.04
871.05	-0.01
871.335	-0.03
871.619	0.01
871.903	0.02
872.187	-0.03
872.471	-0
872.755	0.01
873.039	0
873.323	0
873.607	-0.03
873.89	-0.01
874.174	-0.03
874.458	-0.02
874.741	-0.01
875.024	0.01
875.308	-0.05
875.591	-0
875.874	0.01
876.157	-0.01
876.44	-0.03
876.723	0.01
877.006	-0.04
877.289	0.02
877.572	0.03
877.854	-0.02
878.137	0.06
878.42	-0
878.702	0.07
878.984	-0.09
879.267	-0.09
879.549	0.05
879.831	-0.03
880.113	-0.01
880.395	-0.06
880.677	-0.05
880.959	-0.07
