Data from Rubpy_EV_1200_EDTA_Buffered_Absorbance_14-18-47-641.txt Node
Date: Tue Jun 30 14:18:47 BST 2026
User: fpm-admin
Spectrometer: OFX00224
Trigger mode: 0
Integration Time (sec): 7.000000E-2
Scans to average: 3
Nonlinearity correction enabled: false
Boxcar width: 0
Storing dark spectrum: false
XAxis mode: Wavelengths
Number of Pixels in Spectrum: 2136
>>>>>Begin Spectral Data<<<<<
154.91	-0.13
155.289	0.4
155.669	-0.42
156.048	0.23
156.428	0.11
156.807	-0.05
157.186	0.5
157.566	-0.08
157.945	-0
158.325	-0.22
158.704	-0
159.083	-0.35
159.462	-0
159.842	-0.06
160.221	0.32
160.6	-0
160.979	-0.31
161.359	0.56
161.738	-0
162.117	-0
162.496	-0
162.875	-0.26
163.254	0.18
163.633	-0
164.012	0.23
164.391	0.09
164.77	-0.85
165.149	0.22
165.528	-0
165.907	-0.45
166.286	-0
166.665	-0.22
167.044	-0
167.423	1.19
167.802	-0
168.181	-0
168.559	-0
168.938	-0
169.317	0.11
169.696	-1.3
170.074	-1.15
170.453	-0.66
170.832	-0.87
171.21	-0.26
171.589	-0.2
171.968	-0
172.346	0.23
172.725	-0
173.103	-0
173.482	-0.11
173.861	-0
174.239	0.12
174.617	0.16
174.996	-0.76
175.374	-0
175.753	-0.65
176.131	-0
176.51	-0.56
176.888	-0
177.266	-0
177.645	-0.12
178.023	-0
178.401	-0.37
178.779	0.21
179.158	-0.09
179.536	1.02
179.914	0.4
180.292	-0
180.67	0.1
181.048	-0.24
181.427	0.76
181.805	-0.02
182.183	-0
182.561	-1.11
182.939	-0
183.317	-0
183.695	0.61
184.073	-0
184.451	-0.27
184.829	0.24
185.206	0.19
185.584	-0
185.962	-0.18
186.34	-0
186.718	-0.13
187.096	0.07
187.473	1.23
187.851	-0
188.229	0.37
188.607	0.19
188.984	0.12
189.362	0.24
189.74	0.05
190.117	0.09
190.495	0.1
190.872	0.22
191.25	0.16
191.627	0.16
192.005	0.12
192.382	0.19
192.76	0.03
193.137	0.27
193.515	0.22
193.892	0.11
194.269	0.19
194.647	0.17
195.024	0.35
195.401	0.23
195.779	0.29
196.156	0.09
196.533	0.17
196.91	0.18
197.288	0.18
197.665	0.23
198.042	0.22
198.419	0.27
198.796	0.32
199.173	0.1
199.55	0.22
199.927	0.25
200.304	0.09
200.681	0.31
201.058	0.16
201.435	0.1
201.812	0.19
202.189	0.19
202.566	0.17
202.943	0.19
203.32	0.16
203.697	0.24
204.073	0.21
204.45	0.14
204.827	0.12
205.204	0.15
205.58	0.24
205.957	0.17
206.334	0.13
206.71	0.11
207.087	0.17
207.464	0.2
207.84	0.2
208.217	0.24
208.593	0.09
208.97	0.12
209.346	0.21
209.723	0.2
210.099	0.16
210.476	0.19
210.852	0.19
211.228	0.26
211.605	0.15
211.981	0.36
212.357	0.18
212.733	0.19
213.11	0.12
213.486	0.06
213.862	0.2
214.238	0.21
214.614	0.24
214.991	0.19
215.367	0.26
215.743	0.33
216.119	0.31
216.495	0.29
216.871	0.13
217.247	0.17
217.623	0.15
217.999	0.2
218.375	0.12
218.751	0.11
219.127	0.19
219.502	0.15
219.878	0.24
220.254	0.17
220.63	0.24
221.006	0.17
221.381	0.21
221.757	0.13
222.133	0.23
222.508	0.2
222.884	0.29
223.26	0.17
223.635	0.19
224.011	0.2
224.386	0.14
224.762	0.16
225.137	0.11
225.513	0.25
225.888	0.23
226.264	0.2
226.639	0.18
227.014	0.23
227.39	0.25
227.765	0.32
228.14	0.22
228.516	0.22
228.891	0.21
229.266	0.27
229.641	0.16
230.017	0.3
230.392	0.19
230.767	0.28
231.142	0.16
231.517	0.18
231.892	0.23
232.267	0.23
232.642	0.2
233.017	0.15
233.392	0.14
233.767	0.22
234.142	0.18
234.517	0.18
234.892	0.33
235.267	0.13
235.641	0.2
236.016	0.23
236.391	0.2
236.766	0.29
237.14	0.17
237.515	0.16
237.89	0.22
238.264	0.19
238.639	0.12
239.014	0.26
239.388	0.2
239.763	0.3
240.137	0.15
240.512	0.26
240.886	0.1
241.261	0.05
241.635	0.15
242.009	0.2
242.384	0.14
242.758	0.19
243.132	0.2
243.507	0.19
243.881	0.13
244.255	0.28
244.629	0.2
245.004	0.18
245.378	0.25
245.752	0.21
246.126	0.26
246.5	0.22
246.874	0.21
247.248	0.14
247.622	0.19
247.996	0.22
248.37	0.23
248.744	0.19
249.118	0.15
249.492	0.21
249.866	0.21
250.24	0.2
250.613	0.22
250.987	0.22
251.361	0.22
251.735	0.12
252.108	0.22
252.482	0.22
252.856	0.11
253.229	0.18
253.603	0.16
253.977	0.27
254.35	0.12
254.724	0.15
255.097	0.32
255.471	0.24
255.844	0.29
256.218	0.19
256.591	0.19
256.964	0.25
257.338	0.2
257.711	0.18
258.084	0.28
258.458	0.22
258.831	0.19
259.204	0.22
259.577	0.2
259.95	0.24
260.323	0.31
260.697	0.2
261.07	0.16
261.443	0.18
261.816	0.19
262.189	0.31
262.562	0.14
262.935	0.25
263.308	0.22
263.68	0.18
264.053	0.3
264.426	0.21
264.799	0.22
265.172	0.28
265.545	0.24
265.917	0.23
266.29	0.21
266.663	0.29
267.035	0.26
267.408	0.15
267.781	0.18
268.153	0.2
268.526	0.28
268.898	0.17
269.271	0.28
269.643	0.22
270.016	0.17
270.388	0.24
270.76	0.32
271.133	0.23
271.505	0.2
271.877	0.26
272.25	0.23
272.622	0.21
272.994	0.29
273.366	0.21
273.739	0.16
274.111	0.2
274.483	0.21
274.855	0.16
275.227	0.19
275.599	0.22
275.971	0.27
276.343	0.19
276.715	0.22
277.087	0.16
277.459	0.22
277.831	0.22
278.203	0.31
278.574	0.22
278.946	0.15
279.318	0.27
279.69	0.33
280.061	0.25
280.433	0.25
280.805	0.19
281.176	0.27
281.548	0.19
281.92	0.19
282.291	0.23
282.663	0.26
283.034	0.2
283.406	0.17
283.777	0.2
284.148	0.23
284.52	0.26
284.891	0.26
285.262	0.2
285.634	0.25
286.005	0.28
286.376	0.19
286.747	0.21
287.119	0.21
287.49	0.31
287.861	0.28
288.232	0.19
288.603	0.26
288.974	0.15
289.345	0.24
289.716	0.18
290.087	0.23
290.458	0.26
290.829	0.27
291.2	0.27
291.571	0.24
291.941	0.23
292.312	0.19
292.683	0.21
293.054	0.18
293.424	0.22
293.795	0.23
294.166	0.17
294.536	0.25
294.907	0.18
295.277	0.23
295.648	0.25
296.018	0.22
296.389	0.22
296.759	0.22
297.13	0.23
297.5	0.17
297.871	0.25
298.241	0.23
298.611	0.24
298.981	0.22
299.352	0.21
299.722	0.18
300.092	0.2
300.462	0.21
300.832	0.2
301.202	0.2
301.573	0.16
301.943	0.15
302.313	0.2
302.683	0.17
303.053	0.17
303.422	0.16
303.792	0.19
304.162	0.18
304.532	0.16
304.902	0.16
305.272	0.18
305.641	0.2
306.011	0.19
306.381	0.17
306.75	0.19
307.12	0.19
307.49	0.19
307.859	0.2
308.229	0.2
308.598	0.19
308.968	0.2
309.337	0.21
309.707	0.21
310.076	0.22
310.445	0.22
310.815	0.22
311.184	0.22
311.553	0.21
311.923	0.22
312.292	0.22
312.661	0.22
313.03	0.22
313.399	0.22
313.768	0.22
314.137	0.22
314.506	0.23
314.875	0.22
315.244	0.22
315.613	0.23
315.982	0.22
316.351	0.22
316.72	0.22
317.089	0.22
317.458	0.22
317.826	0.22
318.195	0.22
318.564	0.22
318.933	0.21
319.301	0.21
319.67	0.2
320.038	0.21
320.407	0.2
320.775	0.21
321.144	0.2
321.512	0.2
321.881	0.19
322.249	0.2
322.618	0.2
322.986	0.19
323.354	0.19
323.723	0.19
324.091	0.19
324.459	0.19
324.827	0.18
325.195	0.18
325.564	0.19
325.932	0.18
326.3	0.18
326.668	0.18
327.036	0.19
327.404	0.18
327.772	0.18
328.14	0.18
328.508	0.18
328.875	0.18
329.243	0.18
329.611	0.17
329.979	0.19
330.346	0.19
330.714	0.19
331.082	0.19
331.449	0.19
331.817	0.19
332.185	0.19
332.552	0.19
332.92	0.2
333.287	0.2
333.655	0.2
334.022	0.2
334.389	0.2
334.757	0.21
335.124	0.21
335.491	0.21
335.859	0.21
336.226	0.21
336.593	0.21
336.96	0.21
337.327	0.22
337.695	0.22
338.062	0.22
338.429	0.22
338.796	0.23
339.163	0.23
339.53	0.24
339.897	0.24
340.263	0.25
340.63	0.25
340.997	0.25
341.364	0.26
341.731	0.26
342.097	0.27
342.464	0.27
342.831	0.27
343.197	0.28
343.564	0.29
343.931	0.29
344.297	0.29
344.664	0.3
345.03	0.3
345.396	0.31
345.763	0.31
346.129	0.31
346.496	0.32
346.862	0.32
347.228	0.33
347.594	0.33
347.961	0.34
348.327	0.34
348.693	0.35
349.059	0.35
349.425	0.36
349.791	0.37
350.157	0.37
350.523	0.38
350.889	0.38
351.255	0.39
351.621	0.4
351.987	0.4
352.353	0.41
352.719	0.42
353.084	0.43
353.45	0.43
353.816	0.44
354.181	0.46
354.547	0.46
354.913	0.47
355.278	0.48
355.644	0.49
356.009	0.51
356.375	0.51
356.74	0.52
357.106	0.54
357.471	0.55
357.836	0.56
358.202	0.57
358.567	0.58
358.932	0.59
359.297	0.6
359.663	0.61
360.028	0.62
360.393	0.62
360.758	0.63
361.123	0.64
361.488	0.65
361.853	0.66
362.218	0.66
362.583	0.67
362.948	0.68
363.312	0.69
363.677	0.7
364.042	0.7
364.407	0.72
364.772	0.73
365.136	0.74
365.501	0.76
365.865	0.77
366.23	0.78
366.595	0.8
366.959	0.83
367.324	0.84
367.688	0.85
368.052	0.86
368.417	0.87
368.781	0.88
369.145	0.89
369.51	0.9
369.874	0.9
370.238	0.9
370.602	0.9
370.967	0.9
371.331	0.89
371.695	0.9
372.059	0.89
372.423	0.88
372.787	0.88
373.151	0.88
373.515	0.88
373.878	0.87
374.242	0.87
374.606	0.87
374.97	0.87
375.334	0.87
375.697	0.88
376.061	0.88
376.425	0.88
376.788	0.89
377.152	0.89
377.515	0.91
377.879	0.91
378.242	0.92
378.606	0.93
378.969	0.94
379.333	0.95
379.696	0.97
380.059	0.98
380.422	1
380.786	1.01
381.149	1.03
381.512	1.05
381.875	1.06
382.238	1.09
382.601	1.12
382.964	1.15
383.327	1.18
383.69	1.21
384.053	1.23
384.416	1.25
384.779	1.28
385.142	1.31
385.504	1.34
385.867	1.36
386.23	1.36
386.593	1.37
386.955	1.39
387.318	1.38
387.68	1.39
388.043	1.34
388.405	1.36
388.768	1.34
389.13	1.33
389.493	1.32
389.855	1.31
390.217	1.3
390.58	1.31
390.942	1.32
391.304	1.33
391.666	1.34
392.028	1.35
392.391	1.38
392.753	1.42
393.115	1.47
393.477	1.5
393.839	1.54
394.201	1.59
394.563	1.64
394.924	1.72
395.286	1.77
395.648	1.76
396.01	1.82
396.371	1.83
396.733	1.85
397.095	1.88
397.456	1.86
397.818	1.9
398.18	1.86
398.541	1.85
398.903	1.84
399.264	1.78
399.625	1.74
399.987	1.7
400.348	1.65
400.709	1.61
401.071	1.52
401.432	1.43
401.793	1.35
402.154	1.29
402.515	1.2
402.876	1.12
403.238	1.04
403.599	0.97
403.96	0.89
404.32	0.84
404.681	0.79
405.042	0.73
405.403	0.68
405.764	0.63
406.125	0.59
406.485	0.55
406.846	0.52
407.207	0.48
407.567	0.45
407.928	0.43
408.288	0.4
408.649	0.39
409.009	0.37
409.37	0.34
409.73	0.33
410.091	0.31
410.451	0.29
410.811	0.28
411.171	0.28
411.532	0.26
411.892	0.25
412.252	0.24
412.612	0.23
412.972	0.22
413.332	0.21
413.692	0.21
414.052	0.2
414.412	0.19
414.772	0.19
415.132	0.18
415.492	0.17
415.851	0.17
416.211	0.16
416.571	0.16
416.931	0.16
417.29	0.15
417.65	0.15
418.009	0.15
418.369	0.14
418.728	0.14
419.088	0.14
419.447	0.14
419.807	0.13
420.166	0.14
420.525	0.13
420.884	0.12
421.244	0.12
421.603	0.12
421.962	0.12
422.321	0.11
422.68	0.12
423.039	0.11
423.398	0.11
423.757	0.11
424.116	0.1
424.475	0.1
424.834	0.1
425.193	0.1
425.551	0.1
425.91	0.1
426.269	0.1
426.628	0.11
426.986	0.1
427.345	0.1
427.703	0.09
428.062	0.1
428.42	0.08
428.779	0.1
429.137	0.09
429.496	0.09
429.854	0.1
430.212	0.09
430.57	0.09
430.929	0.09
431.287	0.09
431.645	0.09
432.003	0.08
432.361	0.08
432.719	0.08
433.077	0.08
433.435	0.08
433.793	0.08
434.151	0.07
434.509	0.09
434.866	0.08
435.224	0.08
435.582	0.08
435.94	0.08
436.297	0.08
436.655	0.08
437.012	0.08
437.37	0.08
437.727	0.07
438.085	0.07
438.442	0.07
438.8	0.08
439.157	0.07
439.514	0.07
439.872	0.07
440.229	0.07
440.586	0.07
440.943	0.06
441.3	0.07
441.657	0.07
442.014	0.06
442.371	0.07
442.728	0.06
443.085	0.06
443.442	0.06
443.799	0.06
444.156	0.06
444.513	0.06
444.869	0.06
445.226	0.06
445.583	0.06
445.939	0.06
446.296	0.05
446.652	0.06
447.009	0.06
447.365	0.06
447.722	0.06
448.078	0.06
448.434	0.05
448.791	0.05
449.147	0.05
449.503	0.05
449.859	0.06
450.215	0.05
450.571	0.05
450.928	0.05
451.284	0.04
451.64	0.05
451.995	0.04
452.351	0.05
452.707	0.04
453.063	0.05
453.419	0.04
453.775	0.04
454.13	0.04
454.486	0.03
454.842	0.04
455.197	0.03
455.553	0.04
455.908	0.04
456.264	0.03
456.619	0.03
456.975	0.04
457.33	0.02
457.685	0.03
458.04	0.02
458.396	0.02
458.751	0.02
459.106	0.03
459.461	0.02
459.816	0.02
460.171	0.01
460.526	0.01
460.881	0.01
461.236	0
461.591	0.01
461.946	-0
462.301	0.01
462.655	0
463.01	-0
463.365	-0
463.719	-0
464.074	-0.01
464.428	-0.01
464.783	-0.01
465.137	-0.02
465.492	-0.01
465.846	-0.01
466.201	-0.01
466.555	-0.01
466.909	-0.01
467.263	-0.01
467.618	-0.01
467.972	-0
468.326	-0.02
468.68	-0.02
469.034	-0.01
469.388	-0.02
469.742	-0.01
470.096	-0.02
470.45	-0.01
470.804	-0.02
471.157	-0.01
471.511	-0.01
471.865	-0.02
472.218	-0.01
472.572	-0.01
472.926	-0.01
473.279	-0.01
473.633	0
473.986	0
474.34	0
474.693	0.01
475.046	0.02
475.4	0.02
475.753	0.03
476.106	0.03
476.459	0.02
476.812	0.03
477.165	0.03
477.519	0.03
477.872	0.04
478.224	0.04
478.577	0.04
478.93	0.05
479.283	0.05
479.636	0.05
479.989	0.05
480.341	0.05
480.694	0.06
481.047	0.06
481.399	0.06
481.752	0.07
482.104	0.07
482.457	0.07
482.809	0.07
483.162	0.07
483.514	0.07
483.866	0.08
484.219	0.08
484.571	0.08
484.923	0.08
485.275	0.08
485.627	0.08
485.979	0.08
486.331	0.08
486.683	0.09
487.035	0.09
487.387	0.09
487.739	0.09
488.091	0.09
488.443	0.09
488.794	0.09
489.146	0.1
489.498	0.1
489.849	0.1
490.201	0.1
490.552	0.1
490.904	0.11
491.255	0.1
491.607	0.11
491.958	0.11
492.309	0.11
492.661	0.12
493.012	0.11
493.363	0.11
493.714	0.12
494.065	0.12
494.416	0.12
494.767	0.12
495.118	0.13
495.469	0.12
495.82	0.13
496.171	0.13
496.522	0.13
496.872	0.13
497.223	0.13
497.574	0.13
497.924	0.14
498.275	0.14
498.626	0.14
498.976	0.14
499.327	0.15
499.677	0.15
500.027	0.15
500.378	0.15
500.728	0.15
501.078	0.16
501.428	0.15
501.779	0.15
502.129	0.16
502.479	0.16
502.829	0.16
503.179	0.17
503.529	0.17
503.879	0.17
504.229	0.17
504.578	0.18
504.928	0.17
505.278	0.17
505.628	0.18
505.977	0.18
506.327	0.18
506.676	0.18
507.026	0.18
507.375	0.18
507.725	0.19
508.074	0.19
508.424	0.19
508.773	0.2
509.122	0.19
509.471	0.19
509.82	0.2
510.17	0.2
510.519	0.2
510.868	0.21
511.217	0.2
511.566	0.21
511.915	0.21
512.263	0.21
512.612	0.22
512.961	0.21
513.31	0.22
513.659	0.22
514.007	0.22
514.356	0.22
514.704	0.22
515.053	0.22
515.401	0.22
515.75	0.23
516.098	0.23
516.447	0.23
516.795	0.23
517.143	0.24
517.491	0.24
517.839	0.24
518.188	0.24
518.536	0.25
518.884	0.25
519.232	0.25
519.58	0.25
519.928	0.25
520.275	0.25
520.623	0.26
520.971	0.25
521.319	0.26
521.666	0.26
522.014	0.26
522.362	0.27
522.709	0.27
523.057	0.27
523.404	0.27
523.752	0.27
524.099	0.27
524.446	0.28
524.794	0.28
525.141	0.28
525.488	0.28
525.835	0.29
526.182	0.29
526.529	0.29
526.876	0.29
527.223	0.29
527.57	0.29
527.917	0.29
528.264	0.3
528.611	0.31
528.958	0.3
529.304	0.3
529.651	0.31
529.998	0.31
530.344	0.31
530.691	0.32
531.037	0.32
531.384	0.32
531.73	0.32
532.076	0.32
532.423	0.33
532.769	0.33
533.115	0.33
533.461	0.33
533.807	0.33
534.154	0.34
534.5	0.34
534.846	0.34
535.192	0.35
535.537	0.35
535.883	0.35
536.229	0.35
536.575	0.35
536.921	0.36
537.266	0.36
537.612	0.36
537.957	0.36
538.303	0.37
538.649	0.37
538.994	0.38
539.339	0.37
539.685	0.38
540.03	0.38
540.375	0.39
540.721	0.39
541.066	0.39
541.411	0.39
541.756	0.39
542.101	0.4
542.446	0.4
542.791	0.4
543.136	0.4
543.481	0.41
543.825	0.41
544.17	0.41
544.515	0.42
544.86	0.42
545.204	0.43
545.549	0.43
545.893	0.43
546.238	0.43
546.582	0.43
546.927	0.43
547.271	0.44
547.615	0.44
547.96	0.44
548.304	0.45
548.648	0.45
548.992	0.45
549.336	0.46
549.68	0.46
550.024	0.46
550.368	0.46
550.712	0.46
551.056	0.47
551.4	0.47
551.743	0.47
552.087	0.47
552.431	0.48
552.774	0.48
553.118	0.48
553.462	0.48
553.805	0.48
554.148	0.49
554.492	0.49
554.835	0.49
555.178	0.48
555.522	0.49
555.865	0.49
556.208	0.5
556.551	0.5
556.894	0.5
557.237	0.5
557.58	0.5
557.923	0.51
558.266	0.51
558.609	0.51
558.952	0.51
559.294	0.51
559.637	0.51
559.98	0.51
560.322	0.51
560.665	0.51
561.007	0.52
561.35	0.52
561.692	0.52
562.034	0.53
562.377	0.53
562.719	0.53
563.061	0.52
563.403	0.52
563.745	0.52
564.088	0.53
564.43	0.53
564.772	0.53
565.113	0.53
565.455	0.53
565.797	0.53
566.139	0.54
566.481	0.54
566.822	0.53
567.164	0.53
567.506	0.54
567.847	0.54
568.189	0.54
568.53	0.54
568.872	0.54
569.213	0.54
569.554	0.54
569.895	0.54
570.237	0.54
570.578	0.54
570.919	0.54
571.26	0.55
571.601	0.54
571.942	0.54
572.283	0.54
572.624	0.55
572.965	0.54
573.306	0.54
573.646	0.54
573.987	0.54
574.328	0.54
574.668	0.54
575.009	0.54
575.349	0.54
575.69	0.54
576.03	0.54
576.37	0.54
576.711	0.54
577.051	0.54
577.391	0.54
577.731	0.55
578.072	0.55
578.412	0.55
578.752	0.55
579.092	0.55
579.431	0.54
579.771	0.52
580.111	0.51
580.451	0.52
580.791	0.54
581.13	0.55
581.47	0.55
581.81	0.55
582.149	0.55
582.489	0.55
582.828	0.55
583.167	0.52
583.507	0.49
583.846	0.47
584.185	0.5
584.525	0.53
584.864	0.55
585.203	0.56
585.542	0.57
585.881	0.57
586.22	0.58
586.559	0.57
586.898	0.56
587.236	0.56
587.575	0.55
587.914	0.56
588.252	0.58
588.591	0.58
588.93	0.59
589.268	0.59
589.607	0.58
589.945	0.59
590.283	0.59
590.622	0.59
590.96	0.6
591.298	0.61
591.636	0.61
591.974	0.61
592.313	0.61
592.651	0.62
592.989	0.62
593.326	0.62
593.664	0.62
594.002	0.63
594.34	0.62
594.678	0.62
595.015	0.63
595.353	0.62
595.691	0.62
596.028	0.64
596.366	0.64
596.703	0.64
597.04	0.65
597.378	0.65
597.715	0.65
598.052	0.66
598.389	0.66
598.726	0.66
599.064	0.67
599.401	0.66
599.738	0.67
600.074	0.67
600.411	0.67
600.748	0.67
601.085	0.66
601.422	0.66
601.758	0.66
602.095	0.66
602.432	0.66
602.768	0.66
603.105	0.67
603.441	0.67
603.777	0.67
604.114	0.67
604.45	0.67
604.786	0.67
605.122	0.67
605.459	0.67
605.795	0.67
606.131	0.67
606.467	0.67
606.803	0.68
607.139	0.67
607.474	0.67
607.81	0.67
608.146	0.67
608.482	0.66
608.817	0.66
609.153	0.67
609.488	0.66
609.824	0.66
610.159	0.66
610.495	0.66
610.83	0.66
611.165	0.66
611.5	0.66
611.836	0.65
612.171	0.65
612.506	0.65
612.841	0.65
613.176	0.65
613.511	0.65
613.845	0.64
614.18	0.64
614.515	0.64
614.85	0.63
615.184	0.63
615.519	0.63
615.854	0.63
616.188	0.63
616.523	0.63
616.857	0.63
617.191	0.63
617.526	0.62
617.86	0.62
618.194	0.62
618.528	0.62
618.862	0.62
619.196	0.62
619.53	0.62
619.864	0.62
620.198	0.62
620.532	0.61
620.866	0.61
621.2	0.61
621.533	0.61
621.867	0.61
622.201	0.6
622.534	0.6
622.868	0.6
623.201	0.6
623.534	0.59
623.868	0.59
624.201	0.59
624.534	0.58
624.868	0.58
625.201	0.58
625.534	0.58
625.867	0.58
626.2	0.58
626.533	0.57
626.865	0.57
627.198	0.56
627.531	0.56
627.864	0.56
628.196	0.56
628.529	0.55
628.862	0.56
629.194	0.55
629.527	0.55
629.859	0.55
630.191	0.54
630.524	0.55
630.856	0.54
631.188	0.54
631.52	0.53
631.852	0.53
632.184	0.52
632.516	0.52
632.848	0.51
633.18	0.51
633.512	0.51
633.844	0.5
634.175	0.5
634.507	0.5
634.839	0.49
635.17	0.49
635.502	0.48
635.833	0.48
636.165	0.48
636.496	0.47
636.827	0.47
637.159	0.47
637.49	0.46
637.821	0.46
638.152	0.46
638.483	0.45
638.814	0.45
639.145	0.45
639.476	0.44
639.807	0.44
640.137	0.44
640.468	0.43
640.799	0.43
641.129	0.43
641.46	0.42
641.791	0.42
642.121	0.41
642.451	0.41
642.782	0.41
643.112	0.41
643.442	0.4
643.773	0.4
644.103	0.4
644.433	0.39
644.763	0.4
645.093	0.4
645.423	0.39
645.753	0.39
646.082	0.39
646.412	0.39
646.742	0.39
647.072	0.38
647.401	0.38
647.731	0.38
648.06	0.38
648.39	0.38
648.719	0.38
649.048	0.38
649.378	0.37
649.707	0.37
650.036	0.37
650.365	0.37
650.694	0.36
651.023	0.36
651.352	0.35
651.681	0.36
652.01	0.36
652.339	0.36
652.668	0.36
652.996	0.36
653.325	0.36
653.654	0.36
653.982	0.36
654.311	0.35
654.639	0.36
654.967	0.35
655.296	0.36
655.624	0.36
655.952	0.36
656.28	0.35
656.609	0.36
656.937	0.36
657.265	0.36
657.593	0.27
657.92	0.14
658.248	0.09
658.576	0.1
658.904	0.2
659.231	0.29
659.559	0.34
659.887	0.34
660.214	0.34
660.542	0.35
660.869	0.35
661.196	0.35
661.524	0.35
661.851	0.35
662.178	0.35
662.505	0.35
662.832	0.35
663.159	0.35
663.486	0.35
663.813	0.35
664.14	0.34
664.467	0.34
664.794	0.35
665.12	0.35
665.447	0.34
665.774	0.34
666.1	0.34
666.427	0.34
666.753	0.34
667.079	0.33
667.406	0.33
667.732	0.33
668.058	0.33
668.384	0.33
668.71	0.33
669.036	0.33
669.362	0.33
669.688	0.33
670.014	0.32
670.34	0.33
670.666	0.32
670.991	0.32
671.317	0.32
671.643	0.32
671.968	0.32
672.294	0.31
672.619	0.31
672.945	0.31
673.27	0.31
673.595	0.31
673.92	0.31
674.246	0.3
674.571	0.3
674.896	0.3
675.221	0.3
675.546	0.3
675.87	0.3
676.195	0.29
676.52	0.29
676.845	0.29
677.169	0.29
677.494	0.28
677.819	0.28
678.143	0.28
678.468	0.28
678.792	0.27
679.116	0.27
679.44	0.27
679.765	0.27
680.089	0.27
680.413	0.26
680.737	0.26
681.061	0.26
681.385	0.26
681.709	0.26
682.033	0.25
682.356	0.25
682.68	0.25
683.004	0.25
683.327	0.24
683.651	0.24
683.974	0.24
684.298	0.24
684.621	0.23
684.944	0.23
685.268	0.23
685.591	0.22
685.914	0.22
686.237	0.22
686.56	0.22
686.883	0.21
687.206	0.21
687.529	0.21
687.852	0.2
688.175	0.21
688.497	0.21
688.82	0.2
689.142	0.2
689.465	0.2
689.787	0.2
690.11	0.19
690.432	0.19
690.755	0.19
691.077	0.19
691.399	0.18
691.721	0.18
692.043	0.18
692.365	0.18
692.687	0.18
693.009	0.17
693.331	0.17
693.653	0.17
693.974	0.16
694.296	0.16
694.618	0.16
694.939	0.16
695.261	0.16
695.582	0.16
695.904	0.15
696.225	0.15
696.546	0.16
696.868	0.15
697.189	0.15
697.51	0.15
697.831	0.15
698.152	0.15
698.473	0.14
698.794	0.14
699.114	0.14
699.435	0.13
699.756	0.13
700.077	0.13
700.397	0.13
700.718	0.13
701.038	0.13
701.359	0.13
701.679	0.13
701.999	0.13
702.32	0.13
702.64	0.12
702.96	0.12
703.28	0.12
703.6	0.12
703.92	0.12
704.24	0.12
704.56	0.12
704.879	0.12
705.199	0.12
705.519	0.12
705.838	0.12
706.158	0.12
706.478	0.12
706.797	0.12
707.116	0.11
707.436	0.11
707.755	0.11
708.074	0.11
708.393	0.11
708.712	0.11
709.031	0.1
709.35	0.1
709.669	0.1
709.988	0.1
710.307	0.1
710.626	0.1
710.944	0.11
711.263	0.11
711.582	0.11
711.9	0.11
712.219	0.11
712.537	0.11
712.855	0.11
713.174	0.11
713.492	0.11
713.81	0.11
714.128	0.11
714.446	0.11
714.764	0.11
715.082	0.1
715.4	0.11
715.718	0.11
716.035	0.11
716.353	0.11
716.671	0.11
716.988	0.11
717.306	0.11
717.623	0.11
717.941	0.11
718.258	0.11
718.575	0.11
718.893	0.11
719.21	0.11
719.527	0.11
719.844	0.11
720.161	0.11
720.478	0.11
720.795	0.11
721.112	0.11
721.428	0.12
721.745	0.11
722.062	0.12
722.378	0.11
722.695	0.11
723.011	0.11
723.328	0.11
723.644	0.12
723.96	0.11
724.276	0.11
724.593	0.12
724.909	0.12
725.225	0.11
725.541	0.11
725.857	0.11
726.173	0.11
726.488	0.12
726.804	0.11
727.12	0.12
727.435	0.12
727.751	0.12
728.067	0.12
728.382	0.12
728.697	0.12
729.013	0.12
729.328	0.12
729.643	0.12
729.958	0.12
730.273	0.12
730.588	0.12
730.903	0.12
731.218	0.12
731.533	0.13
731.848	0.12
732.163	0.13
732.477	0.13
732.792	0.13
733.107	0.12
733.421	0.12
733.736	0.12
734.05	0.12
734.364	0.12
734.678	0.12
734.993	0.12
735.307	0.12
735.621	0.12
735.935	0.12
736.249	0.12
736.563	0.13
736.877	0.13
737.19	0.12
737.504	0.12
737.818	0.12
738.131	0.12
738.445	0.13
738.758	0.13
739.072	0.12
739.385	0.12
739.698	0.12
740.012	0.12
740.325	0.12
740.638	0.12
740.951	0.11
741.264	0.11
741.577	0.11
741.89	0.11
742.203	0.11
742.515	0.12
742.828	0.11
743.141	0.11
743.453	0.11
743.766	0.11
744.078	0.11
744.391	0.11
744.703	0.1
745.015	0.1
745.327	0.1
745.639	0.1
745.952	0.1
746.264	0.1
746.575	0.1
746.887	0.1
747.199	0.1
747.511	0.1
747.823	0.1
748.134	0.1
748.446	0.1
748.757	0.1
749.069	0.09
749.38	0.09
749.692	0.09
750.003	0.09
750.314	0.09
750.625	0.09
750.936	0.08
751.248	0.08
751.559	0.08
751.869	0.08
752.18	0.08
752.491	0.08
752.802	0.08
753.112	0.08
753.423	0.07
753.734	0.07
754.044	0.07
754.355	0.07
754.665	0.07
754.975	0.07
755.285	0.06
755.596	0.06
755.906	0.06
756.216	0.06
756.526	0.06
756.836	0.06
757.146	0.06
757.455	0.06
757.765	0.06
758.075	0.06
758.385	0.05
758.694	0.05
759.004	0.05
759.313	0.05
759.622	0.05
759.932	0.05
760.241	0.05
760.55	0.05
760.859	0.05
761.168	0.05
761.477	0.05
761.786	0.05
762.095	0.05
762.404	0.05
762.713	0.05
763.021	0.05
763.33	0.05
763.639	0.05
763.947	0.05
764.256	0.05
764.564	0.05
764.872	0.05
765.181	0.05
765.489	0.05
765.797	0.05
766.105	0.05
766.413	0.05
766.721	0.05
767.029	0.05
767.337	0.05
767.644	0.05
767.952	0.04
768.26	0.04
768.567	0.04
768.875	0.04
769.182	0.04
769.49	0.04
769.797	0.04
770.104	0.04
770.411	0.04
770.718	0.04
771.026	0.04
771.333	0.04
771.639	0.04
771.946	0.04
772.253	0.04
772.56	0.04
772.867	0.04
773.173	0.04
773.48	0.03
773.786	0.03
774.093	0.03
774.399	0.04
774.705	0.04
775.012	0.04
775.318	0.04
775.624	0.03
775.93	0.03
776.236	0.03
776.542	0.03
776.848	0.04
777.154	0.03
777.459	0.03
777.765	0.03
778.071	0.03
778.376	0.03
778.682	0.03
778.987	0.03
779.292	0.03
779.598	0.03
779.903	0.03
780.208	0.03
780.513	0.03
780.818	0.03
781.123	0.03
781.428	0.03
781.733	0.03
782.038	0.03
782.343	0.03
782.647	0.03
782.952	0.03
783.256	0.03
783.561	0.03
783.865	0.03
784.17	0.03
784.474	0.03
784.778	0.03
785.082	0.03
785.386	0.03
785.69	0.03
785.994	0.02
786.298	0.03
786.602	0.03
786.906	0.03
787.209	0.03
787.513	0.03
787.817	0.03
788.12	0.03
788.424	0.03
788.727	0.03
789.03	0.03
789.333	0.03
789.637	0.03
789.94	0.03
790.243	0.03
790.546	0.03
790.849	0.03
791.152	0.04
791.454	0.03
791.757	0.03
792.06	0.04
792.362	0.03
792.665	0.03
792.967	0.03
793.27	0.03
793.572	0.03
793.874	0.03
794.177	0.03
794.479	0.03
794.781	0.03
795.083	0.03
795.385	0.03
795.687	0.03
795.989	0.03
796.29	0.03
796.592	0.03
796.894	0.03
797.195	0.03
797.497	0.03
797.798	0.03
798.1	0.03
798.401	0.03
798.702	0.03
799.003	0.03
799.304	0.03
799.605	0.03
799.906	0.04
800.207	0.03
800.508	0.03
800.809	0.03
801.11	0.03
801.41	0.04
801.711	0.04
802.011	0.04
802.312	0.04
802.612	0.04
802.913	0.04
803.213	0.04
803.513	0.03
803.813	0.03
804.113	0.03
804.413	0.03
804.713	0.03
805.013	0.03
805.313	0.03
805.613	0.03
805.912	0.02
806.212	0.03
806.511	0.02
806.811	0.02
807.11	0.02
807.41	0.02
807.709	0.02
808.008	0.02
808.307	0.02
808.606	0.02
808.905	0.02
809.204	0.03
809.503	0.03
809.802	0.03
810.101	0.03
810.399	0.03
810.698	0.03
810.997	0.02
811.295	0.02
811.593	0.03
811.892	0.03
812.19	0.03
812.488	0.03
812.786	0.03
813.084	0.03
813.383	0.03
813.68	0.03
813.978	0.03
814.276	0.03
814.574	0.03
814.872	0.03
815.169	0.03
815.467	0.03
815.764	0.03
816.062	0.03
816.359	0.03
816.656	0.03
816.954	0.03
817.251	0.02
817.548	0.03
817.845	0.02
818.142	0.03
818.439	0.02
818.735	0.03
819.032	0.03
819.329	0.02
819.626	0.02
819.922	0.02
820.219	0.02
820.515	0.02
820.811	0.02
821.108	0.02
821.404	0.03
821.7	0.03
821.996	0.02
822.292	0.03
822.588	0.02
822.884	0.03
823.18	0.03
823.475	0.03
823.771	0.03
824.067	0.03
824.362	0.03
824.658	0.04
824.953	0.04
825.249	0.03
825.544	0.03
825.839	0.03
826.134	0.03
826.429	0.03
826.724	0.03
827.019	0.03
827.314	0.03
827.609	0.03
827.904	0.04
828.198	0.03
828.493	0.03
828.787	0.03
829.082	0.03
829.376	0.03
829.671	0.03
829.965	0.03
830.259	0.03
830.553	0.03
830.847	0.04
831.141	0.03
831.435	0.03
831.729	0.03
832.023	0.03
832.317	0.03
832.61	0.03
832.904	0.03
833.197	0.03
833.491	0.04
833.784	0.04
834.077	0.03
834.371	0.04
834.664	0.04
834.957	0.04
835.25	0.03
835.543	0.03
835.836	0.04
836.129	0.04
836.421	0.03
836.714	0.04
837.007	0.03
837.299	0.03
837.592	0.03
837.884	0.03
838.177	0.03
838.469	0.03
838.761	0.03
839.053	0.03
839.345	0.03
839.637	0.03
839.929	0.01
840.221	0.02
840.513	0.02
840.805	0.02
841.096	0.04
841.388	0.04
841.68	0.03
841.971	0.03
842.262	0.02
842.554	0.03
842.845	0.02
843.136	0.02
843.427	0.03
843.718	0.03
844.009	0.02
844.3	0.03
844.591	0.03
844.882	0.03
845.173	0.03
845.463	0.03
845.754	0.02
846.044	0.02
846.335	0.03
846.625	0.03
846.915	0.02
847.206	0.03
847.496	0.03
847.786	0.04
848.076	0.05
848.366	0.04
848.656	0.03
848.945	0.03
849.235	0.03
849.525	0.03
849.814	0.03
850.104	0.03
850.393	0.02
850.683	0.03
850.972	0.03
851.261	0.04
851.551	0.03
851.84	0.03
852.129	0.03
852.418	0.02
852.707	0.03
852.995	0.02
853.284	0.03
853.573	0.02
853.862	0.02
854.15	0.03
854.439	0.04
854.727	0.03
855.015	0.03
855.304	0.01
855.592	0.02
855.88	0.03
856.168	0.02
856.456	0.02
856.744	0.03
857.032	0
857.32	0.03
857.607	0.03
857.895	0.02
858.183	0.03
858.47	0.03
858.757	0.03
859.045	0.03
859.332	0.03
859.619	0.03
859.907	0.02
860.194	0.03
860.481	0.03
860.768	0.03
861.054	0.03
861.341	0.02
861.628	0.03
861.915	0.04
862.201	0.03
862.488	0.03
862.774	0.01
863.061	0.01
863.347	0.03
863.633	0.02
863.919	0.05
864.205	0.03
864.491	0.03
864.777	0.02
865.063	0.04
865.349	0.02
865.635	0.03
865.92	0.02
866.206	0.05
866.492	0.03
866.777	0.04
867.062	0.02
867.348	0.03
867.633	0.02
867.918	-0.02
868.203	0.05
868.488	0.03
868.773	0.01
869.058	0.01
869.343	0.03
869.628	-0.02
869.912	0
870.197	0.05
870.482	-0.02
870.766	-0.04
871.05	0.01
871.335	-0.01
871.619	0.02
871.903	0.03
872.187	-0.01
872.471	-0
872.755	0.03
873.039	0.01
873.323	0
873.607	-0
873.89	-0
874.174	-0.02
874.458	-0.07
874.741	-0.04
875.024	0
875.308	-0.04
875.591	0.04
875.874	0
876.157	-0.05
876.44	-0.06
876.723	0.05
877.006	-0.01
877.289	-0.03
877.572	0.05
877.854	-0
878.137	0.01
878.42	-0.02
878.702	0.06
878.984	-0.02
879.267	-0.1
879.549	0.12
879.831	-0.01
880.113	-0.02
880.395	0.06
880.677	-0.07
880.959	-0.06
