Data from Rubpy_EV_1200_EDTA_Buffered_Absorbance_14-18-18-595.txt Node
Date: Tue Jun 30 14:18:18 BST 2026
User: fpm-admin
Spectrometer: OFX00224
Trigger mode: 0
Integration Time (sec): 7.000000E-2
Scans to average: 3
Nonlinearity correction enabled: false
Boxcar width: 0
Storing dark spectrum: false
XAxis mode: Wavelengths
Number of Pixels in Spectrum: 2136
>>>>>Begin Spectral Data<<<<<
154.91	0.18
155.289	0.27
155.669	0.06
156.048	-0.06
156.428	-0
156.807	-0.21
157.186	0.43
157.566	0.19
157.945	-0.31
158.325	-0.33
158.704	0.28
159.083	-0
159.462	0.39
159.842	0.49
160.221	0.41
160.6	-0
160.979	0.6
161.359	-0.08
161.738	-0
162.117	-0
162.496	-0
162.875	-0.18
163.254	0.09
163.633	-0
164.012	0.25
164.391	-0
164.77	-1.3
165.149	0.17
165.528	-0
165.907	-0
166.286	-0.54
166.665	-0.29
167.044	0.2
167.423	1.01
167.802	-0
168.181	-0
168.559	-0.22
168.938	0.24
169.317	0.18
169.696	-1.15
170.074	-1.4
170.453	-0
170.832	-0.26
171.21	-0.25
171.589	-0
171.968	-0
172.346	-0
172.725	-0.72
173.103	-0.3
173.482	0.33
173.861	1.36
174.239	-0.03
174.617	0.2
174.996	-0.4
175.374	-0.41
175.753	-0.35
176.131	-0
176.51	-0.44
176.888	-0
177.266	-0
177.645	-0.14
178.023	-0
178.401	-0.26
178.779	0.04
179.158	-0
179.536	-0
179.914	-0
180.292	-0.94
180.67	-0.4
181.048	-0
181.427	-0
181.805	0.07
182.183	-0
182.561	-1.34
182.939	-0.86
183.317	-0
183.695	0.61
184.073	-0
184.451	0.37
184.829	0.32
185.206	0.67
185.584	0.29
185.962	-0.03
186.34	0.82
186.718	-0.02
187.096	-0
187.473	-0
187.851	-0
188.229	-0
188.607	0.2
188.984	0.19
189.362	0.21
189.74	0.17
190.117	0.09
190.495	0.06
190.872	0.2
191.25	0.26
191.627	0.2
192.005	0.14
192.382	0.1
192.76	0.12
193.137	0.29
193.515	0.23
193.892	0.27
194.269	0.15
194.647	0.22
195.024	0.14
195.401	0.14
195.779	0.16
196.156	0.18
196.533	0.28
196.91	0.2
197.288	0.13
197.665	0.12
198.042	0.29
198.419	0.28
198.796	0.04
199.173	0.19
199.55	0.24
199.927	0.17
200.304	0.1
200.681	0.23
201.058	0.12
201.435	0.1
201.812	0.25
202.189	0.15
202.566	0.37
202.943	0.16
203.32	0.23
203.697	0.17
204.073	0.23
204.45	0.14
204.827	0.22
205.204	0.17
205.58	0.23
205.957	0.18
206.334	0.16
206.71	0.2
207.087	0.22
207.464	0.15
207.84	0.33
208.217	0.27
208.593	0.14
208.97	0.17
209.346	0.23
209.723	0.27
210.099	0.26
210.476	0.23
210.852	0.13
211.228	0.23
211.605	0.21
211.981	0.14
212.357	0.17
212.733	0.14
213.11	0.27
213.486	0.04
213.862	0.17
214.238	0.34
214.614	0.17
214.991	0.21
215.367	0.22
215.743	0.47
216.119	0.15
216.495	0.22
216.871	0.23
217.247	0.21
217.623	0.28
217.999	0.24
218.375	0.16
218.751	0.25
219.127	0.17
219.502	0.16
219.878	0.21
220.254	0.19
220.63	0.32
221.006	0.24
221.381	0.25
221.757	0.22
222.133	0.21
222.508	0.15
222.884	0.25
223.26	0.18
223.635	0.3
224.011	0.26
224.386	0.18
224.762	0.22
225.137	0.18
225.513	0.15
225.888	0.27
226.264	0.14
226.639	0.16
227.014	0.28
227.39	0.2
227.765	0.15
228.14	0.3
228.516	0.24
228.891	0.26
229.266	0.25
229.641	0.21
230.017	0.22
230.392	0.07
230.767	0.15
231.142	0.08
231.517	0.23
231.892	0.15
232.267	0.18
232.642	0.24
233.017	0.19
233.392	0.2
233.767	0.2
234.142	0.28
234.517	0.12
234.892	0.24
235.267	0.12
235.641	0.17
236.016	0.21
236.391	0.18
236.766	0.07
237.14	0.22
237.515	0.16
237.89	0.18
238.264	0.2
238.639	0.14
239.014	0.21
239.388	0.18
239.763	0.14
240.137	0.19
240.512	0.14
240.886	0.18
241.261	0.09
241.635	0.18
242.009	0.18
242.384	0.12
242.758	0.14
243.132	0.16
243.507	0.15
243.881	0.17
244.255	0.21
244.629	0.2
245.004	0.25
245.378	0.13
245.752	0.12
246.126	0.16
246.5	0.17
246.874	0.13
247.248	0.23
247.622	0.18
247.996	0.21
248.37	0.24
248.744	0.14
249.118	0.22
249.492	0.3
249.866	0.2
250.24	0.22
250.613	0.2
250.987	0.22
251.361	0.24
251.735	0.15
252.108	0.17
252.482	0.37
252.856	0.05
253.229	0.26
253.603	0.14
253.977	0.25
254.35	0.21
254.724	0.28
255.097	0.23
255.471	0.22
255.844	0.21
256.218	0.18
256.591	0.2
256.964	0.2
257.338	0.2
257.711	0.17
258.084	0.22
258.458	0.17
258.831	0.27
259.204	0.23
259.577	0.17
259.95	0.12
260.323	0.19
260.697	0.23
261.07	0.19
261.443	0.2
261.816	0.23
262.189	0.22
262.562	0.21
262.935	0.15
263.308	0.2
263.68	0.26
264.053	0.16
264.426	0.3
264.799	0.29
265.172	0.18
265.545	0.21
265.917	0.26
266.29	0.17
266.663	0.27
267.035	0.26
267.408	0.26
267.781	0.17
268.153	0.23
268.526	0.24
268.898	0.24
269.271	0.24
269.643	0.2
270.016	0.21
270.388	0.29
270.76	0.23
271.133	0.31
271.505	0.22
271.877	0.17
272.25	0.22
272.622	0.24
272.994	0.25
273.366	0.19
273.739	0.26
274.111	0.18
274.483	0.2
274.855	0.12
275.227	0.19
275.599	0.22
275.971	0.19
276.343	0.18
276.715	0.24
277.087	0.27
277.459	0.15
277.831	0.16
278.203	0.17
278.574	0.14
278.946	0.27
279.318	0.12
279.69	0.21
280.061	0.21
280.433	0.32
280.805	0.23
281.176	0.21
281.548	0.22
281.92	0.18
282.291	0.2
282.663	0.27
283.034	0.19
283.406	0.22
283.777	0.27
284.148	0.18
284.52	0.28
284.891	0.25
285.262	0.21
285.634	0.21
286.005	0.23
286.376	0.22
286.747	0.21
287.119	0.25
287.49	0.34
287.861	0.21
288.232	0.18
288.603	0.26
288.974	0.17
289.345	0.27
289.716	0.22
290.087	0.19
290.458	0.24
290.829	0.16
291.2	0.28
291.571	0.14
291.941	0.2
292.312	0.16
292.683	0.22
293.054	0.19
293.424	0.24
293.795	0.27
294.166	0.18
294.536	0.22
294.907	0.23
295.277	0.17
295.648	0.23
296.018	0.17
296.389	0.28
296.759	0.25
297.13	0.19
297.5	0.16
297.871	0.18
298.241	0.23
298.611	0.24
298.981	0.23
299.352	0.21
299.722	0.18
300.092	0.19
300.462	0.19
300.832	0.19
301.202	0.14
301.573	0.14
301.943	0.17
302.313	0.18
302.683	0.17
303.053	0.15
303.422	0.15
303.792	0.19
304.162	0.16
304.532	0.16
304.902	0.16
305.272	0.16
305.641	0.16
306.011	0.17
306.381	0.18
306.75	0.18
307.12	0.19
307.49	0.18
307.859	0.19
308.229	0.19
308.598	0.19
308.968	0.19
309.337	0.2
309.707	0.2
310.076	0.19
310.445	0.2
310.815	0.2
311.184	0.21
311.553	0.21
311.923	0.21
312.292	0.21
312.661	0.21
313.03	0.22
313.399	0.21
313.768	0.22
314.137	0.21
314.506	0.22
314.875	0.22
315.244	0.21
315.613	0.21
315.982	0.21
316.351	0.21
316.72	0.21
317.089	0.21
317.458	0.21
317.826	0.2
318.195	0.21
318.564	0.2
318.933	0.2
319.301	0.2
319.67	0.2
320.038	0.2
320.407	0.2
320.775	0.2
321.144	0.2
321.512	0.2
321.881	0.19
322.249	0.19
322.618	0.19
322.986	0.18
323.354	0.18
323.723	0.18
324.091	0.18
324.459	0.18
324.827	0.18
325.195	0.17
325.564	0.17
325.932	0.17
326.3	0.17
326.668	0.18
327.036	0.18
327.404	0.17
327.772	0.17
328.14	0.18
328.508	0.17
328.875	0.17
329.243	0.17
329.611	0.17
329.979	0.18
330.346	0.18
330.714	0.18
331.082	0.18
331.449	0.18
331.817	0.18
332.185	0.18
332.552	0.19
332.92	0.19
333.287	0.19
333.655	0.19
334.022	0.19
334.389	0.19
334.757	0.19
335.124	0.19
335.491	0.2
335.859	0.2
336.226	0.2
336.593	0.2
336.96	0.21
337.327	0.21
337.695	0.21
338.062	0.21
338.429	0.21
338.796	0.22
339.163	0.22
339.53	0.22
339.897	0.23
340.263	0.23
340.63	0.24
340.997	0.24
341.364	0.25
341.731	0.25
342.097	0.26
342.464	0.26
342.831	0.26
343.197	0.27
343.564	0.27
343.931	0.28
344.297	0.28
344.664	0.29
345.03	0.29
345.396	0.29
345.763	0.3
346.129	0.3
346.496	0.31
346.862	0.31
347.228	0.31
347.594	0.32
347.961	0.32
348.327	0.33
348.693	0.33
349.059	0.34
349.425	0.34
349.791	0.35
350.157	0.35
350.523	0.36
350.889	0.37
351.255	0.37
351.621	0.38
351.987	0.39
352.353	0.4
352.719	0.41
353.084	0.41
353.45	0.41
353.816	0.42
354.181	0.44
354.547	0.45
354.913	0.45
355.278	0.46
355.644	0.47
356.009	0.48
356.375	0.49
356.74	0.5
357.106	0.51
357.471	0.52
357.836	0.53
358.202	0.55
358.567	0.56
358.932	0.56
359.297	0.57
359.663	0.58
360.028	0.59
360.393	0.6
360.758	0.6
361.123	0.61
361.488	0.63
361.853	0.63
362.218	0.63
362.583	0.64
362.948	0.65
363.312	0.66
363.677	0.66
364.042	0.68
364.407	0.68
364.772	0.7
365.136	0.72
365.501	0.72
365.865	0.73
366.23	0.76
366.595	0.77
366.959	0.78
367.324	0.8
367.688	0.81
368.052	0.83
368.417	0.84
368.781	0.85
369.145	0.86
369.51	0.86
369.874	0.86
370.238	0.87
370.602	0.86
370.967	0.86
371.331	0.87
371.695	0.86
372.059	0.86
372.423	0.85
372.787	0.84
373.151	0.84
373.515	0.84
373.878	0.85
374.242	0.84
374.606	0.84
374.97	0.85
375.334	0.83
375.697	0.84
376.061	0.86
376.425	0.85
376.788	0.86
377.152	0.87
377.515	0.88
377.879	0.88
378.242	0.89
378.606	0.9
378.969	0.91
379.333	0.92
379.696	0.94
380.059	0.94
380.422	0.95
380.786	0.97
381.149	0.98
381.512	1.02
381.875	1.03
382.238	1.06
382.601	1.09
382.964	1.1
383.327	1.15
383.69	1.17
384.053	1.19
384.416	1.22
384.779	1.24
385.142	1.27
385.504	1.29
385.867	1.31
386.23	1.32
386.593	1.33
386.955	1.34
387.318	1.33
387.68	1.32
388.043	1.29
388.405	1.31
388.768	1.3
389.13	1.29
389.493	1.29
389.855	1.26
390.217	1.28
390.58	1.27
390.942	1.27
391.304	1.28
391.666	1.29
392.028	1.32
392.391	1.35
392.753	1.36
393.115	1.42
393.477	1.44
393.839	1.51
394.201	1.56
394.563	1.59
394.924	1.65
395.286	1.69
395.648	1.72
396.01	1.77
396.371	1.8
396.733	1.8
397.095	1.84
397.456	1.83
397.818	1.84
398.18	1.83
398.541	1.83
398.903	1.83
399.264	1.77
399.625	1.72
399.987	1.65
400.348	1.62
400.709	1.55
401.071	1.47
401.432	1.4
401.793	1.31
402.154	1.24
402.515	1.15
402.876	1.08
403.238	1.01
403.599	0.93
403.96	0.87
404.32	0.81
404.681	0.75
405.042	0.7
405.403	0.65
405.764	0.61
406.125	0.58
406.485	0.53
406.846	0.5
407.207	0.46
407.567	0.44
407.928	0.41
408.288	0.39
408.649	0.37
409.009	0.35
409.37	0.33
409.73	0.32
410.091	0.3
410.451	0.28
410.811	0.28
411.171	0.27
411.532	0.25
411.892	0.23
412.252	0.23
412.612	0.22
412.972	0.21
413.332	0.21
413.692	0.2
414.052	0.19
414.412	0.19
414.772	0.18
415.132	0.18
415.492	0.16
415.851	0.17
416.211	0.16
416.571	0.15
416.931	0.15
417.29	0.15
417.65	0.15
418.009	0.14
418.369	0.14
418.728	0.14
419.088	0.14
419.447	0.14
419.807	0.13
420.166	0.12
420.525	0.12
420.884	0.12
421.244	0.12
421.603	0.11
421.962	0.12
422.321	0.11
422.68	0.11
423.039	0.11
423.398	0.1
423.757	0.11
424.116	0.1
424.475	0.1
424.834	0.1
425.193	0.11
425.551	0.09
425.91	0.1
426.269	0.1
426.628	0.09
426.986	0.1
427.345	0.09
427.703	0.09
428.062	0.09
428.42	0.08
428.779	0.1
429.137	0.09
429.496	0.09
429.854	0.09
430.212	0.09
430.57	0.09
430.929	0.09
431.287	0.08
431.645	0.08
432.003	0.07
432.361	0.09
432.719	0.08
433.077	0.07
433.435	0.08
433.793	0.08
434.151	0.07
434.509	0.09
434.866	0.07
435.224	0.08
435.582	0.08
435.94	0.07
436.297	0.07
436.655	0.08
437.012	0.07
437.37	0.08
437.727	0.07
438.085	0.07
438.442	0.07
438.8	0.07
439.157	0.07
439.514	0.08
439.872	0.07
440.229	0.07
440.586	0.06
440.943	0.06
441.3	0.07
441.657	0.06
442.014	0.07
442.371	0.07
442.728	0.06
443.085	0.07
443.442	0.06
443.799	0.05
444.156	0.06
444.513	0.05
444.869	0.07
445.226	0.06
445.583	0.06
445.939	0.05
446.296	0.05
446.652	0.06
447.009	0.06
447.365	0.06
447.722	0.06
448.078	0.05
448.434	0.04
448.791	0.05
449.147	0.05
449.503	0.05
449.859	0.04
450.215	0.05
450.571	0.05
450.928	0.05
451.284	0.05
451.64	0.03
451.995	0.04
452.351	0.04
452.707	0.04
453.063	0.05
453.419	0.04
453.775	0.05
454.13	0.04
454.486	0.04
454.842	0.03
455.197	0.03
455.553	0.04
455.908	0.04
456.264	0.04
456.619	0.03
456.975	0.03
457.33	0.02
457.685	0.02
458.04	0.02
458.396	0.02
458.751	0.02
459.106	0.02
459.461	0.02
459.816	0.02
460.171	0.01
460.526	0.01
460.881	0.01
461.236	0.01
461.591	0
461.946	0
462.301	0
462.655	0
463.01	-0.01
463.365	-0.01
463.719	-0.01
464.074	-0.01
464.428	-0.01
464.783	-0.01
465.137	-0.01
465.492	-0.01
465.846	-0.01
466.201	-0.02
466.555	-0.01
466.909	-0.01
467.263	-0.01
467.618	-0.01
467.972	-0.01
468.326	-0.02
468.68	-0.02
469.034	-0.02
469.388	-0.02
469.742	-0.02
470.096	-0.02
470.45	-0.02
470.804	-0.02
471.157	-0.01
471.511	-0.01
471.865	-0.01
472.218	-0.01
472.572	-0.01
472.926	-0.01
473.279	-0.01
473.633	-0.01
473.986	-0.01
474.34	0
474.693	0.01
475.046	0.01
475.4	0.01
475.753	0.02
476.106	0.03
476.459	0.02
476.812	0.02
477.165	0.03
477.519	0.03
477.872	0.04
478.224	0.04
478.577	0.04
478.93	0.04
479.283	0.04
479.636	0.05
479.989	0.05
480.341	0.05
480.694	0.05
481.047	0.05
481.399	0.06
481.752	0.07
482.104	0.07
482.457	0.07
482.809	0.07
483.162	0.07
483.514	0.07
483.866	0.07
484.219	0.07
484.571	0.08
484.923	0.08
485.275	0.08
485.627	0.08
485.979	0.08
486.331	0.08
486.683	0.08
487.035	0.08
487.387	0.08
487.739	0.09
488.091	0.09
488.443	0.09
488.794	0.09
489.146	0.09
489.498	0.1
489.849	0.1
490.201	0.09
490.552	0.1
490.904	0.1
491.255	0.1
491.607	0.1
491.958	0.1
492.309	0.1
492.661	0.11
493.012	0.1
493.363	0.11
493.714	0.11
494.065	0.12
494.416	0.11
494.767	0.11
495.118	0.12
495.469	0.12
495.82	0.12
496.171	0.13
496.522	0.13
496.872	0.12
497.223	0.13
497.574	0.13
497.924	0.13
498.275	0.13
498.626	0.13
498.976	0.14
499.327	0.14
499.677	0.14
500.027	0.14
500.378	0.14
500.728	0.14
501.078	0.15
501.428	0.15
501.779	0.15
502.129	0.15
502.479	0.15
502.829	0.16
503.179	0.16
503.529	0.16
503.879	0.16
504.229	0.16
504.578	0.17
504.928	0.16
505.278	0.17
505.628	0.17
505.977	0.17
506.327	0.17
506.676	0.18
507.026	0.18
507.375	0.17
507.725	0.18
508.074	0.18
508.424	0.18
508.773	0.19
509.122	0.19
509.471	0.19
509.82	0.19
510.17	0.19
510.519	0.19
510.868	0.2
511.217	0.2
511.566	0.2
511.915	0.2
512.263	0.21
512.612	0.21
512.961	0.21
513.31	0.21
513.659	0.21
514.007	0.21
514.356	0.21
514.704	0.22
515.053	0.22
515.401	0.22
515.75	0.22
516.098	0.23
516.447	0.22
516.795	0.23
517.143	0.23
517.491	0.23
517.839	0.23
518.188	0.24
518.536	0.23
518.884	0.24
519.232	0.24
519.58	0.24
519.928	0.24
520.275	0.25
520.623	0.25
520.971	0.25
521.319	0.25
521.666	0.25
522.014	0.26
522.362	0.26
522.709	0.25
523.057	0.26
523.404	0.26
523.752	0.26
524.099	0.26
524.446	0.27
524.794	0.27
525.141	0.27
525.488	0.27
525.835	0.27
526.182	0.28
526.529	0.28
526.876	0.28
527.223	0.28
527.57	0.28
527.917	0.28
528.264	0.28
528.611	0.29
528.958	0.29
529.304	0.29
529.651	0.3
529.998	0.3
530.344	0.3
530.691	0.31
531.037	0.3
531.384	0.31
531.73	0.31
532.076	0.31
532.423	0.31
532.769	0.32
533.115	0.32
533.461	0.32
533.807	0.32
534.154	0.32
534.5	0.33
534.846	0.33
535.192	0.34
535.537	0.34
535.883	0.34
536.229	0.34
536.575	0.34
536.921	0.34
537.266	0.34
537.612	0.35
537.957	0.35
538.303	0.35
538.649	0.36
538.994	0.36
539.339	0.36
539.685	0.37
540.03	0.37
540.375	0.37
540.721	0.37
541.066	0.38
541.411	0.37
541.756	0.37
542.101	0.38
542.446	0.38
542.791	0.39
543.136	0.39
543.481	0.39
543.825	0.39
544.17	0.4
544.515	0.4
544.86	0.4
545.204	0.41
545.549	0.41
545.893	0.41
546.238	0.42
546.582	0.41
546.927	0.42
547.271	0.42
547.615	0.43
547.96	0.43
548.304	0.43
548.648	0.43
548.992	0.44
549.336	0.44
549.68	0.44
550.024	0.44
550.368	0.45
550.712	0.45
551.056	0.45
551.4	0.45
551.743	0.45
552.087	0.46
552.431	0.46
552.774	0.46
553.118	0.47
553.462	0.46
553.805	0.47
554.148	0.47
554.492	0.47
554.835	0.47
555.178	0.47
555.522	0.47
555.865	0.48
556.208	0.47
556.551	0.48
556.894	0.48
557.237	0.48
557.58	0.49
557.923	0.49
558.266	0.49
558.609	0.49
558.952	0.49
559.294	0.49
559.637	0.49
559.98	0.49
560.322	0.49
560.665	0.49
561.007	0.5
561.35	0.5
561.692	0.5
562.034	0.5
562.377	0.51
562.719	0.51
563.061	0.5
563.403	0.51
563.745	0.5
564.088	0.51
564.43	0.51
564.772	0.5
565.113	0.51
565.455	0.51
565.797	0.51
566.139	0.51
566.481	0.52
566.822	0.52
567.164	0.51
567.506	0.51
567.847	0.52
568.189	0.52
568.53	0.52
568.872	0.52
569.213	0.52
569.554	0.52
569.895	0.52
570.237	0.52
570.578	0.52
570.919	0.52
571.26	0.52
571.601	0.52
571.942	0.52
572.283	0.52
572.624	0.52
572.965	0.52
573.306	0.52
573.646	0.52
573.987	0.52
574.328	0.52
574.668	0.53
575.009	0.52
575.349	0.53
575.69	0.52
576.03	0.52
576.37	0.52
576.711	0.52
577.051	0.52
577.391	0.52
577.731	0.53
578.072	0.53
578.412	0.53
578.752	0.53
579.092	0.52
579.431	0.52
579.771	0.5
580.111	0.49
580.451	0.5
580.791	0.52
581.13	0.53
581.47	0.53
581.81	0.53
582.149	0.53
582.489	0.53
582.828	0.53
583.167	0.51
583.507	0.47
583.846	0.45
584.185	0.48
584.525	0.51
584.864	0.53
585.203	0.54
585.542	0.55
585.881	0.55
586.22	0.56
586.559	0.55
586.898	0.54
587.236	0.54
587.575	0.53
587.914	0.54
588.252	0.55
588.591	0.56
588.93	0.56
589.268	0.56
589.607	0.57
589.945	0.57
590.283	0.57
590.622	0.57
590.96	0.58
591.298	0.59
591.636	0.59
591.974	0.59
592.313	0.59
592.651	0.59
592.989	0.59
593.326	0.6
593.664	0.6
594.002	0.6
594.34	0.6
594.678	0.6
595.015	0.6
595.353	0.59
595.691	0.6
596.028	0.61
596.366	0.61
596.703	0.62
597.04	0.63
597.378	0.62
597.715	0.63
598.052	0.63
598.389	0.64
598.726	0.64
599.064	0.64
599.401	0.64
599.738	0.64
600.074	0.64
600.411	0.64
600.748	0.64
601.085	0.64
601.422	0.63
601.758	0.63
602.095	0.64
602.432	0.63
602.768	0.64
603.105	0.64
603.441	0.64
603.777	0.65
604.114	0.65
604.45	0.65
604.786	0.65
605.122	0.65
605.459	0.65
605.795	0.65
606.131	0.65
606.467	0.65
606.803	0.65
607.139	0.65
607.474	0.65
607.81	0.64
608.146	0.64
608.482	0.64
608.817	0.64
609.153	0.64
609.488	0.63
609.824	0.64
610.159	0.63
610.495	0.63
610.83	0.63
611.165	0.63
611.5	0.63
611.836	0.63
612.171	0.63
612.506	0.63
612.841	0.63
613.176	0.62
613.511	0.62
613.845	0.62
614.18	0.62
614.515	0.62
614.85	0.61
615.184	0.61
615.519	0.61
615.854	0.61
616.188	0.61
616.523	0.6
616.857	0.6
617.191	0.6
617.526	0.59
617.86	0.6
618.194	0.6
618.528	0.6
618.862	0.6
619.196	0.59
619.53	0.6
619.864	0.59
620.198	0.59
620.532	0.59
620.866	0.59
621.2	0.59
621.533	0.59
621.867	0.59
622.201	0.58
622.534	0.58
622.868	0.58
623.201	0.57
623.534	0.57
623.868	0.57
624.201	0.57
624.534	0.56
624.868	0.57
625.201	0.56
625.534	0.56
625.867	0.56
626.2	0.56
626.533	0.55
626.865	0.55
627.198	0.55
627.531	0.55
627.864	0.54
628.196	0.54
628.529	0.54
628.862	0.53
629.194	0.53
629.527	0.53
629.859	0.53
630.191	0.53
630.524	0.53
630.856	0.52
631.188	0.52
631.52	0.51
631.852	0.5
632.184	0.5
632.516	0.5
632.848	0.49
633.18	0.49
633.512	0.49
633.844	0.49
634.175	0.48
634.507	0.48
634.839	0.47
635.17	0.47
635.502	0.47
635.833	0.47
636.165	0.46
636.496	0.45
636.827	0.45
637.159	0.45
637.49	0.45
637.821	0.44
638.152	0.44
638.483	0.44
638.814	0.44
639.145	0.43
639.476	0.43
639.807	0.43
640.137	0.42
640.468	0.42
640.799	0.42
641.129	0.41
641.46	0.41
641.791	0.4
642.121	0.4
642.451	0.4
642.782	0.4
643.112	0.39
643.442	0.39
643.773	0.39
644.103	0.39
644.433	0.38
644.763	0.38
645.093	0.38
645.423	0.38
645.753	0.38
646.082	0.38
646.412	0.37
646.742	0.37
647.072	0.37
647.401	0.37
647.731	0.37
648.06	0.37
648.39	0.36
648.719	0.36
649.048	0.36
649.378	0.36
649.707	0.36
650.036	0.35
650.365	0.35
650.694	0.35
651.023	0.35
651.352	0.34
651.681	0.34
652.01	0.35
652.339	0.35
652.668	0.35
652.996	0.35
653.325	0.35
653.654	0.35
653.982	0.34
654.311	0.35
654.639	0.34
654.967	0.34
655.296	0.34
655.624	0.34
655.952	0.34
656.28	0.34
656.609	0.34
656.937	0.35
657.265	0.35
657.593	0.26
657.92	0.13
658.248	0.08
658.576	0.09
658.904	0.18
659.231	0.28
659.559	0.32
659.887	0.33
660.214	0.34
660.542	0.34
660.869	0.33
661.196	0.34
661.524	0.34
661.851	0.33
662.178	0.34
662.505	0.34
662.832	0.34
663.159	0.34
663.486	0.34
663.813	0.34
664.14	0.33
664.467	0.33
664.794	0.33
665.12	0.33
665.447	0.33
665.774	0.33
666.1	0.33
666.427	0.33
666.753	0.32
667.079	0.32
667.406	0.32
667.732	0.32
668.058	0.32
668.384	0.32
668.71	0.32
669.036	0.31
669.362	0.32
669.688	0.32
670.014	0.31
670.34	0.31
670.666	0.31
670.991	0.31
671.317	0.31
671.643	0.31
671.968	0.3
672.294	0.3
672.619	0.3
672.945	0.3
673.27	0.3
673.595	0.3
673.92	0.3
674.246	0.29
674.571	0.29
674.896	0.29
675.221	0.29
675.546	0.29
675.87	0.29
676.195	0.28
676.52	0.28
676.845	0.28
677.169	0.28
677.494	0.27
677.819	0.27
678.143	0.27
678.468	0.27
678.792	0.26
679.116	0.26
679.44	0.26
679.765	0.26
680.089	0.26
680.413	0.25
680.737	0.25
681.061	0.25
681.385	0.25
681.709	0.25
682.033	0.24
682.356	0.24
682.68	0.24
683.004	0.24
683.327	0.24
683.651	0.23
683.974	0.23
684.298	0.23
684.621	0.22
684.944	0.22
685.268	0.22
685.591	0.22
685.914	0.22
686.237	0.21
686.56	0.21
686.883	0.21
687.206	0.2
687.529	0.2
687.852	0.2
688.175	0.2
688.497	0.2
688.82	0.2
689.142	0.2
689.465	0.19
689.787	0.19
690.11	0.19
690.432	0.18
690.755	0.18
691.077	0.18
691.399	0.17
691.721	0.17
692.043	0.17
692.365	0.17
692.687	0.17
693.009	0.17
693.331	0.17
693.653	0.16
693.974	0.16
694.296	0.16
694.618	0.16
694.939	0.16
695.261	0.16
695.582	0.15
695.904	0.15
696.225	0.15
696.546	0.15
696.868	0.15
697.189	0.15
697.51	0.14
697.831	0.14
698.152	0.14
698.473	0.14
698.794	0.14
699.114	0.13
699.435	0.13
699.756	0.13
700.077	0.13
700.397	0.13
700.718	0.13
701.038	0.13
701.359	0.12
701.679	0.12
701.999	0.12
702.32	0.12
702.64	0.12
702.96	0.12
703.28	0.12
703.6	0.12
703.92	0.12
704.24	0.12
704.56	0.12
704.879	0.12
705.199	0.12
705.519	0.12
705.838	0.12
706.158	0.12
706.478	0.11
706.797	0.11
707.116	0.11
707.436	0.11
707.755	0.11
708.074	0.11
708.393	0.11
708.712	0.11
709.031	0.1
709.35	0.1
709.669	0.1
709.988	0.1
710.307	0.1
710.626	0.1
710.944	0.1
711.263	0.1
711.582	0.1
711.9	0.11
712.219	0.11
712.537	0.11
712.855	0.11
713.174	0.11
713.492	0.1
713.81	0.11
714.128	0.11
714.446	0.11
714.764	0.1
715.082	0.1
715.4	0.1
715.718	0.1
716.035	0.1
716.353	0.1
716.671	0.1
716.988	0.1
717.306	0.1
717.623	0.1
717.941	0.1
718.258	0.11
718.575	0.11
718.893	0.11
719.21	0.11
719.527	0.11
719.844	0.11
720.161	0.11
720.478	0.11
720.795	0.11
721.112	0.11
721.428	0.11
721.745	0.11
722.062	0.11
722.378	0.11
722.695	0.11
723.011	0.11
723.328	0.11
723.644	0.11
723.96	0.11
724.276	0.11
724.593	0.11
724.909	0.11
725.225	0.11
725.541	0.11
725.857	0.11
726.173	0.11
726.488	0.11
726.804	0.11
727.12	0.11
727.435	0.11
727.751	0.11
728.067	0.12
728.382	0.12
728.697	0.12
729.013	0.12
729.328	0.12
729.643	0.12
729.958	0.12
730.273	0.12
730.588	0.12
730.903	0.12
731.218	0.12
731.533	0.12
731.848	0.12
732.163	0.12
732.477	0.12
732.792	0.12
733.107	0.11
733.421	0.12
733.736	0.12
734.05	0.12
734.364	0.12
734.678	0.12
734.993	0.12
735.307	0.12
735.621	0.12
735.935	0.12
736.249	0.12
736.563	0.12
736.877	0.12
737.19	0.12
737.504	0.12
737.818	0.12
738.131	0.12
738.445	0.12
738.758	0.12
739.072	0.12
739.385	0.12
739.698	0.12
740.012	0.11
740.325	0.11
740.638	0.11
740.951	0.11
741.264	0.11
741.577	0.11
741.89	0.11
742.203	0.11
742.515	0.11
742.828	0.11
743.141	0.11
743.453	0.11
743.766	0.11
744.078	0.11
744.391	0.1
744.703	0.1
745.015	0.1
745.327	0.1
745.639	0.1
745.952	0.1
746.264	0.1
746.575	0.1
746.887	0.1
747.199	0.1
747.511	0.1
747.823	0.09
748.134	0.09
748.446	0.09
748.757	0.09
749.069	0.09
749.38	0.09
749.692	0.09
750.003	0.09
750.314	0.08
750.625	0.08
750.936	0.08
751.248	0.08
751.559	0.08
751.869	0.08
752.18	0.08
752.491	0.08
752.802	0.08
753.112	0.07
753.423	0.07
753.734	0.07
754.044	0.07
754.355	0.07
754.665	0.06
754.975	0.06
755.285	0.06
755.596	0.06
755.906	0.06
756.216	0.06
756.526	0.06
756.836	0.06
757.146	0.06
757.455	0.06
757.765	0.06
758.075	0.06
758.385	0.05
758.694	0.05
759.004	0.05
759.313	0.05
759.622	0.05
759.932	0.05
760.241	0.05
760.55	0.05
760.859	0.05
761.168	0.05
761.477	0.05
761.786	0.05
762.095	0.05
762.404	0.05
762.713	0.05
763.021	0.05
763.33	0.05
763.639	0.04
763.947	0.04
764.256	0.05
764.564	0.05
764.872	0.05
765.181	0.05
765.489	0.05
765.797	0.05
766.105	0.05
766.413	0.05
766.721	0.05
767.029	0.05
767.337	0.04
767.644	0.04
767.952	0.04
768.26	0.04
768.567	0.04
768.875	0.04
769.182	0.04
769.49	0.04
769.797	0.04
770.104	0.04
770.411	0.04
770.718	0.04
771.026	0.04
771.333	0.04
771.639	0.04
771.946	0.04
772.253	0.04
772.56	0.04
772.867	0.04
773.173	0.04
773.48	0.03
773.786	0.03
774.093	0.03
774.399	0.04
774.705	0.04
775.012	0.03
775.318	0.03
775.624	0.03
775.93	0.04
776.236	0.04
776.542	0.03
776.848	0.03
777.154	0.03
777.459	0.03
777.765	0.03
778.071	0.03
778.376	0.03
778.682	0.03
778.987	0.03
779.292	0.03
779.598	0.03
779.903	0.03
780.208	0.02
780.513	0.03
780.818	0.02
781.123	0.03
781.428	0.03
781.733	0.03
782.038	0.03
782.343	0.03
782.647	0.03
782.952	0.03
783.256	0.03
783.561	0.03
783.865	0.03
784.17	0.03
784.474	0.03
784.778	0.03
785.082	0.03
785.386	0.03
785.69	0.03
785.994	0.02
786.298	0.02
786.602	0.03
786.906	0.02
787.209	0.03
787.513	0.02
787.817	0.03
788.12	0.03
788.424	0.03
788.727	0.02
789.03	0.03
789.333	0.03
789.637	0.03
789.94	0.03
790.243	0.03
790.546	0.03
790.849	0.03
791.152	0.04
791.454	0.03
791.757	0.03
792.06	0.03
792.362	0.03
792.665	0.03
792.967	0.03
793.27	0.03
793.572	0.03
793.874	0.03
794.177	0.03
794.479	0.03
794.781	0.03
795.083	0.03
795.385	0.03
795.687	0.03
795.989	0.03
796.29	0.03
796.592	0.03
796.894	0.03
797.195	0.03
797.497	0.03
797.798	0.03
798.1	0.03
798.401	0.03
798.702	0.03
799.003	0.03
799.304	0.03
799.605	0.03
799.906	0.03
800.207	0.03
800.508	0.03
800.809	0.03
801.11	0.03
801.41	0.04
801.711	0.04
802.011	0.03
802.312	0.04
802.612	0.04
802.913	0.04
803.213	0.03
803.513	0.03
803.813	0.03
804.113	0.03
804.413	0.03
804.713	0.03
805.013	0.03
805.313	0.03
805.613	0.03
805.912	0.03
806.212	0.03
806.511	0.02
806.811	0.02
807.11	0.02
807.41	0.02
807.709	0.01
808.008	0.02
808.307	0.02
808.606	0.02
808.905	0.02
809.204	0.02
809.503	0.03
809.802	0.03
810.101	0.03
810.399	0.03
810.698	0.02
810.997	0.02
811.295	0.02
811.593	0.02
811.892	0.03
812.19	0.02
812.488	0.03
812.786	0.03
813.084	0.03
813.383	0.03
813.68	0.03
813.978	0.03
814.276	0.03
814.574	0.03
814.872	0.03
815.169	0.03
815.467	0.03
815.764	0.03
816.062	0.03
816.359	0.03
816.656	0.03
816.954	0.02
817.251	0.03
817.548	0.02
817.845	0.02
818.142	0.03
818.439	0.02
818.735	0.03
819.032	0.02
819.329	0.02
819.626	0.02
819.922	0.02
820.219	0.02
820.515	0.02
820.811	0.02
821.108	0.02
821.404	0.03
821.7	0.02
821.996	0.02
822.292	0.03
822.588	0.02
822.884	0.03
823.18	0.04
823.475	0.03
823.771	0.03
824.067	0.03
824.362	0.04
824.658	0.03
824.953	0.04
825.249	0.04
825.544	0.03
825.839	0.03
826.134	0.03
826.429	0.03
826.724	0.02
827.019	0.04
827.314	0.03
827.609	0.03
827.904	0.04
828.198	0.04
828.493	0.03
828.787	0.03
829.082	0.03
829.376	0.03
829.671	0.03
829.965	0.03
830.259	0.03
830.553	0.04
830.847	0.03
831.141	0.03
831.435	0.03
831.729	0.03
832.023	0.02
832.317	0.03
832.61	0.03
832.904	0.03
833.197	0.03
833.491	0.04
833.784	0.05
834.077	0.05
834.371	0.04
834.664	0.05
834.957	0.04
835.25	0.04
835.543	0.04
835.836	0.04
836.129	0.03
836.421	0.04
836.714	0.04
837.007	0.03
837.299	0.04
837.592	0.04
837.884	0.03
838.177	0.04
838.469	0.04
838.761	0.03
839.053	0.04
839.345	0.03
839.637	0.02
839.929	0.02
840.221	0.02
840.513	0.02
840.805	0.02
841.096	0.02
841.388	0.04
841.68	0.04
841.971	0.03
842.262	0.02
842.554	0.03
842.845	0.02
843.136	0.02
843.427	0.03
843.718	0.03
844.009	0.02
844.3	0.04
844.591	0.03
844.882	0.03
845.173	0.03
845.463	0.02
845.754	0.02
846.044	0.03
846.335	0.03
846.625	0.04
846.915	0.03
847.206	0.03
847.496	0.03
847.786	0.04
848.076	0.04
848.366	0.04
848.656	0.04
848.945	0.03
849.235	0.04
849.525	0.04
849.814	0.02
850.104	0.03
850.393	0.03
850.683	0.03
850.972	0.03
851.261	0.04
851.551	0.03
851.84	0.03
852.129	0.02
852.418	0.02
852.707	0.02
852.995	0.02
853.284	0.04
853.573	0.01
853.862	0.01
854.15	0.03
854.439	0.03
854.727	0.03
855.015	0.02
855.304	0.02
855.592	0.02
855.88	0.03
856.168	0.02
856.456	0.01
856.744	0.04
857.032	0.01
857.32	0.02
857.607	0.02
857.895	0.01
858.183	0.03
858.47	0.03
858.757	0.03
859.045	0.03
859.332	0.04
859.619	0.02
859.907	0.04
860.194	0.04
860.481	0.02
860.768	0.03
861.054	0.03
861.341	0.03
861.628	0.05
861.915	0.04
862.201	0.05
862.488	0.04
862.774	0.02
863.061	0.02
863.347	0.03
863.633	0.03
863.919	0.04
864.205	0.02
864.491	0.04
864.777	0.03
865.063	0.02
865.349	0
865.635	0.02
865.92	0.02
866.206	0.04
866.492	0.02
866.777	0.03
867.062	0.03
867.348	0.03
867.633	0.05
867.918	0.05
868.203	0.06
868.488	0.04
868.773	0.04
869.058	-0
869.343	0.01
869.628	-0.04
869.912	-0.04
870.197	0.01
870.482	-0.01
870.766	-0.01
871.05	0.02
871.335	-0.02
871.619	0.03
871.903	0.03
872.187	-0
872.471	0.03
872.755	0.03
873.039	-0
873.323	0.04
873.607	0
873.89	0.01
874.174	-0.03
874.458	-0.06
874.741	-0.04
875.024	-0.01
875.308	-0
875.591	0.04
875.874	0.04
876.157	-0.02
876.44	-0.05
876.723	0.04
877.006	-0.05
877.289	-0.02
877.572	0.15
877.854	-0.03
878.137	0.03
878.42	-0.01
878.702	0.04
878.984	0.01
879.267	-0.04
879.549	0.05
879.831	-0.05
880.113	-0.03
880.395	-0.01
880.677	-0.02
880.959	-0.13
