Data from Rubpy_EV_1200_EDTA_Buffered_Absorbance_14-19-42-586.txt Node
Date: Tue Jun 30 14:19:42 BST 2026
User: fpm-admin
Spectrometer: OFX00224
Trigger mode: 0
Integration Time (sec): 7.000000E-2
Scans to average: 3
Nonlinearity correction enabled: false
Boxcar width: 0
Storing dark spectrum: false
XAxis mode: Wavelengths
Number of Pixels in Spectrum: 2136
>>>>>Begin Spectral Data<<<<<
154.91	-0.14
155.289	0.15
155.669	-0.65
156.048	-0.26
156.428	0.26
156.807	-0
157.186	-0.2
157.566	0.3
157.945	0.8
158.325	-0
158.704	-0.31
159.083	-0.24
159.462	-0
159.842	-0.08
160.221	0.41
160.6	-0.14
160.979	0.27
161.359	-0.19
161.738	-0
162.117	-0
162.496	0.34
162.875	-0.28
163.254	0.19
163.633	-0
164.012	0.28
164.391	0.1
164.77	-1.28
165.149	-0.17
165.528	-0
165.907	-0.43
166.286	-0
166.665	-0.34
167.044	-0.56
167.423	0.03
167.802	-0
168.181	-0
168.559	0.13
168.938	-0
169.317	-0
169.696	-1.62
170.074	-0
170.453	-0
170.832	-0.3
171.21	-0.33
171.589	-0
171.968	-0
172.346	0.56
172.725	-0.35
173.103	-0
173.482	0.75
173.861	-0
174.239	1.1
174.617	-0.12
174.996	-1.11
175.374	-0.02
175.753	-0.57
176.131	-0
176.51	-0.39
176.888	-0
177.266	-0
177.645	0.01
178.023	1.77
178.401	-0.38
178.779	0.22
179.158	-0
179.536	0.22
179.914	-0.08
180.292	-0
180.67	0.32
181.048	-0.04
181.427	0.6
181.805	-0
182.183	-0
182.561	-1.32
182.939	-0
183.317	0.48
183.695	-0
184.073	-0
184.451	-0.39
184.829	0.26
185.206	0.14
185.584	0.27
185.962	0.37
186.34	0.13
186.718	0.63
187.096	0.85
187.473	-0
187.851	-0
188.229	-0
188.607	0.13
188.984	0.3
189.362	0.3
189.74	0.18
190.117	0.23
190.495	-0.02
190.872	0.18
191.25	0.14
191.627	0.09
192.005	0.11
192.382	0.25
192.76	-0.03
193.137	0.38
193.515	0.21
193.892	0.2
194.269	0.12
194.647	0.18
195.024	0.3
195.401	0.13
195.779	0.12
196.156	0.18
196.533	0.19
196.91	0.14
197.288	0.08
197.665	0.21
198.042	0.28
198.419	0.18
198.796	0.2
199.173	0.19
199.55	0.28
199.927	0.11
200.304	0.1
200.681	0.21
201.058	0.17
201.435	0.08
201.812	0.18
202.189	0.21
202.566	0.26
202.943	0.14
203.32	0.2
203.697	0.17
204.073	0.35
204.45	0.1
204.827	0.19
205.204	0.22
205.58	0.14
205.957	0.21
206.334	0.11
206.71	0.15
207.087	0.15
207.464	0.15
207.84	0.18
208.217	0.21
208.593	0.17
208.97	0.12
209.346	0.24
209.723	0.16
210.099	0.15
210.476	0.21
210.852	0.29
211.228	0.26
211.605	0.21
211.981	0.17
212.357	0.25
212.733	0.18
213.11	0.19
213.486	0.1
213.862	0.11
214.238	0.22
214.614	0.1
214.991	0.21
215.367	0.33
215.743	0.26
216.119	0.23
216.495	0.28
216.871	0.17
217.247	0.16
217.623	0.18
217.999	0.18
218.375	0.28
218.751	0.12
219.127	0.22
219.502	0.25
219.878	0.25
220.254	0.18
220.63	0.24
221.006	0.23
221.381	0.17
221.757	0.19
222.133	0.25
222.508	0.33
222.884	0.26
223.26	0.19
223.635	0.2
224.011	0.23
224.386	0.18
224.762	0.21
225.137	0.18
225.513	0.2
225.888	0.2
226.264	0.26
226.639	0.29
227.014	0.23
227.39	0.2
227.765	0.28
228.14	0.18
228.516	0.18
228.891	0.21
229.266	0.2
229.641	0.16
230.017	0.33
230.392	0.17
230.767	0.22
231.142	0.18
231.517	0.27
231.892	0.24
232.267	0.16
232.642	0.22
233.017	0.15
233.392	0.26
233.767	0.36
234.142	0.2
234.517	0.15
234.892	0.28
235.267	0.15
235.641	0.17
236.016	0.17
236.391	0.28
236.766	0.16
237.14	0.16
237.515	0.3
237.89	0.22
238.264	0.22
238.639	0.25
239.014	0.28
239.388	0.2
239.763	0.23
240.137	0.12
240.512	0.12
240.886	0.15
241.261	0.09
241.635	0.16
242.009	0.24
242.384	0.1
242.758	0.22
243.132	0.14
243.507	0.18
243.881	0.22
244.255	0.2
244.629	0.23
245.004	0.19
245.378	0.21
245.752	0.16
246.126	0.33
246.5	0.17
246.874	0.25
247.248	0.08
247.622	0.25
247.996	0.16
248.37	0.22
248.744	0.13
249.118	0.15
249.492	0.2
249.866	0.18
250.24	0.24
250.613	0.17
250.987	0.22
251.361	0.22
251.735	0.12
252.108	0.21
252.482	0.33
252.856	0.17
253.229	0.21
253.603	0.17
253.977	0.23
254.35	0.24
254.724	0.25
255.097	0.3
255.471	0.3
255.844	0.22
256.218	0.19
256.591	0.24
256.964	0.2
257.338	0.17
257.711	0.22
258.084	0.28
258.458	0.21
258.831	0.18
259.204	0.19
259.577	0.19
259.95	0.12
260.323	0.25
260.697	0.26
261.07	0.15
261.443	0.19
261.816	0.17
262.189	0.26
262.562	0.18
262.935	0.26
263.308	0.3
263.68	0.1
264.053	0.35
264.426	0.3
264.799	0.22
265.172	0.26
265.545	0.21
265.917	0.27
266.29	0.24
266.663	0.26
267.035	0.29
267.408	0.21
267.781	0.19
268.153	0.25
268.526	0.25
268.898	0.21
269.271	0.16
269.643	0.25
270.016	0.17
270.388	0.26
270.76	0.2
271.133	0.31
271.505	0.24
271.877	0.23
272.25	0.23
272.622	0.23
272.994	0.24
273.366	0.25
273.739	0.24
274.111	0.18
274.483	0.22
274.855	0.13
275.227	0.2
275.599	0.3
275.971	0.21
276.343	0.27
276.715	0.28
277.087	0.23
277.459	0.19
277.831	0.21
278.203	0.22
278.574	0.19
278.946	0.29
279.318	0.21
279.69	0.25
280.061	0.23
280.433	0.27
280.805	0.18
281.176	0.33
281.548	0.18
281.92	0.15
282.291	0.28
282.663	0.19
283.034	0.26
283.406	0.18
283.777	0.23
284.148	0.26
284.52	0.24
284.891	0.2
285.262	0.2
285.634	0.26
286.005	0.29
286.376	0.25
286.747	0.27
287.119	0.22
287.49	0.28
287.861	0.19
288.232	0.21
288.603	0.25
288.974	0.17
289.345	0.27
289.716	0.18
290.087	0.22
290.458	0.18
290.829	0.21
291.2	0.25
291.571	0.21
291.941	0.22
292.312	0.18
292.683	0.22
293.054	0.19
293.424	0.25
293.795	0.29
294.166	0.22
294.536	0.21
294.907	0.22
295.277	0.23
295.648	0.19
296.018	0.25
296.389	0.26
296.759	0.21
297.13	0.22
297.5	0.15
297.871	0.24
298.241	0.24
298.611	0.27
298.981	0.17
299.352	0.22
299.722	0.16
300.092	0.17
300.462	0.2
300.832	0.19
301.202	0.17
301.573	0.19
301.943	0.18
302.313	0.18
302.683	0.21
303.053	0.17
303.422	0.16
303.792	0.19
304.162	0.16
304.532	0.2
304.902	0.19
305.272	0.19
305.641	0.18
306.011	0.19
306.381	0.19
306.75	0.19
307.12	0.21
307.49	0.21
307.859	0.21
308.229	0.21
308.598	0.21
308.968	0.22
309.337	0.22
309.707	0.22
310.076	0.22
310.445	0.23
310.815	0.23
311.184	0.23
311.553	0.23
311.923	0.23
312.292	0.23
312.661	0.24
313.03	0.23
313.399	0.24
313.768	0.24
314.137	0.24
314.506	0.24
314.875	0.24
315.244	0.24
315.613	0.23
315.982	0.23
316.351	0.23
316.72	0.24
317.089	0.24
317.458	0.23
317.826	0.23
318.195	0.23
318.564	0.23
318.933	0.22
319.301	0.22
319.67	0.22
320.038	0.22
320.407	0.22
320.775	0.22
321.144	0.21
321.512	0.21
321.881	0.21
322.249	0.21
322.618	0.21
322.986	0.21
323.354	0.2
323.723	0.2
324.091	0.2
324.459	0.2
324.827	0.2
325.195	0.2
325.564	0.19
325.932	0.2
326.3	0.2
326.668	0.2
327.036	0.2
327.404	0.2
327.772	0.19
328.14	0.19
328.508	0.2
328.875	0.19
329.243	0.19
329.611	0.19
329.979	0.2
330.346	0.2
330.714	0.2
331.082	0.21
331.449	0.2
331.817	0.21
332.185	0.2
332.552	0.21
332.92	0.21
333.287	0.21
333.655	0.21
334.022	0.21
334.389	0.21
334.757	0.22
335.124	0.22
335.491	0.23
335.859	0.23
336.226	0.22
336.593	0.23
336.96	0.23
337.327	0.24
337.695	0.24
338.062	0.24
338.429	0.24
338.796	0.25
339.163	0.25
339.53	0.26
339.897	0.26
340.263	0.26
340.63	0.27
340.997	0.28
341.364	0.28
341.731	0.28
342.097	0.28
342.464	0.29
342.831	0.29
343.197	0.3
343.564	0.31
343.931	0.31
344.297	0.32
344.664	0.32
345.03	0.32
345.396	0.33
345.763	0.34
346.129	0.34
346.496	0.34
346.862	0.35
347.228	0.36
347.594	0.36
347.961	0.36
348.327	0.37
348.693	0.37
349.059	0.38
349.425	0.39
349.791	0.39
350.157	0.4
350.523	0.41
350.889	0.41
351.255	0.42
351.621	0.42
351.987	0.44
352.353	0.45
352.719	0.45
353.084	0.46
353.45	0.47
353.816	0.48
354.181	0.49
354.547	0.5
354.913	0.51
355.278	0.52
355.644	0.53
356.009	0.54
356.375	0.55
356.74	0.56
357.106	0.57
357.471	0.58
357.836	0.6
358.202	0.61
358.567	0.62
358.932	0.63
359.297	0.65
359.663	0.65
360.028	0.66
360.393	0.68
360.758	0.68
361.123	0.69
361.488	0.7
361.853	0.7
362.218	0.71
362.583	0.72
362.948	0.72
363.312	0.74
363.677	0.75
364.042	0.76
364.407	0.77
364.772	0.78
365.136	0.8
365.501	0.81
365.865	0.82
366.23	0.84
366.595	0.86
366.959	0.88
367.324	0.89
367.688	0.91
368.052	0.92
368.417	0.93
368.781	0.95
369.145	0.96
369.51	0.96
369.874	0.96
370.238	0.96
370.602	0.96
370.967	0.98
371.331	0.96
371.695	0.95
372.059	0.94
372.423	0.95
372.787	0.94
373.151	0.93
373.515	0.94
373.878	0.93
374.242	0.93
374.606	0.93
374.97	0.93
375.334	0.94
375.697	0.94
376.061	0.94
376.425	0.95
376.788	0.95
377.152	0.96
377.515	0.97
377.879	0.98
378.242	0.99
378.606	1
378.969	1.02
379.333	1.02
379.696	1.03
380.059	1.04
380.422	1.06
380.786	1.08
381.149	1.1
381.512	1.12
381.875	1.14
382.238	1.17
382.601	1.2
382.964	1.22
383.327	1.25
383.69	1.27
384.053	1.31
384.416	1.33
384.779	1.37
385.142	1.39
385.504	1.41
385.867	1.42
386.23	1.44
386.593	1.46
386.955	1.46
387.318	1.46
387.68	1.47
388.043	1.42
388.405	1.43
388.768	1.44
389.13	1.42
389.493	1.4
389.855	1.38
390.217	1.38
390.58	1.39
390.942	1.42
391.304	1.4
391.666	1.42
392.028	1.43
392.391	1.46
392.753	1.51
393.115	1.55
393.477	1.57
393.839	1.62
394.201	1.69
394.563	1.72
394.924	1.77
395.286	1.82
395.648	1.82
396.01	1.88
396.371	1.89
396.733	1.95
397.095	1.94
397.456	1.92
397.818	1.91
398.18	1.88
398.541	1.92
398.903	1.91
399.264	1.83
399.625	1.8
399.987	1.77
400.348	1.72
400.709	1.66
401.071	1.6
401.432	1.51
401.793	1.42
402.154	1.35
402.515	1.26
402.876	1.19
403.238	1.11
403.599	1.01
403.96	0.96
404.32	0.89
404.681	0.84
405.042	0.77
405.403	0.72
405.764	0.66
406.125	0.63
406.485	0.59
406.846	0.55
407.207	0.52
407.567	0.49
407.928	0.46
408.288	0.43
408.649	0.41
409.009	0.39
409.37	0.36
409.73	0.35
410.091	0.33
410.451	0.31
410.811	0.3
411.171	0.29
411.532	0.28
411.892	0.27
412.252	0.25
412.612	0.25
412.972	0.23
413.332	0.23
413.692	0.22
414.052	0.21
414.412	0.2
414.772	0.19
415.132	0.19
415.492	0.18
415.851	0.18
416.211	0.18
416.571	0.17
416.931	0.17
417.29	0.16
417.65	0.16
418.009	0.15
418.369	0.15
418.728	0.15
419.088	0.16
419.447	0.15
419.807	0.14
420.166	0.13
420.525	0.14
420.884	0.13
421.244	0.13
421.603	0.13
421.962	0.13
422.321	0.12
422.68	0.13
423.039	0.12
423.398	0.12
423.757	0.12
424.116	0.11
424.475	0.11
424.834	0.11
425.193	0.11
425.551	0.11
425.91	0.11
426.269	0.1
426.628	0.11
426.986	0.11
427.345	0.11
427.703	0.1
428.062	0.1
428.42	0.1
428.779	0.1
429.137	0.1
429.496	0.1
429.854	0.09
430.212	0.09
430.57	0.1
430.929	0.1
431.287	0.1
431.645	0.09
432.003	0.08
432.361	0.09
432.719	0.08
433.077	0.09
433.435	0.09
433.793	0.09
434.151	0.09
434.509	0.09
434.866	0.08
435.224	0.08
435.582	0.08
435.94	0.08
436.297	0.08
436.655	0.09
437.012	0.08
437.37	0.08
437.727	0.08
438.085	0.08
438.442	0.07
438.8	0.08
439.157	0.08
439.514	0.07
439.872	0.07
440.229	0.08
440.586	0.07
440.943	0.07
441.3	0.07
441.657	0.06
442.014	0.07
442.371	0.07
442.728	0.06
443.085	0.06
443.442	0.06
443.799	0.06
444.156	0.07
444.513	0.06
444.869	0.07
445.226	0.07
445.583	0.07
445.939	0.06
446.296	0.06
446.652	0.06
447.009	0.06
447.365	0.06
447.722	0.06
448.078	0.06
448.434	0.06
448.791	0.06
449.147	0.05
449.503	0.06
449.859	0.06
450.215	0.06
450.571	0.06
450.928	0.05
451.284	0.06
451.64	0.05
451.995	0.05
452.351	0.05
452.707	0.04
453.063	0.05
453.419	0.05
453.775	0.05
454.13	0.05
454.486	0.04
454.842	0.04
455.197	0.04
455.553	0.04
455.908	0.04
456.264	0.04
456.619	0.04
456.975	0.03
457.33	0.03
457.685	0.03
458.04	0.02
458.396	0.02
458.751	0.02
459.106	0.03
459.461	0.02
459.816	0.02
460.171	0.03
460.526	0.02
460.881	0.01
461.236	0.02
461.591	0.01
461.946	0.01
462.301	0.01
462.655	0.01
463.01	0
463.365	0
463.719	0
464.074	-0
464.428	-0.01
464.783	-0.01
465.137	-0.01
465.492	-0.01
465.846	-0.01
466.201	-0.01
466.555	-0
466.909	-0.01
467.263	-0.01
467.618	-0.01
467.972	0
468.326	-0.01
468.68	-0.01
469.034	-0.01
469.388	-0.01
469.742	-0.01
470.096	-0.02
470.45	-0.01
470.804	-0.01
471.157	-0.01
471.511	-0.01
471.865	-0.01
472.218	-0.01
472.572	0
472.926	-0
473.279	-0
473.633	0
473.986	0
474.34	0.01
474.693	0.01
475.046	0.02
475.4	0.02
475.753	0.03
476.106	0.03
476.459	0.03
476.812	0.04
477.165	0.04
477.519	0.03
477.872	0.04
478.224	0.05
478.577	0.05
478.93	0.05
479.283	0.05
479.636	0.06
479.989	0.06
480.341	0.06
480.694	0.06
481.047	0.07
481.399	0.07
481.752	0.07
482.104	0.07
482.457	0.08
482.809	0.08
483.162	0.08
483.514	0.08
483.866	0.08
484.219	0.09
484.571	0.09
484.923	0.09
485.275	0.09
485.627	0.1
485.979	0.09
486.331	0.09
486.683	0.09
487.035	0.1
487.387	0.1
487.739	0.1
488.091	0.1
488.443	0.1
488.794	0.1
489.146	0.11
489.498	0.11
489.849	0.11
490.201	0.11
490.552	0.11
490.904	0.12
491.255	0.11
491.607	0.12
491.958	0.12
492.309	0.12
492.661	0.12
493.012	0.12
493.363	0.12
493.714	0.13
494.065	0.13
494.416	0.13
494.767	0.13
495.118	0.13
495.469	0.14
495.82	0.14
496.171	0.14
496.522	0.14
496.872	0.14
497.223	0.14
497.574	0.14
497.924	0.15
498.275	0.15
498.626	0.15
498.976	0.16
499.327	0.15
499.677	0.16
500.027	0.16
500.378	0.16
500.728	0.16
501.078	0.16
501.428	0.16
501.779	0.17
502.129	0.17
502.479	0.18
502.829	0.18
503.179	0.18
503.529	0.18
503.879	0.18
504.229	0.18
504.578	0.19
504.928	0.18
505.278	0.19
505.628	0.19
505.977	0.2
506.327	0.2
506.676	0.2
507.026	0.2
507.375	0.2
507.725	0.2
508.074	0.2
508.424	0.2
508.773	0.21
509.122	0.21
509.471	0.21
509.82	0.21
510.17	0.21
510.519	0.22
510.868	0.22
511.217	0.22
511.566	0.22
511.915	0.23
512.263	0.23
512.612	0.23
512.961	0.23
513.31	0.23
513.659	0.23
514.007	0.24
514.356	0.24
514.704	0.24
515.053	0.24
515.401	0.24
515.75	0.25
516.098	0.25
516.447	0.25
516.795	0.25
517.143	0.25
517.491	0.25
517.839	0.26
518.188	0.26
518.536	0.26
518.884	0.27
519.232	0.27
519.58	0.27
519.928	0.27
520.275	0.27
520.623	0.28
520.971	0.27
521.319	0.28
521.666	0.28
522.014	0.29
522.362	0.29
522.709	0.29
523.057	0.29
523.404	0.28
523.752	0.29
524.099	0.29
524.446	0.3
524.794	0.29
525.141	0.3
525.488	0.3
525.835	0.31
526.182	0.31
526.529	0.31
526.876	0.31
527.223	0.31
527.57	0.32
527.917	0.32
528.264	0.32
528.611	0.32
528.958	0.32
529.304	0.32
529.651	0.33
529.998	0.34
530.344	0.33
530.691	0.34
531.037	0.34
531.384	0.34
531.73	0.34
532.076	0.35
532.423	0.35
532.769	0.35
533.115	0.35
533.461	0.36
533.807	0.36
534.154	0.37
534.5	0.36
534.846	0.37
535.192	0.37
535.537	0.37
535.883	0.38
536.229	0.38
536.575	0.38
536.921	0.39
537.266	0.38
537.612	0.38
537.957	0.38
538.303	0.4
538.649	0.4
538.994	0.4
539.339	0.41
539.685	0.41
540.03	0.41
540.375	0.41
540.721	0.42
541.066	0.42
541.411	0.41
541.756	0.42
542.101	0.42
542.446	0.43
542.791	0.43
543.136	0.43
543.481	0.43
543.825	0.44
544.17	0.44
544.515	0.45
544.86	0.45
545.204	0.45
545.549	0.45
545.893	0.46
546.238	0.46
546.582	0.46
546.927	0.46
547.271	0.47
547.615	0.47
547.96	0.48
548.304	0.48
548.648	0.48
548.992	0.48
549.336	0.48
549.68	0.49
550.024	0.5
550.368	0.49
550.712	0.5
551.056	0.5
551.4	0.5
551.743	0.51
552.087	0.51
552.431	0.51
552.774	0.51
553.118	0.52
553.462	0.51
553.805	0.52
554.148	0.52
554.492	0.52
554.835	0.52
555.178	0.52
555.522	0.52
555.865	0.53
556.208	0.53
556.551	0.53
556.894	0.54
557.237	0.53
557.58	0.54
557.923	0.54
558.266	0.54
558.609	0.55
558.952	0.54
559.294	0.55
559.637	0.55
559.98	0.55
560.322	0.55
560.665	0.55
561.007	0.55
561.35	0.55
561.692	0.56
562.034	0.56
562.377	0.56
562.719	0.56
563.061	0.56
563.403	0.56
563.745	0.56
564.088	0.56
564.43	0.56
564.772	0.57
565.113	0.57
565.455	0.57
565.797	0.57
566.139	0.57
566.481	0.57
566.822	0.57
567.164	0.57
567.506	0.57
567.847	0.57
568.189	0.58
568.53	0.58
568.872	0.58
569.213	0.58
569.554	0.58
569.895	0.58
570.237	0.58
570.578	0.58
570.919	0.58
571.26	0.58
571.601	0.58
571.942	0.58
572.283	0.58
572.624	0.58
572.965	0.58
573.306	0.58
573.646	0.57
573.987	0.58
574.328	0.58
574.668	0.58
575.009	0.58
575.349	0.58
575.69	0.58
576.03	0.58
576.37	0.58
576.711	0.57
577.051	0.58
577.391	0.58
577.731	0.58
578.072	0.58
578.412	0.59
578.752	0.59
579.092	0.58
579.431	0.58
579.771	0.56
580.111	0.55
580.451	0.56
580.791	0.58
581.13	0.59
581.47	0.59
581.81	0.59
582.149	0.59
582.489	0.6
582.828	0.59
583.167	0.57
583.507	0.53
583.846	0.51
584.185	0.54
584.525	0.57
584.864	0.59
585.203	0.6
585.542	0.61
585.881	0.61
586.22	0.61
586.559	0.61
586.898	0.6
587.236	0.6
587.575	0.59
587.914	0.6
588.252	0.61
588.591	0.63
588.93	0.63
589.268	0.62
589.607	0.62
589.945	0.63
590.283	0.63
590.622	0.63
590.96	0.64
591.298	0.65
591.636	0.65
591.974	0.65
592.313	0.65
592.651	0.66
592.989	0.65
593.326	0.66
593.664	0.66
594.002	0.67
594.34	0.67
594.678	0.67
595.015	0.67
595.353	0.66
595.691	0.67
596.028	0.68
596.366	0.69
596.703	0.69
597.04	0.69
597.378	0.69
597.715	0.7
598.052	0.7
598.389	0.7
598.726	0.71
599.064	0.7
599.401	0.71
599.738	0.71
600.074	0.72
600.411	0.71
600.748	0.71
601.085	0.71
601.422	0.7
601.758	0.7
602.095	0.71
602.432	0.71
602.768	0.71
603.105	0.71
603.441	0.71
603.777	0.72
604.114	0.71
604.45	0.72
604.786	0.72
605.122	0.72
605.459	0.72
605.795	0.72
606.131	0.71
606.467	0.72
606.803	0.72
607.139	0.72
607.474	0.72
607.81	0.71
608.146	0.71
608.482	0.71
608.817	0.71
609.153	0.71
609.488	0.7
609.824	0.7
610.159	0.7
610.495	0.7
610.83	0.7
611.165	0.7
611.5	0.7
611.836	0.69
612.171	0.7
612.506	0.69
612.841	0.69
613.176	0.69
613.511	0.69
613.845	0.68
614.18	0.68
614.515	0.68
614.85	0.68
615.184	0.68
615.519	0.67
615.854	0.67
616.188	0.67
616.523	0.67
616.857	0.67
617.191	0.67
617.526	0.66
617.86	0.67
618.194	0.66
618.528	0.66
618.862	0.66
619.196	0.66
619.53	0.66
619.864	0.66
620.198	0.66
620.532	0.65
620.866	0.65
621.2	0.65
621.533	0.65
621.867	0.65
622.201	0.65
622.534	0.64
622.868	0.64
623.201	0.64
623.534	0.63
623.868	0.62
624.201	0.63
624.534	0.62
624.868	0.62
625.201	0.62
625.534	0.61
625.867	0.62
626.2	0.61
626.533	0.61
626.865	0.61
627.198	0.61
627.531	0.6
627.864	0.6
628.196	0.6
628.529	0.59
628.862	0.59
629.194	0.59
629.527	0.59
629.859	0.59
630.191	0.58
630.524	0.58
630.856	0.58
631.188	0.57
631.52	0.57
631.852	0.56
632.184	0.56
632.516	0.55
632.848	0.55
633.18	0.54
633.512	0.54
633.844	0.54
634.175	0.53
634.507	0.53
634.839	0.52
635.17	0.52
635.502	0.52
635.833	0.51
636.165	0.51
636.496	0.5
636.827	0.5
637.159	0.5
637.49	0.49
637.821	0.49
638.152	0.48
638.483	0.48
638.814	0.48
639.145	0.47
639.476	0.47
639.807	0.47
640.137	0.47
640.468	0.46
640.799	0.46
641.129	0.46
641.46	0.45
641.791	0.45
642.121	0.44
642.451	0.44
642.782	0.44
643.112	0.44
643.442	0.43
643.773	0.43
644.103	0.42
644.433	0.42
644.763	0.42
645.093	0.42
645.423	0.42
645.753	0.42
646.082	0.41
646.412	0.42
646.742	0.41
647.072	0.4
647.401	0.41
647.731	0.4
648.06	0.41
648.39	0.4
648.719	0.4
649.048	0.4
649.378	0.4
649.707	0.4
650.036	0.39
650.365	0.39
650.694	0.39
651.023	0.38
651.352	0.38
651.681	0.38
652.01	0.38
652.339	0.38
652.668	0.38
652.996	0.39
653.325	0.39
653.654	0.39
653.982	0.39
654.311	0.38
654.639	0.38
654.967	0.38
655.296	0.38
655.624	0.38
655.952	0.38
656.28	0.38
656.609	0.38
656.937	0.38
657.265	0.38
657.593	0.3
657.92	0.16
658.248	0.11
658.576	0.12
658.904	0.22
659.231	0.31
659.559	0.36
659.887	0.37
660.214	0.37
660.542	0.37
660.869	0.37
661.196	0.37
661.524	0.37
661.851	0.37
662.178	0.37
662.505	0.37
662.832	0.37
663.159	0.37
663.486	0.37
663.813	0.37
664.14	0.37
664.467	0.37
664.794	0.37
665.12	0.37
665.447	0.36
665.774	0.37
666.1	0.36
666.427	0.36
666.753	0.36
667.079	0.35
667.406	0.35
667.732	0.35
668.058	0.35
668.384	0.35
668.71	0.36
669.036	0.35
669.362	0.35
669.688	0.35
670.014	0.35
670.34	0.35
670.666	0.35
670.991	0.34
671.317	0.34
671.643	0.34
671.968	0.34
672.294	0.33
672.619	0.34
672.945	0.33
673.27	0.33
673.595	0.33
673.92	0.33
674.246	0.32
674.571	0.32
674.896	0.32
675.221	0.32
675.546	0.32
675.87	0.31
676.195	0.31
676.52	0.31
676.845	0.31
677.169	0.3
677.494	0.3
677.819	0.3
678.143	0.3
678.468	0.3
678.792	0.29
679.116	0.29
679.44	0.29
679.765	0.29
680.089	0.28
680.413	0.28
680.737	0.28
681.061	0.27
681.385	0.27
681.709	0.27
682.033	0.27
682.356	0.27
682.68	0.27
683.004	0.26
683.327	0.26
683.651	0.25
683.974	0.25
684.298	0.25
684.621	0.25
684.944	0.25
685.268	0.24
685.591	0.24
685.914	0.24
686.237	0.23
686.56	0.23
686.883	0.23
687.206	0.22
687.529	0.22
687.852	0.22
688.175	0.22
688.497	0.22
688.82	0.22
689.142	0.21
689.465	0.21
689.787	0.21
690.11	0.21
690.432	0.2
690.755	0.2
691.077	0.2
691.399	0.19
691.721	0.2
692.043	0.19
692.365	0.19
692.687	0.19
693.009	0.19
693.331	0.18
693.653	0.18
693.974	0.18
694.296	0.18
694.618	0.17
694.939	0.17
695.261	0.17
695.582	0.17
695.904	0.16
696.225	0.17
696.546	0.17
696.868	0.17
697.189	0.16
697.51	0.16
697.831	0.16
698.152	0.16
698.473	0.15
698.794	0.15
699.114	0.15
699.435	0.14
699.756	0.14
700.077	0.14
700.397	0.14
700.718	0.14
701.038	0.14
701.359	0.14
701.679	0.14
701.999	0.14
702.32	0.13
702.64	0.13
702.96	0.14
703.28	0.13
703.6	0.13
703.92	0.13
704.24	0.13
704.56	0.13
704.879	0.13
705.199	0.13
705.519	0.13
705.838	0.13
706.158	0.13
706.478	0.13
706.797	0.13
707.116	0.12
707.436	0.12
707.755	0.12
708.074	0.12
708.393	0.12
708.712	0.12
709.031	0.11
709.35	0.11
709.669	0.11
709.988	0.11
710.307	0.11
710.626	0.11
710.944	0.12
711.263	0.11
711.582	0.12
711.9	0.12
712.219	0.12
712.537	0.12
712.855	0.12
713.174	0.11
713.492	0.11
713.81	0.12
714.128	0.12
714.446	0.12
714.764	0.11
715.082	0.11
715.4	0.11
715.718	0.11
716.035	0.11
716.353	0.12
716.671	0.12
716.988	0.12
717.306	0.11
717.623	0.12
717.941	0.12
718.258	0.12
718.575	0.12
718.893	0.12
719.21	0.12
719.527	0.12
719.844	0.12
720.161	0.12
720.478	0.12
720.795	0.12
721.112	0.12
721.428	0.12
721.745	0.12
722.062	0.12
722.378	0.12
722.695	0.12
723.011	0.12
723.328	0.12
723.644	0.12
723.96	0.12
724.276	0.12
724.593	0.12
724.909	0.12
725.225	0.12
725.541	0.12
725.857	0.12
726.173	0.12
726.488	0.13
726.804	0.12
727.12	0.12
727.435	0.13
727.751	0.13
728.067	0.13
728.382	0.13
728.697	0.13
729.013	0.13
729.328	0.13
729.643	0.13
729.958	0.13
730.273	0.13
730.588	0.13
730.903	0.13
731.218	0.13
731.533	0.13
731.848	0.13
732.163	0.13
732.477	0.13
732.792	0.13
733.107	0.13
733.421	0.13
733.736	0.13
734.05	0.13
734.364	0.13
734.678	0.13
734.993	0.13
735.307	0.13
735.621	0.13
735.935	0.13
736.249	0.13
736.563	0.13
736.877	0.13
737.19	0.13
737.504	0.13
737.818	0.13
738.131	0.13
738.445	0.13
738.758	0.13
739.072	0.13
739.385	0.13
739.698	0.13
740.012	0.13
740.325	0.13
740.638	0.13
740.951	0.12
741.264	0.12
741.577	0.12
741.89	0.12
742.203	0.12
742.515	0.12
742.828	0.12
743.141	0.12
743.453	0.12
743.766	0.12
744.078	0.12
744.391	0.12
744.703	0.11
745.015	0.11
745.327	0.11
745.639	0.11
745.952	0.11
746.264	0.11
746.575	0.11
746.887	0.11
747.199	0.1
747.511	0.11
747.823	0.1
748.134	0.1
748.446	0.11
748.757	0.1
749.069	0.1
749.38	0.1
749.692	0.1
750.003	0.09
750.314	0.09
750.625	0.09
750.936	0.09
751.248	0.08
751.559	0.09
751.869	0.08
752.18	0.09
752.491	0.09
752.802	0.08
753.112	0.08
753.423	0.08
753.734	0.08
754.044	0.08
754.355	0.08
754.665	0.07
754.975	0.07
755.285	0.07
755.596	0.07
755.906	0.07
756.216	0.07
756.526	0.07
756.836	0.07
757.146	0.07
757.455	0.07
757.765	0.06
758.075	0.06
758.385	0.06
758.694	0.06
759.004	0.06
759.313	0.06
759.622	0.06
759.932	0.06
760.241	0.06
760.55	0.05
760.859	0.05
761.168	0.05
761.477	0.06
761.786	0.05
762.095	0.06
762.404	0.06
762.713	0.05
763.021	0.05
763.33	0.05
763.639	0.05
763.947	0.05
764.256	0.05
764.564	0.05
764.872	0.05
765.181	0.05
765.489	0.05
765.797	0.05
766.105	0.05
766.413	0.05
766.721	0.05
767.029	0.05
767.337	0.05
767.644	0.05
767.952	0.05
768.26	0.05
768.567	0.05
768.875	0.04
769.182	0.04
769.49	0.04
769.797	0.04
770.104	0.04
770.411	0.04
770.718	0.04
771.026	0.04
771.333	0.04
771.639	0.05
771.946	0.04
772.253	0.05
772.56	0.04
772.867	0.04
773.173	0.04
773.48	0.04
773.786	0.04
774.093	0.04
774.399	0.04
774.705	0.04
775.012	0.04
775.318	0.04
775.624	0.04
775.93	0.04
776.236	0.04
776.542	0.04
776.848	0.04
777.154	0.03
777.459	0.03
777.765	0.03
778.071	0.03
778.376	0.03
778.682	0.03
778.987	0.03
779.292	0.03
779.598	0.03
779.903	0.03
780.208	0.03
780.513	0.03
780.818	0.03
781.123	0.03
781.428	0.03
781.733	0.03
782.038	0.03
782.343	0.03
782.647	0.03
782.952	0.03
783.256	0.03
783.561	0.03
783.865	0.03
784.17	0.03
784.474	0.03
784.778	0.03
785.082	0.03
785.386	0.03
785.69	0.03
785.994	0.03
786.298	0.03
786.602	0.03
786.906	0.03
787.209	0.03
787.513	0.03
787.817	0.03
788.12	0.03
788.424	0.03
788.727	0.03
789.03	0.03
789.333	0.03
789.637	0.03
789.94	0.04
790.243	0.04
790.546	0.04
790.849	0.04
791.152	0.03
791.454	0.03
791.757	0.04
792.06	0.04
792.362	0.03
792.665	0.03
792.967	0.03
793.27	0.03
793.572	0.03
793.874	0.03
794.177	0.03
794.479	0.03
794.781	0.03
795.083	0.03
795.385	0.03
795.687	0.03
795.989	0.03
796.29	0.03
796.592	0.03
796.894	0.03
797.195	0.03
797.497	0.03
797.798	0.03
798.1	0.03
798.401	0.03
798.702	0.03
799.003	0.03
799.304	0.03
799.605	0.04
799.906	0.04
800.207	0.04
800.508	0.03
800.809	0.04
801.11	0.04
801.41	0.04
801.711	0.04
802.011	0.04
802.312	0.04
802.612	0.04
802.913	0.04
803.213	0.04
803.513	0.03
803.813	0.03
804.113	0.03
804.413	0.03
804.713	0.03
805.013	0.03
805.313	0.03
805.613	0.03
805.912	0.03
806.212	0.03
806.511	0.02
806.811	0.02
807.11	0.02
807.41	0.02
807.709	0.02
808.008	0.02
808.307	0.02
808.606	0.02
808.905	0.02
809.204	0.03
809.503	0.03
809.802	0.03
810.101	0.03
810.399	0.03
810.698	0.02
810.997	0.03
811.295	0.03
811.593	0.03
811.892	0.03
812.19	0.03
812.488	0.04
812.786	0.03
813.084	0.03
813.383	0.03
813.68	0.03
813.978	0.03
814.276	0.03
814.574	0.04
814.872	0.03
815.169	0.03
815.467	0.03
815.764	0.03
816.062	0.03
816.359	0.03
816.656	0.03
816.954	0.03
817.251	0.03
817.548	0.02
817.845	0.02
818.142	0.03
818.439	0.02
818.735	0.03
819.032	0.03
819.329	0.02
819.626	0.03
819.922	0.02
820.219	0.02
820.515	0.02
820.811	0.03
821.108	0.02
821.404	0.03
821.7	0.03
821.996	0.02
822.292	0.03
822.588	0.03
822.884	0.04
823.18	0.04
823.475	0.04
823.771	0.04
824.067	0.04
824.362	0.04
824.658	0.04
824.953	0.04
825.249	0.04
825.544	0.04
825.839	0.03
826.134	0.03
826.429	0.03
826.724	0.03
827.019	0.03
827.314	0.03
827.609	0.03
827.904	0.03
828.198	0.04
828.493	0.03
828.787	0.03
829.082	0.03
829.376	0.04
829.671	0.03
829.965	0.03
830.259	0.03
830.553	0.04
830.847	0.03
831.141	0.03
831.435	0.03
831.729	0.03
832.023	0.03
832.317	0.03
832.61	0.03
832.904	0.03
833.197	0.04
833.491	0.04
833.784	0.05
834.077	0.04
834.371	0.04
834.664	0.05
834.957	0.04
835.25	0.03
835.543	0.04
835.836	0.04
836.129	0.04
836.421	0.04
836.714	0.04
837.007	0.04
837.299	0.03
837.592	0.04
837.884	0.03
838.177	0.04
838.469	0.03
838.761	0.03
839.053	0.04
839.345	0.04
839.637	0.04
839.929	0.02
840.221	0.02
840.513	0.02
840.805	0.03
841.096	0.03
841.388	0.04
841.68	0.03
841.971	0.03
842.262	0.02
842.554	0.04
842.845	0.02
843.136	0.03
843.427	0.03
843.718	0.03
844.009	0.01
844.3	0.03
844.591	0.03
844.882	0.03
845.173	0.03
845.463	0.02
845.754	0.03
846.044	0.03
846.335	0.03
846.625	0.03
846.915	0.04
847.206	0.04
847.496	0.04
847.786	0.04
848.076	0.03
848.366	0.04
848.656	0.03
848.945	0.03
849.235	0.04
849.525	0.05
849.814	0.03
850.104	0.03
850.393	0.03
850.683	0.03
850.972	0.03
851.261	0.04
851.551	0.02
851.84	0.03
852.129	0.02
852.418	0.03
852.707	0.02
852.995	0.02
853.284	0.03
853.573	0.01
853.862	0.03
854.15	0.02
854.439	0.04
854.727	0.02
855.015	0.01
855.304	0.02
855.592	0.02
855.88	0.03
856.168	0.03
856.456	0.01
856.744	0.03
857.032	0.01
857.32	0.04
857.607	0.03
857.895	0.03
858.183	0.02
858.47	0.04
858.757	0.02
859.045	0.01
859.332	0.03
859.619	0.02
859.907	0.03
860.194	0.04
860.481	0.03
860.768	0.03
861.054	0.03
861.341	0.03
861.628	0.03
861.915	0.03
862.201	0.03
862.488	0.03
862.774	0.04
863.061	0.03
863.347	0.04
863.633	0.02
863.919	0.05
864.205	0.01
864.491	0.02
864.777	0.04
865.063	0.04
865.349	0.01
865.635	0.03
865.92	0.05
866.206	0.03
866.492	0.04
866.777	0.02
867.062	0
867.348	0.02
867.633	0.04
867.918	-0.01
868.203	0.06
868.488	0.05
868.773	0.03
869.058	0.02
869.343	0
869.628	-0.04
869.912	-0.01
870.197	0.02
870.482	-0
870.766	-0.01
871.05	0
871.335	-0.01
871.619	0.01
871.903	0.03
872.187	-0.01
872.471	0.01
872.755	0.05
873.039	-0.02
873.323	0
873.607	0.01
873.89	-0.03
874.174	0.02
874.458	-0.07
874.741	-0.06
875.024	0.01
875.308	-0.02
875.591	-0.02
875.874	0.03
876.157	-0.07
876.44	-0.06
876.723	0.03
877.006	-0.02
877.289	-0.05
877.572	0.1
877.854	0.02
878.137	0.01
878.42	-0.06
878.702	-0.01
878.984	0.01
879.267	-0.13
879.549	0
879.831	-0.04
880.113	-0.01
880.395	0.02
880.677	0.03
880.959	-0.11
