Data from Rubpy_EV_1200_EDTA_Buffered_Absorbance_14-13-58-666.txt Node
Date: Tue Jun 30 14:13:58 BST 2026
User: fpm-admin
Spectrometer: OFX00224
Trigger mode: 0
Integration Time (sec): 7.000000E-2
Scans to average: 3
Nonlinearity correction enabled: false
Boxcar width: 0
Storing dark spectrum: false
XAxis mode: Wavelengths
Number of Pixels in Spectrum: 2136
>>>>>Begin Spectral Data<<<<<
154.91	-0.06
155.289	0.59
155.669	-0.22
156.048	-0.2
156.428	0.35
156.807	0.02
157.186	0.98
157.566	0.02
157.945	-0.14
158.325	0.15
158.704	-0.18
159.083	-0
159.462	0.3
159.842	-0.05
160.221	0.32
160.6	0.16
160.979	-0.03
161.359	0.2
161.738	-0.38
162.117	-0
162.496	-0
162.875	-0.34
163.254	0.12
163.633	-0
164.012	1.72
164.391	0.37
164.77	-1.41
165.149	1.15
165.528	-0
165.907	-0
166.286	-0.48
166.665	0.23
167.044	-0.51
167.423	0.49
167.802	-0.18
168.181	-0
168.559	-0
168.938	-0
169.317	-0
169.696	-0
170.074	-0
170.453	-0.08
170.832	-0.92
171.21	-0.2
171.589	0.85
171.968	-0
172.346	-0
172.725	-0
173.103	-0
173.482	-0.27
173.861	0.16
174.239	-0
174.617	-0
174.996	-0
175.374	-0.37
175.753	-0.78
176.131	-0
176.51	-0.51
176.888	-0
177.266	-0
177.645	-0.12
178.023	1.47
178.401	-0.25
178.779	0.1
179.158	-0
179.536	0.22
179.914	0.82
180.292	-0.74
180.67	-0
181.048	-0
181.427	0.08
181.805	0.05
182.183	0.22
182.561	-1.3
182.939	-0.63
183.317	0.34
183.695	0.37
184.073	-0
184.451	-0
184.829	-0
185.206	0.18
185.584	0.35
185.962	-0.08
186.34	-0
186.718	-0
187.096	-0.08
187.473	-0
187.851	0.43
188.229	-0.15
188.607	0.1
188.984	0.15
189.362	0.18
189.74	0.12
190.117	0.04
190.495	-0.01
190.872	0.06
191.25	0.06
191.627	0.14
192.005	0.05
192.382	0.1
192.76	0.03
193.137	0.19
193.515	0.13
193.892	0.3
194.269	0.15
194.647	0.05
195.024	0.1
195.401	0.16
195.779	0.09
196.156	0.01
196.533	0.05
196.91	0.02
197.288	0.03
197.665	0.13
198.042	0.21
198.419	0.24
198.796	0.2
199.173	0.09
199.55	0.13
199.927	0.04
200.304	-0.04
200.681	0.12
201.058	0.08
201.435	0.05
201.812	0.09
202.189	0.19
202.566	0.25
202.943	0.16
203.32	0.16
203.697	0.17
204.073	0.1
204.45	0.05
204.827	0.13
205.204	0.2
205.58	0.19
205.957	0.22
206.334	0.12
206.71	-0
207.087	0.07
207.464	0.2
207.84	0.11
208.217	0.21
208.593	0.2
208.97	0.06
209.346	0.12
209.723	0.21
210.099	0.09
210.476	0.13
210.852	0.19
211.228	0.23
211.605	0.21
211.981	0.16
212.357	0.12
212.733	0.13
213.11	0.2
213.486	0.06
213.862	0.12
214.238	0.28
214.614	0.1
214.991	0.13
215.367	0.2
215.743	0.29
216.119	0.25
216.495	0.19
216.871	0.14
217.247	0.17
217.623	0.2
217.999	0.17
218.375	0.15
218.751	0.12
219.127	0.2
219.502	0.14
219.878	0.19
220.254	0.2
220.63	0.19
221.006	0.15
221.381	0.15
221.757	0.07
222.133	0.17
222.508	0.06
222.884	0.19
223.26	0.19
223.635	0.12
224.011	0.12
224.386	0.23
224.762	0.13
225.137	0.13
225.513	0.2
225.888	0.17
226.264	0.16
226.639	0.1
227.014	0.24
227.39	0.2
227.765	0.13
228.14	0.06
228.516	0.2
228.891	0.1
229.266	0.07
229.641	0.09
230.017	0.18
230.392	0.14
230.767	0.15
231.142	0.09
231.517	0.14
231.892	0.15
232.267	0.12
232.642	0.12
233.017	0.13
233.392	0.19
233.767	0.21
234.142	0.16
234.517	0.17
234.892	0.12
235.267	0.14
235.641	0.15
236.016	0.16
236.391	0.09
236.766	0.06
237.14	0.13
237.515	0.15
237.89	0.21
238.264	0.14
238.639	0.1
239.014	0.19
239.388	0.22
239.763	0.09
240.137	0.04
240.512	0.08
240.886	0.1
241.261	0.14
241.635	0.08
242.009	0.19
242.384	0.08
242.758	0.08
243.132	0.14
243.507	0.14
243.881	0.11
244.255	0.17
244.629	0.21
245.004	0.15
245.378	0.16
245.752	0.11
246.126	0.1
246.5	0.09
246.874	0.18
247.248	0.1
247.622	0.25
247.996	0.16
248.37	0.08
248.744	0.13
249.118	0.11
249.492	0.11
249.866	0.12
250.24	0.11
250.613	0.19
250.987	0.16
251.361	0.17
251.735	0.12
252.108	0.24
252.482	0.12
252.856	0.1
253.229	0.17
253.603	0.11
253.977	0.13
254.35	0.17
254.724	0.18
255.097	0.19
255.471	0.17
255.844	0.14
256.218	0.11
256.591	0.11
256.964	0.14
257.338	0.1
257.711	0.2
258.084	0.16
258.458	0.11
258.831	0.2
259.204	0.25
259.577	0.07
259.95	0.12
260.323	0.1
260.697	0.18
261.07	0.18
261.443	0.14
261.816	0.07
262.189	0.16
262.562	0.1
262.935	0.06
263.308	0.16
263.68	0.04
264.053	0.15
264.426	0.16
264.799	0.14
265.172	0.2
265.545	0.17
265.917	0.14
266.29	0.15
266.663	0.15
267.035	0.13
267.408	0.12
267.781	0.09
268.153	0.15
268.526	0.15
268.898	0.12
269.271	0.12
269.643	0.17
270.016	0.1
270.388	0.17
270.76	0.16
271.133	0.14
271.505	0.11
271.877	0.1
272.25	0.13
272.622	0.09
272.994	0.21
273.366	0.15
273.739	0.17
274.111	0.14
274.483	0.18
274.855	0.13
275.227	0.08
275.599	0.17
275.971	0.18
276.343	0.11
276.715	0.14
277.087	0.15
277.459	0.11
277.831	0.13
278.203	0.12
278.574	0.13
278.946	0.2
279.318	0.11
279.69	0.17
280.061	0.16
280.433	0.16
280.805	0.07
281.176	0.21
281.548	0.11
281.92	0.17
282.291	0.18
282.663	0.14
283.034	0.12
283.406	0.12
283.777	0.13
284.148	0.15
284.52	0.17
284.891	0.09
285.262	0.13
285.634	0.17
286.005	0.17
286.376	0.16
286.747	0.15
287.119	0.13
287.49	0.17
287.861	0.12
288.232	0.1
288.603	0.15
288.974	0.11
289.345	0.22
289.716	0.08
290.087	0.12
290.458	0.13
290.829	0.19
291.2	0.2
291.571	0.17
291.941	0.13
292.312	0.1
292.683	0.18
293.054	0.16
293.424	0.15
293.795	0.14
294.166	0.12
294.536	0.09
294.907	0.14
295.277	0.15
295.648	0.09
296.018	0.12
296.389	0.12
296.759	0.1
297.13	0.13
297.5	0.06
297.871	0.17
298.241	0.18
298.611	0.17
298.981	0.13
299.352	0.14
299.722	0.09
300.092	0.09
300.462	0.1
300.832	0.15
301.202	0.11
301.573	0.08
301.943	0.09
302.313	0.12
302.683	0.1
303.053	0.09
303.422	0.1
303.792	0.11
304.162	0.07
304.532	0.1
304.902	0.1
305.272	0.1
305.641	0.1
306.011	0.11
306.381	0.1
306.75	0.1
307.12	0.12
307.49	0.11
307.859	0.11
308.229	0.11
308.598	0.11
308.968	0.11
309.337	0.11
309.707	0.12
310.076	0.12
310.445	0.11
310.815	0.12
311.184	0.12
311.553	0.11
311.923	0.12
312.292	0.12
312.661	0.12
313.03	0.13
313.399	0.12
313.768	0.12
314.137	0.12
314.506	0.13
314.875	0.13
315.244	0.12
315.613	0.12
315.982	0.12
316.351	0.13
316.72	0.12
317.089	0.12
317.458	0.12
317.826	0.12
318.195	0.12
318.564	0.11
318.933	0.11
319.301	0.12
319.67	0.11
320.038	0.11
320.407	0.11
320.775	0.11
321.144	0.11
321.512	0.11
321.881	0.1
322.249	0.11
322.618	0.1
322.986	0.11
323.354	0.1
323.723	0.1
324.091	0.1
324.459	0.1
324.827	0.1
325.195	0.09
325.564	0.1
325.932	0.09
326.3	0.11
326.668	0.1
327.036	0.1
327.404	0.1
327.772	0.1
328.14	0.1
328.508	0.1
328.875	0.1
329.243	0.09
329.611	0.09
329.979	0.1
330.346	0.1
330.714	0.1
331.082	0.1
331.449	0.1
331.817	0.1
332.185	0.1
332.552	0.11
332.92	0.1
333.287	0.1
333.655	0.11
334.022	0.11
334.389	0.11
334.757	0.11
335.124	0.11
335.491	0.12
335.859	0.11
336.226	0.11
336.593	0.11
336.96	0.11
337.327	0.11
337.695	0.12
338.062	0.11
338.429	0.12
338.796	0.12
339.163	0.12
339.53	0.12
339.897	0.13
340.263	0.13
340.63	0.13
340.997	0.13
341.364	0.14
341.731	0.14
342.097	0.14
342.464	0.14
342.831	0.15
343.197	0.15
343.564	0.15
343.931	0.15
344.297	0.16
344.664	0.16
345.03	0.16
345.396	0.16
345.763	0.16
346.129	0.17
346.496	0.17
346.862	0.17
347.228	0.17
347.594	0.18
347.961	0.17
348.327	0.18
348.693	0.18
349.059	0.18
349.425	0.19
349.791	0.19
350.157	0.2
350.523	0.2
350.889	0.2
351.255	0.21
351.621	0.21
351.987	0.21
352.353	0.22
352.719	0.22
353.084	0.23
353.45	0.23
353.816	0.24
354.181	0.24
354.547	0.25
354.913	0.25
355.278	0.26
355.644	0.27
356.009	0.27
356.375	0.27
356.74	0.28
357.106	0.29
357.471	0.29
357.836	0.29
358.202	0.3
358.567	0.31
358.932	0.32
359.297	0.32
359.663	0.33
360.028	0.33
360.393	0.34
360.758	0.34
361.123	0.35
361.488	0.35
361.853	0.35
362.218	0.35
362.583	0.36
362.948	0.36
363.312	0.37
363.677	0.38
364.042	0.38
364.407	0.39
364.772	0.39
365.136	0.4
365.501	0.41
365.865	0.42
366.23	0.42
366.595	0.44
366.959	0.45
367.324	0.46
367.688	0.47
368.052	0.48
368.417	0.49
368.781	0.49
369.145	0.49
369.51	0.5
369.874	0.5
370.238	0.5
370.602	0.5
370.967	0.5
371.331	0.5
371.695	0.49
372.059	0.49
372.423	0.49
372.787	0.49
373.151	0.49
373.515	0.49
373.878	0.49
374.242	0.48
374.606	0.49
374.97	0.49
375.334	0.49
375.697	0.49
376.061	0.49
376.425	0.5
376.788	0.5
377.152	0.5
377.515	0.51
377.879	0.52
378.242	0.52
378.606	0.53
378.969	0.54
379.333	0.54
379.696	0.55
380.059	0.56
380.422	0.57
380.786	0.58
381.149	0.59
381.512	0.6
381.875	0.61
382.238	0.62
382.601	0.64
382.964	0.66
383.327	0.67
383.69	0.7
384.053	0.71
384.416	0.73
384.779	0.74
385.142	0.76
385.504	0.78
385.867	0.79
386.23	0.8
386.593	0.81
386.955	0.8
387.318	0.81
387.68	0.8
388.043	0.79
388.405	0.8
388.768	0.79
389.13	0.78
389.493	0.77
389.855	0.77
390.217	0.77
390.58	0.77
390.942	0.77
391.304	0.78
391.666	0.79
392.028	0.8
392.391	0.81
392.753	0.84
393.115	0.87
393.477	0.9
393.839	0.93
394.201	0.97
394.563	1
394.924	1.05
395.286	1.09
395.648	1.12
396.01	1.14
396.371	1.18
396.733	1.21
397.095	1.23
397.456	1.22
397.818	1.23
398.18	1.23
398.541	1.21
398.903	1.19
399.264	1.15
399.625	1.11
399.987	1.07
400.348	1.03
400.709	0.97
401.071	0.92
401.432	0.87
401.793	0.81
402.154	0.75
402.515	0.7
402.876	0.66
403.238	0.61
403.599	0.56
403.96	0.52
404.32	0.49
404.681	0.45
405.042	0.42
405.403	0.39
405.764	0.36
406.125	0.34
406.485	0.32
406.846	0.3
407.207	0.28
407.567	0.26
407.928	0.25
408.288	0.23
408.649	0.22
409.009	0.21
409.37	0.2
409.73	0.19
410.091	0.18
410.451	0.17
410.811	0.16
411.171	0.16
411.532	0.15
411.892	0.14
412.252	0.14
412.612	0.13
412.972	0.13
413.332	0.12
413.692	0.12
414.052	0.11
414.412	0.11
414.772	0.1
415.132	0.11
415.492	0.1
415.851	0.09
416.211	0.09
416.571	0.09
416.931	0.09
417.29	0.09
417.65	0.09
418.009	0.08
418.369	0.08
418.728	0.08
419.088	0.08
419.447	0.08
419.807	0.07
420.166	0.07
420.525	0.08
420.884	0.07
421.244	0.07
421.603	0.07
421.962	0.07
422.321	0.06
422.68	0.07
423.039	0.06
423.398	0.06
423.757	0.06
424.116	0.06
424.475	0.06
424.834	0.06
425.193	0.07
425.551	0.05
425.91	0.06
426.269	0.05
426.628	0.06
426.986	0.06
427.345	0.06
427.703	0.06
428.062	0.06
428.42	0.04
428.779	0.05
429.137	0.05
429.496	0.05
429.854	0.05
430.212	0.04
430.57	0.05
430.929	0.06
431.287	0.05
431.645	0.05
432.003	0.04
432.361	0.05
432.719	0.05
433.077	0.05
433.435	0.04
433.793	0.05
434.151	0.04
434.509	0.05
434.866	0.04
435.224	0.05
435.582	0.04
435.94	0.04
436.297	0.04
436.655	0.04
437.012	0.05
437.37	0.04
437.727	0.04
438.085	0.03
438.442	0.04
438.8	0.04
439.157	0.04
439.514	0.04
439.872	0.04
440.229	0.04
440.586	0.04
440.943	0.04
441.3	0.04
441.657	0.04
442.014	0.03
442.371	0.04
442.728	0.03
443.085	0.04
443.442	0.04
443.799	0.03
444.156	0.04
444.513	0.03
444.869	0.04
445.226	0.04
445.583	0.03
445.939	0.03
446.296	0.03
446.652	0.03
447.009	0.03
447.365	0.02
447.722	0.03
448.078	0.03
448.434	0.03
448.791	0.03
449.147	0.03
449.503	0.03
449.859	0.02
450.215	0.03
450.571	0.02
450.928	0.02
451.284	0.02
451.64	0.02
451.995	0.01
452.351	0.02
452.707	0.01
453.063	0.02
453.419	0.02
453.775	0.02
454.13	0.01
454.486	0.01
454.842	0.01
455.197	0
455.553	0.01
455.908	0
456.264	0.01
456.619	0
456.975	0.01
457.33	0
457.685	-0.01
458.04	-0.01
458.396	-0
458.751	-0.01
459.106	0
459.461	-0.01
459.816	-0
460.171	-0.01
460.526	-0.01
460.881	-0.02
461.236	-0.02
461.591	-0.02
461.946	-0.02
462.301	-0.02
462.655	-0.02
463.01	-0.03
463.365	-0.02
463.719	-0.03
464.074	-0.04
464.428	-0.04
464.783	-0.03
465.137	-0.04
465.492	-0.04
465.846	-0.04
466.201	-0.04
466.555	-0.03
466.909	-0.04
467.263	-0.04
467.618	-0.03
467.972	-0.03
468.326	-0.05
468.68	-0.04
469.034	-0.04
469.388	-0.04
469.742	-0.04
470.096	-0.05
470.45	-0.04
470.804	-0.04
471.157	-0.04
471.511	-0.04
471.865	-0.04
472.218	-0.04
472.572	-0.03
472.926	-0.04
473.279	-0.04
473.633	-0.03
473.986	-0.03
474.34	-0.03
474.693	-0.02
475.046	-0.02
475.4	-0.02
475.753	-0.01
476.106	-0.01
476.459	-0.01
476.812	-0
477.165	0
477.519	-0
477.872	0
478.224	0
478.577	0
478.93	0.01
479.283	0.01
479.636	0.01
479.989	0.02
480.341	0.02
480.694	0.02
481.047	0.02
481.399	0.02
481.752	0.03
482.104	0.03
482.457	0.03
482.809	0.03
483.162	0.03
483.514	0.03
483.866	0.03
484.219	0.03
484.571	0.03
484.923	0.03
485.275	0.04
485.627	0.04
485.979	0.03
486.331	0.04
486.683	0.04
487.035	0.04
487.387	0.04
487.739	0.05
488.091	0.04
488.443	0.04
488.794	0.04
489.146	0.05
489.498	0.05
489.849	0.05
490.201	0.05
490.552	0.05
490.904	0.05
491.255	0.05
491.607	0.05
491.958	0.06
492.309	0.05
492.661	0.05
493.012	0.05
493.363	0.06
493.714	0.06
494.065	0.06
494.416	0.06
494.767	0.06
495.118	0.06
495.469	0.06
495.82	0.06
496.171	0.07
496.522	0.07
496.872	0.06
497.223	0.07
497.574	0.07
497.924	0.07
498.275	0.07
498.626	0.07
498.976	0.07
499.327	0.07
499.677	0.08
500.027	0.07
500.378	0.08
500.728	0.08
501.078	0.08
501.428	0.08
501.779	0.08
502.129	0.08
502.479	0.08
502.829	0.09
503.179	0.09
503.529	0.09
503.879	0.09
504.229	0.09
504.578	0.09
504.928	0.09
505.278	0.09
505.628	0.09
505.977	0.09
506.327	0.1
506.676	0.09
507.026	0.09
507.375	0.09
507.725	0.1
508.074	0.1
508.424	0.1
508.773	0.1
509.122	0.1
509.471	0.11
509.82	0.1
510.17	0.11
510.519	0.11
510.868	0.11
511.217	0.11
511.566	0.11
511.915	0.11
512.263	0.11
512.612	0.11
512.961	0.11
513.31	0.12
513.659	0.11
514.007	0.12
514.356	0.12
514.704	0.12
515.053	0.12
515.401	0.12
515.75	0.12
516.098	0.12
516.447	0.13
516.795	0.13
517.143	0.13
517.491	0.12
517.839	0.12
518.188	0.13
518.536	0.13
518.884	0.13
519.232	0.13
519.58	0.14
519.928	0.14
520.275	0.14
520.623	0.14
520.971	0.13
521.319	0.14
521.666	0.14
522.014	0.14
522.362	0.14
522.709	0.14
523.057	0.15
523.404	0.15
523.752	0.15
524.099	0.15
524.446	0.15
524.794	0.15
525.141	0.15
525.488	0.15
525.835	0.15
526.182	0.16
526.529	0.16
526.876	0.16
527.223	0.16
527.57	0.16
527.917	0.16
528.264	0.16
528.611	0.17
528.958	0.17
529.304	0.17
529.651	0.17
529.998	0.17
530.344	0.17
530.691	0.18
531.037	0.17
531.384	0.18
531.73	0.18
532.076	0.18
532.423	0.18
532.769	0.18
533.115	0.18
533.461	0.18
533.807	0.18
534.154	0.19
534.5	0.19
534.846	0.19
535.192	0.19
535.537	0.19
535.883	0.19
536.229	0.19
536.575	0.19
536.921	0.2
537.266	0.2
537.612	0.2
537.957	0.2
538.303	0.21
538.649	0.21
538.994	0.21
539.339	0.2
539.685	0.21
540.03	0.21
540.375	0.21
540.721	0.22
541.066	0.22
541.411	0.21
541.756	0.21
542.101	0.22
542.446	0.22
542.791	0.23
543.136	0.22
543.481	0.22
543.825	0.22
544.17	0.23
544.515	0.23
544.86	0.24
545.204	0.24
545.549	0.24
545.893	0.24
546.238	0.24
546.582	0.24
546.927	0.24
547.271	0.24
547.615	0.24
547.96	0.25
548.304	0.25
548.648	0.25
548.992	0.25
549.336	0.25
549.68	0.25
550.024	0.26
550.368	0.26
550.712	0.26
551.056	0.26
551.4	0.26
551.743	0.26
552.087	0.26
552.431	0.26
552.774	0.27
553.118	0.27
553.462	0.26
553.805	0.27
554.148	0.27
554.492	0.27
554.835	0.27
555.178	0.27
555.522	0.27
555.865	0.27
556.208	0.27
556.551	0.28
556.894	0.28
557.237	0.28
557.58	0.28
557.923	0.28
558.266	0.28
558.609	0.28
558.952	0.29
559.294	0.28
559.637	0.29
559.98	0.28
560.322	0.29
560.665	0.29
561.007	0.29
561.35	0.29
561.692	0.29
562.034	0.3
562.377	0.3
562.719	0.29
563.061	0.29
563.403	0.3
563.745	0.29
564.088	0.29
564.43	0.29
564.772	0.29
565.113	0.29
565.455	0.3
565.797	0.29
566.139	0.3
566.481	0.3
566.822	0.3
567.164	0.3
567.506	0.3
567.847	0.3
568.189	0.3
568.53	0.3
568.872	0.3
569.213	0.31
569.554	0.3
569.895	0.3
570.237	0.3
570.578	0.3
570.919	0.3
571.26	0.31
571.601	0.3
571.942	0.3
572.283	0.3
572.624	0.3
572.965	0.3
573.306	0.3
573.646	0.3
573.987	0.3
574.328	0.3
574.668	0.31
575.009	0.3
575.349	0.3
575.69	0.3
576.03	0.3
576.37	0.3
576.711	0.29
577.051	0.29
577.391	0.3
577.731	0.3
578.072	0.3
578.412	0.3
578.752	0.3
579.092	0.3
579.431	0.3
579.771	0.28
580.111	0.27
580.451	0.28
580.791	0.3
581.13	0.3
581.47	0.3
581.81	0.3
582.149	0.3
582.489	0.31
582.828	0.3
583.167	0.28
583.507	0.24
583.846	0.22
584.185	0.25
584.525	0.28
584.864	0.3
585.203	0.31
585.542	0.32
585.881	0.32
586.22	0.32
586.559	0.32
586.898	0.31
587.236	0.3
587.575	0.3
587.914	0.3
588.252	0.32
588.591	0.32
588.93	0.33
589.268	0.32
589.607	0.32
589.945	0.33
590.283	0.33
590.622	0.33
590.96	0.33
591.298	0.34
591.636	0.34
591.974	0.34
592.313	0.35
592.651	0.35
592.989	0.34
593.326	0.35
593.664	0.35
594.002	0.35
594.34	0.35
594.678	0.34
595.015	0.34
595.353	0.33
595.691	0.34
596.028	0.35
596.366	0.36
596.703	0.36
597.04	0.36
597.378	0.36
597.715	0.36
598.052	0.37
598.389	0.37
598.726	0.37
599.064	0.38
599.401	0.37
599.738	0.37
600.074	0.38
600.411	0.38
600.748	0.37
601.085	0.37
601.422	0.37
601.758	0.37
602.095	0.37
602.432	0.37
602.768	0.37
603.105	0.37
603.441	0.38
603.777	0.38
604.114	0.38
604.45	0.38
604.786	0.38
605.122	0.38
605.459	0.38
605.795	0.38
606.131	0.37
606.467	0.38
606.803	0.38
607.139	0.38
607.474	0.38
607.81	0.38
608.146	0.38
608.482	0.38
608.817	0.37
609.153	0.37
609.488	0.37
609.824	0.37
610.159	0.37
610.495	0.37
610.83	0.37
611.165	0.37
611.5	0.37
611.836	0.37
612.171	0.37
612.506	0.37
612.841	0.37
613.176	0.37
613.511	0.37
613.845	0.37
614.18	0.37
614.515	0.36
614.85	0.36
615.184	0.36
615.519	0.36
615.854	0.36
616.188	0.36
616.523	0.36
616.857	0.35
617.191	0.35
617.526	0.35
617.86	0.35
618.194	0.35
618.528	0.35
618.862	0.35
619.196	0.35
619.53	0.35
619.864	0.35
620.198	0.35
620.532	0.35
620.866	0.35
621.2	0.34
621.533	0.35
621.867	0.34
622.201	0.34
622.534	0.34
622.868	0.34
623.201	0.34
623.534	0.33
623.868	0.33
624.201	0.33
624.534	0.33
624.868	0.33
625.201	0.33
625.534	0.33
625.867	0.33
626.2	0.33
626.533	0.32
626.865	0.33
627.198	0.32
627.531	0.32
627.864	0.32
628.196	0.32
628.529	0.32
628.862	0.32
629.194	0.32
629.527	0.31
629.859	0.32
630.191	0.31
630.524	0.31
630.856	0.31
631.188	0.3
631.52	0.3
631.852	0.3
632.184	0.3
632.516	0.29
632.848	0.29
633.18	0.29
633.512	0.29
633.844	0.28
634.175	0.29
634.507	0.28
634.839	0.28
635.17	0.28
635.502	0.27
635.833	0.28
636.165	0.27
636.496	0.27
636.827	0.27
637.159	0.26
637.49	0.26
637.821	0.26
638.152	0.25
638.483	0.25
638.814	0.26
639.145	0.26
639.476	0.25
639.807	0.25
640.137	0.25
640.468	0.25
640.799	0.25
641.129	0.24
641.46	0.24
641.791	0.24
642.121	0.23
642.451	0.24
642.782	0.23
643.112	0.23
643.442	0.23
643.773	0.23
644.103	0.23
644.433	0.22
644.763	0.22
645.093	0.23
645.423	0.23
645.753	0.22
646.082	0.22
646.412	0.22
646.742	0.22
647.072	0.22
647.401	0.22
647.731	0.22
648.06	0.22
648.39	0.22
648.719	0.21
649.048	0.22
649.378	0.21
649.707	0.21
650.036	0.21
650.365	0.21
650.694	0.21
651.023	0.2
651.352	0.2
651.681	0.2
652.01	0.2
652.339	0.2
652.668	0.2
652.996	0.21
653.325	0.21
653.654	0.21
653.982	0.2
654.311	0.2
654.639	0.2
654.967	0.2
655.296	0.2
655.624	0.2
655.952	0.2
656.28	0.2
656.609	0.2
656.937	0.2
657.265	0.21
657.593	0.13
657.92	0.01
658.248	0
658.576	0
658.904	0.05
659.231	0.14
659.559	0.19
659.887	0.19
660.214	0.19
660.542	0.2
660.869	0.19
661.196	0.2
661.524	0.2
661.851	0.19
662.178	0.2
662.505	0.2
662.832	0.2
663.159	0.2
663.486	0.2
663.813	0.2
664.14	0.2
664.467	0.19
664.794	0.2
665.12	0.2
665.447	0.19
665.774	0.19
666.1	0.19
666.427	0.19
666.753	0.19
667.079	0.19
667.406	0.18
667.732	0.19
668.058	0.19
668.384	0.19
668.71	0.19
669.036	0.18
669.362	0.19
669.688	0.18
670.014	0.18
670.34	0.19
670.666	0.18
670.991	0.18
671.317	0.18
671.643	0.18
671.968	0.18
672.294	0.18
672.619	0.18
672.945	0.18
673.27	0.17
673.595	0.18
673.92	0.17
674.246	0.17
674.571	0.17
674.896	0.17
675.221	0.17
675.546	0.17
675.87	0.17
676.195	0.16
676.52	0.16
676.845	0.16
677.169	0.16
677.494	0.16
677.819	0.16
678.143	0.16
678.468	0.16
678.792	0.16
679.116	0.16
679.44	0.15
679.765	0.15
680.089	0.15
680.413	0.15
680.737	0.14
681.061	0.14
681.385	0.14
681.709	0.15
682.033	0.14
682.356	0.14
682.68	0.14
683.004	0.14
683.327	0.14
683.651	0.13
683.974	0.13
684.298	0.13
684.621	0.13
684.944	0.13
685.268	0.13
685.591	0.13
685.914	0.13
686.237	0.13
686.56	0.13
686.883	0.12
687.206	0.12
687.529	0.12
687.852	0.11
688.175	0.12
688.497	0.11
688.82	0.11
689.142	0.11
689.465	0.11
689.787	0.11
690.11	0.11
690.432	0.11
690.755	0.11
691.077	0.11
691.399	0.1
691.721	0.1
692.043	0.1
692.365	0.1
692.687	0.1
693.009	0.1
693.331	0.1
693.653	0.1
693.974	0.09
694.296	0.09
694.618	0.09
694.939	0.09
695.261	0.09
695.582	0.09
695.904	0.08
696.225	0.09
696.546	0.09
696.868	0.09
697.189	0.09
697.51	0.08
697.831	0.08
698.152	0.08
698.473	0.08
698.794	0.08
699.114	0.08
699.435	0.07
699.756	0.07
700.077	0.07
700.397	0.07
700.718	0.07
701.038	0.07
701.359	0.07
701.679	0.07
701.999	0.07
702.32	0.06
702.64	0.06
702.96	0.07
703.28	0.07
703.6	0.07
703.92	0.06
704.24	0.07
704.56	0.06
704.879	0.06
705.199	0.07
705.519	0.07
705.838	0.07
706.158	0.07
706.478	0.07
706.797	0.07
707.116	0.06
707.436	0.06
707.755	0.06
708.074	0.06
708.393	0.06
708.712	0.06
709.031	0.05
709.35	0.05
709.669	0.05
709.988	0.05
710.307	0.06
710.626	0.06
710.944	0.06
711.263	0.06
711.582	0.06
711.9	0.06
712.219	0.06
712.537	0.06
712.855	0.06
713.174	0.06
713.492	0.06
713.81	0.06
714.128	0.06
714.446	0.06
714.764	0.06
715.082	0.05
715.4	0.06
715.718	0.06
716.035	0.06
716.353	0.06
716.671	0.06
716.988	0.06
717.306	0.06
717.623	0.06
717.941	0.06
718.258	0.06
718.575	0.06
718.893	0.06
719.21	0.06
719.527	0.06
719.844	0.06
720.161	0.06
720.478	0.06
720.795	0.06
721.112	0.06
721.428	0.06
721.745	0.06
722.062	0.06
722.378	0.06
722.695	0.06
723.011	0.06
723.328	0.06
723.644	0.06
723.96	0.06
724.276	0.06
724.593	0.06
724.909	0.06
725.225	0.06
725.541	0.06
725.857	0.06
726.173	0.06
726.488	0.06
726.804	0.06
727.12	0.06
727.435	0.06
727.751	0.06
728.067	0.07
728.382	0.07
728.697	0.07
729.013	0.07
729.328	0.07
729.643	0.07
729.958	0.07
730.273	0.07
730.588	0.07
730.903	0.07
731.218	0.07
731.533	0.07
731.848	0.07
732.163	0.07
732.477	0.07
732.792	0.07
733.107	0.07
733.421	0.07
733.736	0.07
734.05	0.07
734.364	0.07
734.678	0.07
734.993	0.07
735.307	0.07
735.621	0.07
735.935	0.07
736.249	0.07
736.563	0.07
736.877	0.07
737.19	0.07
737.504	0.07
737.818	0.07
738.131	0.07
738.445	0.07
738.758	0.07
739.072	0.07
739.385	0.07
739.698	0.07
740.012	0.07
740.325	0.07
740.638	0.07
740.951	0.06
741.264	0.06
741.577	0.06
741.89	0.07
742.203	0.07
742.515	0.07
742.828	0.07
743.141	0.07
743.453	0.06
743.766	0.06
744.078	0.06
744.391	0.06
744.703	0.06
745.015	0.06
745.327	0.06
745.639	0.06
745.952	0.05
746.264	0.06
746.575	0.05
746.887	0.05
747.199	0.05
747.511	0.05
747.823	0.05
748.134	0.05
748.446	0.05
748.757	0.06
749.069	0.05
749.38	0.05
749.692	0.05
750.003	0.05
750.314	0.05
750.625	0.05
750.936	0.05
751.248	0.04
751.559	0.05
751.869	0.04
752.18	0.05
752.491	0.04
752.802	0.04
753.112	0.04
753.423	0.04
753.734	0.04
754.044	0.04
754.355	0.04
754.665	0.03
754.975	0.03
755.285	0.03
755.596	0.03
755.906	0.03
756.216	0.03
756.526	0.03
756.836	0.03
757.146	0.03
757.455	0.03
757.765	0.03
758.075	0.03
758.385	0.03
758.694	0.03
759.004	0.03
759.313	0.02
759.622	0.02
759.932	0.03
760.241	0.03
760.55	0.03
760.859	0.03
761.168	0.02
761.477	0.03
761.786	0.03
762.095	0.03
762.404	0.03
762.713	0.03
763.021	0.03
763.33	0.03
763.639	0.03
763.947	0.03
764.256	0.03
764.564	0.03
764.872	0.03
765.181	0.03
765.489	0.03
765.797	0.03
766.105	0.03
766.413	0.03
766.721	0.03
767.029	0.03
767.337	0.03
767.644	0.03
767.952	0.03
768.26	0.02
768.567	0.03
768.875	0.02
769.182	0.02
769.49	0.02
769.797	0.02
770.104	0.02
770.411	0.02
770.718	0.03
771.026	0.03
771.333	0.03
771.639	0.03
771.946	0.03
772.253	0.03
772.56	0.02
772.867	0.02
773.173	0.02
773.48	0.02
773.786	0.02
774.093	0.02
774.399	0.02
774.705	0.02
775.012	0.02
775.318	0.02
775.624	0.02
775.93	0.02
776.236	0.02
776.542	0.02
776.848	0.02
777.154	0.02
777.459	0.02
777.765	0.02
778.071	0.02
778.376	0.02
778.682	0.02
778.987	0.02
779.292	0.01
779.598	0.02
779.903	0.02
780.208	0.01
780.513	0.01
780.818	0.01
781.123	0.01
781.428	0.01
781.733	0.01
782.038	0.01
782.343	0.01
782.647	0.02
782.952	0.02
783.256	0.02
783.561	0.02
783.865	0.02
784.17	0.02
784.474	0.02
784.778	0.02
785.082	0.02
785.386	0.01
785.69	0.01
785.994	0.01
786.298	0.01
786.602	0.01
786.906	0.01
787.209	0.01
787.513	0.01
787.817	0.01
788.12	0.02
788.424	0.02
788.727	0.02
789.03	0.02
789.333	0.02
789.637	0.02
789.94	0.02
790.243	0.02
790.546	0.02
790.849	0.02
791.152	0.02
791.454	0.02
791.757	0.02
792.06	0.02
792.362	0.02
792.665	0.02
792.967	0.02
793.27	0.01
793.572	0.02
793.874	0.01
794.177	0.02
794.479	0.01
794.781	0.02
795.083	0.01
795.385	0.01
795.687	0.01
795.989	0.01
796.29	0.01
796.592	0.01
796.894	0.02
797.195	0.02
797.497	0.02
797.798	0.02
798.1	0.01
798.401	0.02
798.702	0.02
799.003	0.02
799.304	0.02
799.605	0.02
799.906	0.02
800.207	0.02
800.508	0.02
800.809	0.02
801.11	0.02
801.41	0.02
801.711	0.02
802.011	0.02
802.312	0.02
802.612	0.02
802.913	0.02
803.213	0.02
803.513	0.02
803.813	0.02
804.113	0.01
804.413	0.02
804.713	0.02
805.013	0.02
805.313	0.02
805.613	0.01
805.912	0.01
806.212	0.02
806.511	0.01
806.811	0.01
807.11	0.01
807.41	0
807.709	0
808.008	0
808.307	-0
808.606	0.01
808.905	0.01
809.204	0.01
809.503	0.02
809.802	0.01
810.101	0.01
810.399	0.01
810.698	0.01
810.997	0.01
811.295	0.01
811.593	0.01
811.892	0.02
812.19	0.02
812.488	0.02
812.786	0.02
813.084	0.02
813.383	0.02
813.68	0.02
813.978	0.02
814.276	0.02
814.574	0.02
814.872	0.02
815.169	0.02
815.467	0.02
815.764	0.02
816.062	0.02
816.359	0.02
816.656	0.02
816.954	0.01
817.251	0.01
817.548	0.01
817.845	0.01
818.142	0.01
818.439	0.01
818.735	0.01
819.032	0.01
819.329	0.01
819.626	0
819.922	0
820.219	0
820.515	0
820.811	0.01
821.108	0.01
821.404	0.01
821.7	0.01
821.996	0.01
822.292	0.02
822.588	0.01
822.884	0.01
823.18	0.02
823.475	0.02
823.771	0.01
824.067	0.02
824.362	0.02
824.658	0.02
824.953	0.02
825.249	0.02
825.544	0.02
825.839	0.02
826.134	0.01
826.429	0.02
826.724	0.01
827.019	0.02
827.314	0.02
827.609	0.02
827.904	0.02
828.198	0.02
828.493	0.02
828.787	0.02
829.082	0.02
829.376	0.02
829.671	0.01
829.965	0.02
830.259	0.01
830.553	0.02
830.847	0.01
831.141	0.01
831.435	0.01
831.729	0.01
832.023	0.01
832.317	0.02
832.61	0.02
832.904	0.02
833.197	0.02
833.491	0.03
833.784	0.03
834.077	0.03
834.371	0.02
834.664	0.03
834.957	0.02
835.25	0.02
835.543	0.02
835.836	0.02
836.129	0.03
836.421	0.03
836.714	0.03
837.007	0.02
837.299	0.02
837.592	0.02
837.884	0.01
838.177	0.02
838.469	0.02
838.761	0.01
839.053	0.01
839.345	0.01
839.637	0.01
839.929	0
840.221	0.01
840.513	0.01
840.805	0.01
841.096	0.02
841.388	0.03
841.68	0.01
841.971	0.01
842.262	0.01
842.554	0.02
842.845	0.01
843.136	0.02
843.427	0.02
843.718	0.02
844.009	0.01
844.3	0.02
844.591	0.01
844.882	0.01
845.173	0.02
845.463	0.02
845.754	0
846.044	0.02
846.335	0.01
846.625	0.02
846.915	0.01
847.206	0.01
847.496	0.02
847.786	0.03
848.076	0.02
848.366	0.02
848.656	0.02
848.945	0.02
849.235	0.03
849.525	0.02
849.814	0.02
850.104	0.02
850.393	0.02
850.683	0.01
850.972	0.02
851.261	0.02
851.551	0
851.84	0.01
852.129	0.01
852.418	0.01
852.707	0.02
852.995	0
853.284	0.02
853.573	-0
853.862	0.01
854.15	0.01
854.439	0.02
854.727	0.01
855.015	0
855.304	0.01
855.592	0.01
855.88	0.01
856.168	0.01
856.456	-0
856.744	0.01
857.032	-0.01
857.32	0.01
857.607	0
857.895	0
858.183	0.01
858.47	0.01
858.757	0.01
859.045	0
859.332	0.03
859.619	0.02
859.907	0.01
860.194	0.03
860.481	0.01
860.768	0.02
861.054	0.02
861.341	-0
861.628	0.02
861.915	0.01
862.201	0.02
862.488	0.03
862.774	0.01
863.061	0.01
863.347	0.01
863.633	0.02
863.919	0.03
864.205	0.01
864.491	0.02
864.777	0.03
865.063	-0.01
865.349	0.02
865.635	-0.01
865.92	0.01
866.206	0.03
866.492	0.02
866.777	0.01
867.062	0.03
867.348	0
867.633	0.01
867.918	0
868.203	0.04
868.488	0.02
868.773	0.03
869.058	0.03
869.343	0.03
869.628	-0.02
869.912	-0.01
870.197	0.04
870.482	-0.01
870.766	-0.02
871.05	-0.02
871.335	-0.02
871.619	0.02
871.903	-0.03
872.187	0.02
872.471	0
872.755	0.04
873.039	0.03
873.323	0.03
873.607	-0.02
873.89	-0.02
874.174	-0.03
874.458	-0.08
874.741	-0.04
875.024	0
875.308	-0.04
875.591	0.01
875.874	0.01
876.157	-0.06
876.44	-0.04
876.723	0.04
877.006	-0.01
877.289	0
877.572	0.03
877.854	-0.05
878.137	-0.02
878.42	-0.02
878.702	0.05
878.984	-0.02
879.267	-0.01
879.549	0.08
879.831	0.01
880.113	0.01
880.395	-0.01
880.677	0.08
880.959	-0.14
