Data from Rubpy_EV_1200_EDTA_Buffered_Absorbance_14-17-38-719.txt Node
Date: Tue Jun 30 14:17:38 BST 2026
User: fpm-admin
Spectrometer: OFX00224
Trigger mode: 0
Integration Time (sec): 7.000000E-2
Scans to average: 3
Nonlinearity correction enabled: false
Boxcar width: 0
Storing dark spectrum: false
XAxis mode: Wavelengths
Number of Pixels in Spectrum: 2136
>>>>>Begin Spectral Data<<<<<
154.91	-0.17
155.289	0.34
155.669	-0.26
156.048	0.03
156.428	0.09
156.807	1.38
157.186	-0
157.566	-0.06
157.945	-0.24
158.325	-0.27
158.704	0.25
159.083	-0.38
159.462	0.5
159.842	-0.06
160.221	0.52
160.6	-0
160.979	-0.02
161.359	-0
161.738	-0.66
162.117	-0
162.496	-0
162.875	-0.21
163.254	-0.09
163.633	-0
164.012	-0
164.391	0.22
164.77	-1.34
165.149	0.17
165.528	-0
165.907	-0
166.286	-0
166.665	-0.29
167.044	-0.6
167.423	-0.1
167.802	-0
168.181	-0
168.559	-0
168.938	0.24
169.317	-0
169.696	-1.41
170.074	-1.54
170.453	-0.34
170.832	-0
171.21	-0.26
171.589	-0
171.968	-0
172.346	0.23
172.725	-0
173.103	-0
173.482	-0
173.861	-0
174.239	-0
174.617	-0
174.996	-0.35
175.374	0.03
175.753	-0.76
176.131	-0
176.51	-0.39
176.888	-0
177.266	-0
177.645	-0.12
178.023	0.6
178.401	-0.38
178.779	0.14
179.158	-0.34
179.536	0.25
179.914	0.12
180.292	-0.63
180.67	-0.02
181.048	-0
181.427	-0.06
181.805	-0.32
182.183	-0.18
182.561	-1.32
182.939	-0
183.317	0.43
183.695	-0.17
184.073	-0
184.451	-0.11
184.829	-0.04
185.206	0.35
185.584	0.03
185.962	-0.06
186.34	1.19
186.718	-0
187.096	0.24
187.473	-0.07
187.851	-0
188.229	-0
188.607	0.14
188.984	0.23
189.362	0.18
189.74	0.07
190.117	0.17
190.495	0.12
190.872	0.1
191.25	0.11
191.627	0.27
192.005	0.16
192.382	0.27
192.76	0.03
193.137	0.3
193.515	0.18
193.892	0.07
194.269	0.13
194.647	0.2
195.024	0.18
195.401	0.24
195.779	0.13
196.156	0.18
196.533	0.1
196.91	0.16
197.288	0.16
197.665	0.17
198.042	0.27
198.419	0.29
198.796	0.1
199.173	0.13
199.55	0.17
199.927	0.23
200.304	0.09
200.681	0.23
201.058	0.14
201.435	0.09
201.812	0.16
202.189	0.21
202.566	0.18
202.943	0.26
203.32	0.18
203.697	0.16
204.073	0.16
204.45	0.18
204.827	0.27
205.204	0.22
205.58	0.29
205.957	0.13
206.334	0.13
206.71	0.05
207.087	0.35
207.464	0.19
207.84	0.22
208.217	0.2
208.593	0.26
208.97	0.12
209.346	0.19
209.723	0.08
210.099	0.18
210.476	0.14
210.852	0.12
211.228	0.36
211.605	0.26
211.981	0.21
212.357	0.11
212.733	0.24
213.11	0.12
213.486	-0.01
213.862	0.08
214.238	0.26
214.614	0.06
214.991	0.21
215.367	0.15
215.743	0.29
216.119	0.23
216.495	0.19
216.871	0.14
217.247	0.13
217.623	0.11
217.999	0.17
218.375	0.15
218.751	0.2
219.127	0.18
219.502	0.13
219.878	0.16
220.254	0.19
220.63	0.15
221.006	0.17
221.381	0.17
221.757	0.2
222.133	0.23
222.508	0.16
222.884	0.14
223.26	0.13
223.635	0.16
224.011	0.14
224.386	0.21
224.762	0.19
225.137	0.13
225.513	0.13
225.888	0.16
226.264	0.23
226.639	0.15
227.014	0.11
227.39	0.25
227.765	0.18
228.14	0.19
228.516	0.11
228.891	0.12
229.266	0.31
229.641	0.2
230.017	0.22
230.392	0.11
230.767	0.26
231.142	0.12
231.517	0.13
231.892	0.16
232.267	0.17
232.642	0.2
233.017	0.07
233.392	0.17
233.767	0.08
234.142	0.12
234.517	0.15
234.892	0.33
235.267	0.09
235.641	0.2
236.016	0.12
236.391	0.19
236.766	0.15
237.14	0.11
237.515	0.13
237.89	0.22
238.264	0.21
238.639	0.17
239.014	0.17
239.388	0.25
239.763	0.13
240.137	0.2
240.512	0.17
240.886	0.18
241.261	0.04
241.635	0.11
242.009	0.21
242.384	0.18
242.758	0.1
243.132	0.08
243.507	0.18
243.881	0.12
244.255	0.25
244.629	0.21
245.004	0.18
245.378	0.16
245.752	0.11
246.126	0.22
246.5	0.18
246.874	0.14
247.248	0.19
247.622	0.14
247.996	0.19
248.37	0.19
248.744	0.12
249.118	0.12
249.492	0.27
249.866	0.15
250.24	0.22
250.613	0.18
250.987	0.19
251.361	0.21
251.735	0.25
252.108	0.18
252.482	0.2
252.856	0.14
253.229	0.15
253.603	0.16
253.977	0.19
254.35	0.18
254.724	0.24
255.097	0.27
255.471	0.19
255.844	0.17
256.218	0.17
256.591	0.27
256.964	0.19
257.338	0.16
257.711	0.26
258.084	0.16
258.458	0.15
258.831	0.13
259.204	0.22
259.577	0.19
259.95	0.1
260.323	0.21
260.697	0.2
261.07	0.17
261.443	0.21
261.816	0.12
262.189	0.26
262.562	0.17
262.935	0.19
263.308	0.32
263.68	0.07
264.053	0.2
264.426	0.08
264.799	0.17
265.172	0.26
265.545	0.23
265.917	0.27
266.29	0.14
266.663	0.28
267.035	0.28
267.408	0.18
267.781	0.19
268.153	0.21
268.526	0.28
268.898	0.19
269.271	0.19
269.643	0.15
270.016	0.16
270.388	0.26
270.76	0.29
271.133	0.24
271.505	0.17
271.877	0.25
272.25	0.2
272.622	0.16
272.994	0.2
273.366	0.22
273.739	0.14
274.111	0.19
274.483	0.21
274.855	0.13
275.227	0.15
275.599	0.19
275.971	0.19
276.343	0.19
276.715	0.15
277.087	0.24
277.459	0.2
277.831	0.15
278.203	0.27
278.574	0.19
278.946	0.18
279.318	0.2
279.69	0.2
280.061	0.21
280.433	0.3
280.805	0.16
281.176	0.23
281.548	0.19
281.92	0.18
282.291	0.17
282.663	0.25
283.034	0.22
283.406	0.16
283.777	0.2
284.148	0.19
284.52	0.27
284.891	0.29
285.262	0.2
285.634	0.24
286.005	0.28
286.376	0.21
286.747	0.22
287.119	0.11
287.49	0.28
287.861	0.21
288.232	0.2
288.603	0.25
288.974	0.16
289.345	0.22
289.716	0.17
290.087	0.21
290.458	0.19
290.829	0.22
291.2	0.23
291.571	0.25
291.941	0.18
292.312	0.22
292.683	0.22
293.054	0.19
293.424	0.17
293.795	0.18
294.166	0.21
294.536	0.18
294.907	0.23
295.277	0.23
295.648	0.2
296.018	0.17
296.389	0.21
296.759	0.24
297.13	0.19
297.5	0.12
297.871	0.2
298.241	0.21
298.611	0.24
298.981	0.18
299.352	0.21
299.722	0.16
300.092	0.16
300.462	0.13
300.832	0.22
301.202	0.16
301.573	0.14
301.943	0.14
302.313	0.16
302.683	0.19
303.053	0.15
303.422	0.14
303.792	0.16
304.162	0.15
304.532	0.15
304.902	0.17
305.272	0.16
305.641	0.17
306.011	0.16
306.381	0.16
306.75	0.17
307.12	0.18
307.49	0.17
307.859	0.18
308.229	0.18
308.598	0.19
308.968	0.19
309.337	0.18
309.707	0.19
310.076	0.18
310.445	0.19
310.815	0.2
311.184	0.2
311.553	0.2
311.923	0.2
312.292	0.2
312.661	0.2
313.03	0.2
313.399	0.2
313.768	0.19
314.137	0.2
314.506	0.2
314.875	0.2
315.244	0.2
315.613	0.21
315.982	0.2
316.351	0.2
316.72	0.2
317.089	0.2
317.458	0.2
317.826	0.2
318.195	0.2
318.564	0.19
318.933	0.19
319.301	0.19
319.67	0.18
320.038	0.19
320.407	0.19
320.775	0.19
321.144	0.18
321.512	0.19
321.881	0.17
322.249	0.17
322.618	0.18
322.986	0.17
323.354	0.18
323.723	0.17
324.091	0.17
324.459	0.17
324.827	0.17
325.195	0.16
325.564	0.16
325.932	0.16
326.3	0.17
326.668	0.17
327.036	0.16
327.404	0.16
327.772	0.16
328.14	0.17
328.508	0.17
328.875	0.16
329.243	0.16
329.611	0.16
329.979	0.17
330.346	0.17
330.714	0.17
331.082	0.17
331.449	0.17
331.817	0.17
332.185	0.17
332.552	0.18
332.92	0.17
333.287	0.18
333.655	0.18
334.022	0.18
334.389	0.18
334.757	0.18
335.124	0.18
335.491	0.19
335.859	0.19
336.226	0.19
336.593	0.19
336.96	0.19
337.327	0.2
337.695	0.2
338.062	0.2
338.429	0.2
338.796	0.21
339.163	0.21
339.53	0.21
339.897	0.22
340.263	0.22
340.63	0.22
340.997	0.23
341.364	0.23
341.731	0.23
342.097	0.23
342.464	0.24
342.831	0.25
343.197	0.25
343.564	0.26
343.931	0.26
344.297	0.26
344.664	0.27
345.03	0.27
345.396	0.27
345.763	0.28
346.129	0.28
346.496	0.29
346.862	0.29
347.228	0.29
347.594	0.3
347.961	0.3
348.327	0.31
348.693	0.31
349.059	0.31
349.425	0.32
349.791	0.33
350.157	0.33
350.523	0.34
350.889	0.34
351.255	0.35
351.621	0.36
351.987	0.36
352.353	0.37
352.719	0.38
353.084	0.39
353.45	0.4
353.816	0.4
354.181	0.41
354.547	0.42
354.913	0.42
355.278	0.43
355.644	0.44
356.009	0.45
356.375	0.46
356.74	0.47
357.106	0.48
357.471	0.49
357.836	0.5
358.202	0.51
358.567	0.52
358.932	0.53
359.297	0.54
359.663	0.55
360.028	0.56
360.393	0.56
360.758	0.57
361.123	0.57
361.488	0.59
361.853	0.59
362.218	0.59
362.583	0.61
362.948	0.61
363.312	0.62
363.677	0.62
364.042	0.64
364.407	0.65
364.772	0.66
365.136	0.67
365.501	0.69
365.865	0.7
366.23	0.71
366.595	0.72
366.959	0.74
367.324	0.76
367.688	0.77
368.052	0.78
368.417	0.8
368.781	0.81
369.145	0.81
369.51	0.81
369.874	0.82
370.238	0.82
370.602	0.81
370.967	0.82
371.331	0.82
371.695	0.81
372.059	0.8
372.423	0.8
372.787	0.8
373.151	0.8
373.515	0.8
373.878	0.8
374.242	0.8
374.606	0.79
374.97	0.79
375.334	0.79
375.697	0.8
376.061	0.81
376.425	0.81
376.788	0.8
377.152	0.81
377.515	0.82
377.879	0.83
378.242	0.83
378.606	0.85
378.969	0.87
379.333	0.87
379.696	0.88
380.059	0.89
380.422	0.91
380.786	0.93
381.149	0.94
381.512	0.96
381.875	0.97
382.238	1
382.601	1.02
382.964	1.06
383.327	1.08
383.69	1.1
384.053	1.12
384.416	1.16
384.779	1.18
385.142	1.2
385.504	1.22
385.867	1.24
386.23	1.26
386.593	1.26
386.955	1.27
387.318	1.27
387.68	1.26
388.043	1.23
388.405	1.25
388.768	1.23
389.13	1.23
389.493	1.21
389.855	1.21
390.217	1.21
390.58	1.2
390.942	1.22
391.304	1.22
391.666	1.23
392.028	1.26
392.391	1.27
392.753	1.32
393.115	1.33
393.477	1.38
393.839	1.43
394.201	1.48
394.563	1.53
394.924	1.6
395.286	1.63
395.648	1.67
396.01	1.72
396.371	1.75
396.733	1.74
397.095	1.78
397.456	1.78
397.818	1.78
398.18	1.75
398.541	1.76
398.903	1.73
399.264	1.67
399.625	1.65
399.987	1.59
400.348	1.56
400.709	1.47
401.071	1.41
401.432	1.35
401.793	1.25
402.154	1.18
402.515	1.1
402.876	1.02
403.238	0.95
403.599	0.89
403.96	0.82
404.32	0.77
404.681	0.72
405.042	0.67
405.403	0.62
405.764	0.57
406.125	0.53
406.485	0.5
406.846	0.47
407.207	0.44
407.567	0.41
407.928	0.39
408.288	0.36
408.649	0.35
409.009	0.33
409.37	0.31
409.73	0.3
410.091	0.29
410.451	0.27
410.811	0.25
411.171	0.25
411.532	0.24
411.892	0.22
412.252	0.22
412.612	0.21
412.972	0.2
413.332	0.2
413.692	0.19
414.052	0.18
414.412	0.17
414.772	0.17
415.132	0.17
415.492	0.16
415.851	0.15
416.211	0.15
416.571	0.14
416.931	0.14
417.29	0.13
417.65	0.14
418.009	0.13
418.369	0.13
418.728	0.13
419.088	0.13
419.447	0.13
419.807	0.12
420.166	0.12
420.525	0.12
420.884	0.11
421.244	0.11
421.603	0.11
421.962	0.11
422.321	0.11
422.68	0.11
423.039	0.1
423.398	0.1
423.757	0.1
424.116	0.1
424.475	0.1
424.834	0.1
425.193	0.1
425.551	0.09
425.91	0.09
426.269	0.09
426.628	0.09
426.986	0.09
427.345	0.09
427.703	0.09
428.062	0.09
428.42	0.08
428.779	0.08
429.137	0.08
429.496	0.08
429.854	0.09
430.212	0.08
430.57	0.08
430.929	0.08
431.287	0.08
431.645	0.07
432.003	0.08
432.361	0.07
432.719	0.08
433.077	0.07
433.435	0.08
433.793	0.08
434.151	0.07
434.509	0.07
434.866	0.08
435.224	0.07
435.582	0.07
435.94	0.07
436.297	0.07
436.655	0.07
437.012	0.08
437.37	0.08
437.727	0.07
438.085	0.06
438.442	0.07
438.8	0.07
439.157	0.07
439.514	0.07
439.872	0.06
440.229	0.07
440.586	0.06
440.943	0.06
441.3	0.06
441.657	0.06
442.014	0.06
442.371	0.06
442.728	0.06
443.085	0.06
443.442	0.06
443.799	0.06
444.156	0.06
444.513	0.05
444.869	0.06
445.226	0.05
445.583	0.05
445.939	0.05
446.296	0.05
446.652	0.05
447.009	0.05
447.365	0.05
447.722	0.05
448.078	0.05
448.434	0.05
448.791	0.05
449.147	0.04
449.503	0.04
449.859	0.05
450.215	0.05
450.571	0.05
450.928	0.04
451.284	0.04
451.64	0.04
451.995	0.04
452.351	0.04
452.707	0.04
453.063	0.04
453.419	0.04
453.775	0.03
454.13	0.03
454.486	0.03
454.842	0.02
455.197	0.02
455.553	0.04
455.908	0.02
456.264	0.03
456.619	0.02
456.975	0.02
457.33	0.02
457.685	0.02
458.04	0.02
458.396	0.02
458.751	0.01
459.106	0.02
459.461	0.01
459.816	0.01
460.171	0.01
460.526	0
460.881	0.01
461.236	0.01
461.591	-0
461.946	-0
462.301	-0
462.655	-0.01
463.01	-0.01
463.365	-0
463.719	-0.01
464.074	-0.02
464.428	-0.02
464.783	-0.02
465.137	-0.02
465.492	-0.02
465.846	-0.02
466.201	-0.02
466.555	-0.02
466.909	-0.02
467.263	-0.01
467.618	-0.01
467.972	-0.01
468.326	-0.02
468.68	-0.02
469.034	-0.02
469.388	-0.03
469.742	-0.02
470.096	-0.02
470.45	-0.02
470.804	-0.03
471.157	-0.02
471.511	-0.02
471.865	-0.02
472.218	-0.02
472.572	-0.01
472.926	-0.01
473.279	-0.01
473.633	-0
473.986	-0
474.34	0
474.693	0
475.046	0.01
475.4	0.01
475.753	0.02
476.106	0.02
476.459	0.02
476.812	0.03
477.165	0.03
477.519	0.02
477.872	0.03
478.224	0.03
478.577	0.03
478.93	0.04
479.283	0.04
479.636	0.04
479.989	0.04
480.341	0.04
480.694	0.04
481.047	0.05
481.399	0.06
481.752	0.06
482.104	0.06
482.457	0.06
482.809	0.06
483.162	0.06
483.514	0.07
483.866	0.06
484.219	0.06
484.571	0.07
484.923	0.07
485.275	0.07
485.627	0.07
485.979	0.07
486.331	0.08
486.683	0.08
487.035	0.07
487.387	0.08
487.739	0.08
488.091	0.08
488.443	0.08
488.794	0.08
489.146	0.09
489.498	0.09
489.849	0.09
490.201	0.09
490.552	0.09
490.904	0.09
491.255	0.09
491.607	0.09
491.958	0.1
492.309	0.1
492.661	0.1
493.012	0.1
493.363	0.1
493.714	0.1
494.065	0.11
494.416	0.11
494.767	0.11
495.118	0.11
495.469	0.11
495.82	0.11
496.171	0.12
496.522	0.12
496.872	0.12
497.223	0.12
497.574	0.12
497.924	0.12
498.275	0.12
498.626	0.13
498.976	0.13
499.327	0.13
499.677	0.13
500.027	0.13
500.378	0.13
500.728	0.13
501.078	0.14
501.428	0.14
501.779	0.14
502.129	0.14
502.479	0.14
502.829	0.15
503.179	0.15
503.529	0.15
503.879	0.15
504.229	0.15
504.578	0.15
504.928	0.15
505.278	0.16
505.628	0.16
505.977	0.16
506.327	0.16
506.676	0.16
507.026	0.16
507.375	0.16
507.725	0.17
508.074	0.17
508.424	0.17
508.773	0.17
509.122	0.17
509.471	0.17
509.82	0.17
510.17	0.18
510.519	0.18
510.868	0.18
511.217	0.18
511.566	0.19
511.915	0.19
512.263	0.19
512.612	0.19
512.961	0.19
513.31	0.19
513.659	0.19
514.007	0.2
514.356	0.2
514.704	0.2
515.053	0.21
515.401	0.2
515.75	0.21
516.098	0.21
516.447	0.21
516.795	0.21
517.143	0.21
517.491	0.21
517.839	0.22
518.188	0.22
518.536	0.22
518.884	0.22
519.232	0.23
519.58	0.23
519.928	0.23
520.275	0.23
520.623	0.23
520.971	0.23
521.319	0.24
521.666	0.24
522.014	0.24
522.362	0.24
522.709	0.24
523.057	0.24
523.404	0.24
523.752	0.24
524.099	0.25
524.446	0.25
524.794	0.25
525.141	0.25
525.488	0.25
525.835	0.26
526.182	0.26
526.529	0.26
526.876	0.26
527.223	0.26
527.57	0.27
527.917	0.26
528.264	0.27
528.611	0.27
528.958	0.27
529.304	0.27
529.651	0.28
529.998	0.28
530.344	0.28
530.691	0.28
531.037	0.29
531.384	0.29
531.73	0.29
532.076	0.29
532.423	0.29
532.769	0.3
533.115	0.3
533.461	0.3
533.807	0.3
534.154	0.31
534.5	0.31
534.846	0.31
535.192	0.32
535.537	0.31
535.883	0.32
536.229	0.32
536.575	0.32
536.921	0.32
537.266	0.33
537.612	0.32
537.957	0.33
538.303	0.33
538.649	0.34
538.994	0.34
539.339	0.34
539.685	0.35
540.03	0.35
540.375	0.35
540.721	0.35
541.066	0.35
541.411	0.35
541.756	0.35
542.101	0.36
542.446	0.36
542.791	0.36
543.136	0.37
543.481	0.37
543.825	0.37
544.17	0.38
544.515	0.37
544.86	0.38
545.204	0.39
545.549	0.38
545.893	0.39
546.238	0.39
546.582	0.39
546.927	0.39
547.271	0.4
547.615	0.4
547.96	0.41
548.304	0.4
548.648	0.41
548.992	0.41
549.336	0.41
549.68	0.41
550.024	0.42
550.368	0.42
550.712	0.42
551.056	0.43
551.4	0.43
551.743	0.43
552.087	0.43
552.431	0.43
552.774	0.44
553.118	0.44
553.462	0.43
553.805	0.44
554.148	0.44
554.492	0.44
554.835	0.44
555.178	0.44
555.522	0.44
555.865	0.45
556.208	0.45
556.551	0.45
556.894	0.46
557.237	0.45
557.58	0.46
557.923	0.46
558.266	0.46
558.609	0.46
558.952	0.46
559.294	0.46
559.637	0.46
559.98	0.46
560.322	0.47
560.665	0.47
561.007	0.47
561.35	0.47
561.692	0.47
562.034	0.48
562.377	0.48
562.719	0.48
563.061	0.47
563.403	0.47
563.745	0.47
564.088	0.48
564.43	0.48
564.772	0.48
565.113	0.48
565.455	0.48
565.797	0.48
566.139	0.48
566.481	0.49
566.822	0.49
567.164	0.49
567.506	0.48
567.847	0.48
568.189	0.49
568.53	0.49
568.872	0.49
569.213	0.49
569.554	0.49
569.895	0.49
570.237	0.49
570.578	0.49
570.919	0.49
571.26	0.49
571.601	0.49
571.942	0.49
572.283	0.5
572.624	0.49
572.965	0.49
573.306	0.5
573.646	0.49
573.987	0.49
574.328	0.49
574.668	0.5
575.009	0.5
575.349	0.5
575.69	0.49
576.03	0.49
576.37	0.49
576.711	0.48
577.051	0.49
577.391	0.49
577.731	0.5
578.072	0.5
578.412	0.5
578.752	0.5
579.092	0.5
579.431	0.49
579.771	0.48
580.111	0.46
580.451	0.47
580.791	0.49
581.13	0.5
581.47	0.5
581.81	0.5
582.149	0.5
582.489	0.5
582.828	0.5
583.167	0.48
583.507	0.44
583.846	0.42
584.185	0.45
584.525	0.48
584.864	0.5
585.203	0.51
585.542	0.52
585.881	0.52
586.22	0.53
586.559	0.52
586.898	0.51
587.236	0.51
587.575	0.5
587.914	0.51
588.252	0.52
588.591	0.53
588.93	0.53
589.268	0.53
589.607	0.53
589.945	0.53
590.283	0.54
590.622	0.54
590.96	0.55
591.298	0.55
591.636	0.55
591.974	0.55
592.313	0.55
592.651	0.56
592.989	0.56
593.326	0.56
593.664	0.57
594.002	0.57
594.34	0.57
594.678	0.56
595.015	0.57
595.353	0.56
595.691	0.57
596.028	0.58
596.366	0.58
596.703	0.59
597.04	0.59
597.378	0.59
597.715	0.59
598.052	0.59
598.389	0.6
598.726	0.6
599.064	0.61
599.401	0.6
599.738	0.6
600.074	0.61
600.411	0.61
600.748	0.6
601.085	0.6
601.422	0.6
601.758	0.6
602.095	0.6
602.432	0.6
602.768	0.6
603.105	0.61
603.441	0.6
603.777	0.61
604.114	0.61
604.45	0.61
604.786	0.61
605.122	0.61
605.459	0.62
605.795	0.61
606.131	0.61
606.467	0.62
606.803	0.61
607.139	0.61
607.474	0.61
607.81	0.61
608.146	0.61
608.482	0.61
608.817	0.61
609.153	0.6
609.488	0.6
609.824	0.6
610.159	0.6
610.495	0.6
610.83	0.6
611.165	0.6
611.5	0.6
611.836	0.59
612.171	0.6
612.506	0.6
612.841	0.59
613.176	0.59
613.511	0.59
613.845	0.59
614.18	0.58
614.515	0.58
614.85	0.58
615.184	0.58
615.519	0.58
615.854	0.58
616.188	0.58
616.523	0.57
616.857	0.57
617.191	0.57
617.526	0.56
617.86	0.57
618.194	0.56
618.528	0.57
618.862	0.56
619.196	0.56
619.53	0.56
619.864	0.56
620.198	0.56
620.532	0.56
620.866	0.56
621.2	0.56
621.533	0.55
621.867	0.56
622.201	0.55
622.534	0.55
622.868	0.54
623.201	0.55
623.534	0.54
623.868	0.53
624.201	0.54
624.534	0.53
624.868	0.53
625.201	0.53
625.534	0.53
625.867	0.53
626.2	0.53
626.533	0.52
626.865	0.52
627.198	0.52
627.531	0.52
627.864	0.51
628.196	0.51
628.529	0.51
628.862	0.51
629.194	0.51
629.527	0.5
629.859	0.5
630.191	0.5
630.524	0.5
630.856	0.49
631.188	0.49
631.52	0.48
631.852	0.48
632.184	0.48
632.516	0.47
632.848	0.47
633.18	0.47
633.512	0.47
633.844	0.46
634.175	0.46
634.507	0.45
634.839	0.45
635.17	0.45
635.502	0.44
635.833	0.44
636.165	0.44
636.496	0.43
636.827	0.43
637.159	0.42
637.49	0.42
637.821	0.41
638.152	0.42
638.483	0.41
638.814	0.41
639.145	0.41
639.476	0.41
639.807	0.4
640.137	0.4
640.468	0.4
640.799	0.39
641.129	0.39
641.46	0.39
641.791	0.38
642.121	0.38
642.451	0.38
642.782	0.38
643.112	0.38
643.442	0.37
643.773	0.37
644.103	0.37
644.433	0.36
644.763	0.36
645.093	0.37
645.423	0.36
645.753	0.35
646.082	0.35
646.412	0.36
646.742	0.35
647.072	0.35
647.401	0.35
647.731	0.35
648.06	0.35
648.39	0.35
648.719	0.35
649.048	0.35
649.378	0.34
649.707	0.34
650.036	0.33
650.365	0.34
650.694	0.33
651.023	0.33
651.352	0.32
651.681	0.32
652.01	0.32
652.339	0.32
652.668	0.33
652.996	0.33
653.325	0.33
653.654	0.33
653.982	0.33
654.311	0.33
654.639	0.33
654.967	0.32
655.296	0.32
655.624	0.32
655.952	0.32
656.28	0.32
656.609	0.32
656.937	0.32
657.265	0.33
657.593	0.25
657.92	0.11
658.248	0.06
658.576	0.07
658.904	0.17
659.231	0.26
659.559	0.31
659.887	0.32
660.214	0.32
660.542	0.32
660.869	0.32
661.196	0.32
661.524	0.32
661.851	0.32
662.178	0.32
662.505	0.32
662.832	0.32
663.159	0.32
663.486	0.32
663.813	0.32
664.14	0.32
664.467	0.32
664.794	0.32
665.12	0.32
665.447	0.31
665.774	0.31
666.1	0.31
666.427	0.31
666.753	0.31
667.079	0.3
667.406	0.3
667.732	0.3
668.058	0.3
668.384	0.3
668.71	0.3
669.036	0.3
669.362	0.3
669.688	0.3
670.014	0.3
670.34	0.3
670.666	0.3
670.991	0.3
671.317	0.29
671.643	0.29
671.968	0.29
672.294	0.29
672.619	0.29
672.945	0.28
673.27	0.29
673.595	0.28
673.92	0.28
674.246	0.28
674.571	0.28
674.896	0.28
675.221	0.27
675.546	0.27
675.87	0.27
676.195	0.27
676.52	0.26
676.845	0.27
677.169	0.26
677.494	0.26
677.819	0.26
678.143	0.26
678.468	0.25
678.792	0.25
679.116	0.25
679.44	0.25
679.765	0.25
680.089	0.24
680.413	0.24
680.737	0.24
681.061	0.23
681.385	0.24
681.709	0.23
682.033	0.23
682.356	0.23
682.68	0.23
683.004	0.23
683.327	0.23
683.651	0.22
683.974	0.22
684.298	0.21
684.621	0.21
684.944	0.21
685.268	0.21
685.591	0.21
685.914	0.21
686.237	0.2
686.56	0.2
686.883	0.19
687.206	0.19
687.529	0.19
687.852	0.19
688.175	0.19
688.497	0.19
688.82	0.19
689.142	0.18
689.465	0.18
689.787	0.18
690.11	0.18
690.432	0.17
690.755	0.17
691.077	0.17
691.399	0.17
691.721	0.17
692.043	0.16
692.365	0.16
692.687	0.16
693.009	0.16
693.331	0.15
693.653	0.15
693.974	0.15
694.296	0.15
694.618	0.15
694.939	0.15
695.261	0.15
695.582	0.14
695.904	0.14
696.225	0.14
696.546	0.14
696.868	0.14
697.189	0.14
697.51	0.14
697.831	0.13
698.152	0.14
698.473	0.13
698.794	0.13
699.114	0.13
699.435	0.12
699.756	0.12
700.077	0.12
700.397	0.12
700.718	0.12
701.038	0.12
701.359	0.12
701.679	0.12
701.999	0.12
702.32	0.11
702.64	0.11
702.96	0.12
703.28	0.11
703.6	0.11
703.92	0.11
704.24	0.11
704.56	0.11
704.879	0.11
705.199	0.11
705.519	0.11
705.838	0.11
706.158	0.11
706.478	0.11
706.797	0.11
707.116	0.11
707.436	0.11
707.755	0.1
708.074	0.1
708.393	0.1
708.712	0.1
709.031	0.09
709.35	0.09
709.669	0.09
709.988	0.09
710.307	0.09
710.626	0.1
710.944	0.1
711.263	0.1
711.582	0.1
711.9	0.1
712.219	0.1
712.537	0.1
712.855	0.1
713.174	0.1
713.492	0.1
713.81	0.1
714.128	0.1
714.446	0.1
714.764	0.1
715.082	0.09
715.4	0.1
715.718	0.1
716.035	0.1
716.353	0.1
716.671	0.1
716.988	0.1
717.306	0.1
717.623	0.1
717.941	0.1
718.258	0.1
718.575	0.1
718.893	0.1
719.21	0.1
719.527	0.1
719.844	0.1
720.161	0.1
720.478	0.1
720.795	0.1
721.112	0.1
721.428	0.1
721.745	0.1
722.062	0.1
722.378	0.11
722.695	0.1
723.011	0.1
723.328	0.1
723.644	0.1
723.96	0.1
724.276	0.1
724.593	0.1
724.909	0.1
725.225	0.1
725.541	0.1
725.857	0.1
726.173	0.1
726.488	0.11
726.804	0.11
727.12	0.11
727.435	0.11
727.751	0.11
728.067	0.11
728.382	0.11
728.697	0.11
729.013	0.11
729.328	0.11
729.643	0.11
729.958	0.11
730.273	0.11
730.588	0.11
730.903	0.12
731.218	0.11
731.533	0.11
731.848	0.11
732.163	0.11
732.477	0.12
732.792	0.12
733.107	0.11
733.421	0.11
733.736	0.11
734.05	0.11
734.364	0.11
734.678	0.11
734.993	0.11
735.307	0.11
735.621	0.11
735.935	0.11
736.249	0.11
736.563	0.12
736.877	0.12
737.19	0.12
737.504	0.11
737.818	0.11
738.131	0.11
738.445	0.12
738.758	0.11
739.072	0.11
739.385	0.11
739.698	0.11
740.012	0.11
740.325	0.11
740.638	0.11
740.951	0.1
741.264	0.1
741.577	0.1
741.89	0.11
742.203	0.11
742.515	0.11
742.828	0.11
743.141	0.1
743.453	0.1
743.766	0.1
744.078	0.1
744.391	0.1
744.703	0.1
745.015	0.09
745.327	0.09
745.639	0.09
745.952	0.09
746.264	0.09
746.575	0.09
746.887	0.09
747.199	0.09
747.511	0.09
747.823	0.09
748.134	0.09
748.446	0.09
748.757	0.09
749.069	0.09
749.38	0.09
749.692	0.08
750.003	0.08
750.314	0.08
750.625	0.08
750.936	0.08
751.248	0.07
751.559	0.07
751.869	0.07
752.18	0.07
752.491	0.07
752.802	0.07
753.112	0.07
753.423	0.07
753.734	0.07
754.044	0.07
754.355	0.06
754.665	0.06
754.975	0.06
755.285	0.06
755.596	0.06
755.906	0.06
756.216	0.05
756.526	0.06
756.836	0.06
757.146	0.06
757.455	0.06
757.765	0.05
758.075	0.05
758.385	0.05
758.694	0.05
759.004	0.05
759.313	0.05
759.622	0.05
759.932	0.05
760.241	0.05
760.55	0.04
760.859	0.05
761.168	0.05
761.477	0.05
761.786	0.05
762.095	0.05
762.404	0.05
762.713	0.05
763.021	0.04
763.33	0.05
763.639	0.04
763.947	0.04
764.256	0.04
764.564	0.04
764.872	0.04
765.181	0.04
765.489	0.04
765.797	0.05
766.105	0.04
766.413	0.04
766.721	0.04
767.029	0.04
767.337	0.04
767.644	0.04
767.952	0.04
768.26	0.04
768.567	0.04
768.875	0.04
769.182	0.04
769.49	0.04
769.797	0.04
770.104	0.04
770.411	0.04
770.718	0.04
771.026	0.04
771.333	0.04
771.639	0.05
771.946	0.04
772.253	0.04
772.56	0.04
772.867	0.04
773.173	0.03
773.48	0.03
773.786	0.03
774.093	0.03
774.399	0.03
774.705	0.04
775.012	0.03
775.318	0.03
775.624	0.03
775.93	0.03
776.236	0.03
776.542	0.03
776.848	0.03
777.154	0.03
777.459	0.03
777.765	0.03
778.071	0.03
778.376	0.03
778.682	0.03
778.987	0.03
779.292	0.02
779.598	0.03
779.903	0.03
780.208	0.02
780.513	0.03
780.818	0.02
781.123	0.02
781.428	0.03
781.733	0.03
782.038	0.02
782.343	0.03
782.647	0.03
782.952	0.03
783.256	0.03
783.561	0.03
783.865	0.03
784.17	0.03
784.474	0.03
784.778	0.03
785.082	0.03
785.386	0.02
785.69	0.02
785.994	0.02
786.298	0.03
786.602	0.03
786.906	0.02
787.209	0.02
787.513	0.02
787.817	0.02
788.12	0.03
788.424	0.03
788.727	0.03
789.03	0.03
789.333	0.03
789.637	0.03
789.94	0.03
790.243	0.03
790.546	0.03
790.849	0.03
791.152	0.03
791.454	0.03
791.757	0.03
792.06	0.03
792.362	0.03
792.665	0.02
792.967	0.03
793.27	0.03
793.572	0.02
793.874	0.03
794.177	0.03
794.479	0.03
794.781	0.03
795.083	0.03
795.385	0.03
795.687	0.03
795.989	0.03
796.29	0.03
796.592	0.03
796.894	0.03
797.195	0.03
797.497	0.03
797.798	0.03
798.1	0.03
798.401	0.03
798.702	0.03
799.003	0.03
799.304	0.03
799.605	0.03
799.906	0.04
800.207	0.04
800.508	0.03
800.809	0.03
801.11	0.03
801.41	0.03
801.711	0.03
802.011	0.03
802.312	0.03
802.612	0.03
802.913	0.04
803.213	0.03
803.513	0.03
803.813	0.03
804.113	0.03
804.413	0.03
804.713	0.03
805.013	0.02
805.313	0.03
805.613	0.02
805.912	0.02
806.212	0.03
806.511	0.02
806.811	0.02
807.11	0.02
807.41	0.01
807.709	0.02
808.008	0.02
808.307	0.02
808.606	0.02
808.905	0.02
809.204	0.03
809.503	0.03
809.802	0.03
810.101	0.02
810.399	0.03
810.698	0.02
810.997	0.02
811.295	0.02
811.593	0.02
811.892	0.03
812.19	0.02
812.488	0.03
812.786	0.03
813.084	0.03
813.383	0.03
813.68	0.03
813.978	0.03
814.276	0.03
814.574	0.03
814.872	0.03
815.169	0.03
815.467	0.03
815.764	0.03
816.062	0.03
816.359	0.03
816.656	0.03
816.954	0.03
817.251	0.02
817.548	0.02
817.845	0.02
818.142	0.02
818.439	0.02
818.735	0.02
819.032	0.02
819.329	0.02
819.626	0.02
819.922	0.01
820.219	0.02
820.515	0.02
820.811	0.02
821.108	0.02
821.404	0.02
821.7	0.02
821.996	0.02
822.292	0.03
822.588	0.02
822.884	0.03
823.18	0.03
823.475	0.03
823.771	0.03
824.067	0.03
824.362	0.03
824.658	0.03
824.953	0.04
825.249	0.03
825.544	0.03
825.839	0.03
826.134	0.03
826.429	0.03
826.724	0.03
827.019	0.04
827.314	0.04
827.609	0.03
827.904	0.03
828.198	0.03
828.493	0.03
828.787	0.03
829.082	0.03
829.376	0.03
829.671	0.03
829.965	0.03
830.259	0.03
830.553	0.03
830.847	0.03
831.141	0.03
831.435	0.03
831.729	0.03
832.023	0.02
832.317	0.02
832.61	0.03
832.904	0.03
833.197	0.03
833.491	0.03
833.784	0.05
834.077	0.04
834.371	0.04
834.664	0.04
834.957	0.03
835.25	0.04
835.543	0.04
835.836	0.04
836.129	0.03
836.421	0.04
836.714	0.04
837.007	0.03
837.299	0.03
837.592	0.03
837.884	0.03
838.177	0.04
838.469	0.03
838.761	0.03
839.053	0.03
839.345	0.03
839.637	0.03
839.929	0.02
840.221	0.02
840.513	0.02
840.805	0.02
841.096	0.02
841.388	0.03
841.68	0.03
841.971	0.03
842.262	0.01
842.554	0.04
842.845	0.02
843.136	0.03
843.427	0.03
843.718	0.02
844.009	0.02
844.3	0.03
844.591	0.03
844.882	0.03
845.173	0.02
845.463	0.03
845.754	0.02
846.044	0.03
846.335	0.02
846.625	0.03
846.915	0.03
847.206	0.03
847.496	0.04
847.786	0.03
848.076	0.04
848.366	0.04
848.656	0.04
848.945	0.03
849.235	0.04
849.525	0.03
849.814	0.03
850.104	0.03
850.393	0.02
850.683	0.03
850.972	0.03
851.261	0.04
851.551	0.03
851.84	0.02
852.129	0.01
852.418	0.03
852.707	0.01
852.995	0.01
853.284	0.03
853.573	0.01
853.862	0.02
854.15	0.03
854.439	0.03
854.727	0.03
855.015	0.01
855.304	0.02
855.592	0.02
855.88	0.03
856.168	0.04
856.456	0
856.744	0.03
857.032	0.01
857.32	0.04
857.607	0.01
857.895	0.02
858.183	0.03
858.47	0.03
858.757	0.01
859.045	0.02
859.332	0.04
859.619	0.02
859.907	0.03
860.194	0.03
860.481	0.03
860.768	0.04
861.054	0.02
861.341	0.04
861.628	0.04
861.915	0.02
862.201	0.03
862.488	0.04
862.774	0.03
863.061	0.01
863.347	0.04
863.633	0.04
863.919	0.03
864.205	0.02
864.491	0.02
864.777	0.04
865.063	0.01
865.349	0
865.635	0.02
865.92	0.03
866.206	0.03
866.492	0.01
866.777	0.03
867.062	0.01
867.348	0.04
867.633	0.02
867.918	-0.01
868.203	0.03
868.488	0.03
868.773	0.04
869.058	0.02
869.343	0.04
869.628	0.02
869.912	-0
870.197	0.01
870.482	0
870.766	-0.04
871.05	-0.01
871.335	0.02
871.619	0.02
871.903	0
872.187	-0.04
872.471	0.03
872.755	0.05
873.039	0.01
873.323	0
873.607	-0.06
873.89	-0.01
874.174	-0.03
874.458	-0.02
874.741	0.02
875.024	0
875.308	-0.07
875.591	0.06
875.874	0.05
876.157	-0.04
876.44	-0.07
876.723	0.04
877.006	-0.02
877.289	-0.04
877.572	0.12
877.854	-0.05
878.137	0
878.42	-0.08
878.702	0.03
878.984	-0.04
879.267	-0.06
879.549	0
879.831	-0.04
880.113	-0.03
880.395	0.05
880.677	0.03
880.959	-0.11
