Data from Rubpy_EV_1200_EDTA_Buffered_Absorbance_14-12-46-770.txt Node
Date: Tue Jun 30 14:12:46 BST 2026
User: fpm-admin
Spectrometer: OFX00224
Trigger mode: 0
Integration Time (sec): 7.000000E-2
Scans to average: 3
Nonlinearity correction enabled: false
Boxcar width: 0
Storing dark spectrum: false
XAxis mode: Wavelengths
Number of Pixels in Spectrum: 2136
>>>>>Begin Spectral Data<<<<<
154.91	0.02
155.289	0.94
155.669	-0.44
156.048	-0.19
156.428	-0
156.807	-0
157.186	-0
157.566	0.46
157.945	0.38
158.325	-0.49
158.704	0.16
159.083	-0
159.462	0.56
159.842	-0.06
160.221	-0.17
160.6	0.41
160.979	-0.19
161.359	0.22
161.738	-0.26
162.117	-0
162.496	-0
162.875	-0.46
163.254	0.08
163.633	-0
164.012	0.04
164.391	0.37
164.77	-1.23
165.149	-0.23
165.528	-0
165.907	-0.58
166.286	-0
166.665	-0.26
167.044	-0.7
167.423	-0.18
167.802	-0
168.181	-0
168.559	-0
168.938	-0
169.317	-0.3
169.696	-0.7
170.074	-0
170.453	-0.64
170.832	-0
171.21	-0.32
171.589	-0
171.968	-0.07
172.346	-0
172.725	-0
173.103	-0
173.482	-0
173.861	-0.02
174.239	0.17
174.617	0.03
174.996	-0.92
175.374	0.08
175.753	-1.03
176.131	-0
176.51	-0.51
176.888	-0
177.266	-0
177.645	-0.07
178.023	0.82
178.401	-0.38
178.779	0.08
179.158	-0.23
179.536	-0.02
179.914	-0.36
180.292	-0
180.67	-0.29
181.048	-0.3
181.427	0.22
181.805	-0
182.183	-0
182.561	-0
182.939	-0
183.317	-0.12
183.695	0.19
184.073	-0
184.451	-0
184.829	-0.08
185.206	0.05
185.584	-0
185.962	-0.39
186.34	-0
186.718	0.23
187.096	-0.08
187.473	-0
187.851	-0
188.229	-0
188.607	0.09
188.984	0.12
189.362	0.22
189.74	0.02
190.117	-0.01
190.495	0.07
190.872	0.05
191.25	0.14
191.627	0.07
192.005	0.05
192.382	0.09
192.76	-0
193.137	0.14
193.515	0.11
193.892	0.03
194.269	0.09
194.647	0.11
195.024	0.1
195.401	0.09
195.779	0.03
196.156	0.01
196.533	0.02
196.91	0.13
197.288	0
197.665	0.1
198.042	0.24
198.419	0.08
198.796	0.02
199.173	0.1
199.55	0.14
199.927	0.07
200.304	0.03
200.681	0.08
201.058	0.09
201.435	-0.02
201.812	0.07
202.189	0.06
202.566	0.1
202.943	0.12
203.32	0.18
203.697	0.1
204.073	0.15
204.45	0.03
204.827	0.07
205.204	0.09
205.58	0.06
205.957	0.14
206.334	0.04
206.71	-0.01
207.087	0.04
207.464	0.08
207.84	0.07
208.217	0.14
208.593	-0.01
208.97	0.05
209.346	0.11
209.723	0.09
210.099	0.07
210.476	0.19
210.852	0.06
211.228	0.19
211.605	0.1
211.981	0.09
212.357	0.06
212.733	0.04
213.11	0.1
213.486	-0.07
213.862	-0.03
214.238	0.12
214.614	0.07
214.991	0.03
215.367	0.07
215.743	0.26
216.119	0.04
216.495	0.1
216.871	0.08
217.247	0.03
217.623	-0.01
217.999	0.14
218.375	-0.01
218.751	0.09
219.127	0.12
219.502	0.01
219.878	0.03
220.254	0.08
220.63	0.14
221.006	0.05
221.381	0.13
221.757	0.09
222.133	0.09
222.508	0.06
222.884	0.09
223.26	0.1
223.635	0.08
224.011	0.08
224.386	0.07
224.762	0.11
225.137	0.04
225.513	0.11
225.888	0.08
226.264	0.04
226.639	0.15
227.014	0.08
227.39	0.07
227.765	0.08
228.14	0.08
228.516	0.08
228.891	0.07
229.266	0.07
229.641	0.06
230.017	0.17
230.392	-0
230.767	0.14
231.142	0.02
231.517	0.13
231.892	0.11
232.267	0.12
232.642	0.12
233.017	0.11
233.392	0.14
233.767	0.1
234.142	0.1
234.517	0.1
234.892	0.08
235.267	0.04
235.641	0.12
236.016	0.03
236.391	0.13
236.766	-0.03
237.14	0.11
237.515	0.05
237.89	0.09
238.264	0.07
238.639	0.1
239.014	0.14
239.388	0.08
239.763	0.14
240.137	0.04
240.512	0.1
240.886	0.04
241.261	-0
241.635	0.04
242.009	0.11
242.384	0.02
242.758	0.05
243.132	0.04
243.507	0.1
243.881	0.06
244.255	0.17
244.629	0.1
245.004	0.13
245.378	0.08
245.752	0.12
246.126	0.23
246.5	0.05
246.874	0.05
247.248	0.13
247.622	0.05
247.996	0.13
248.37	0.08
248.744	0.09
249.118	-0.06
249.492	0.15
249.866	0.07
250.24	0.13
250.613	0.08
250.987	0.13
251.361	0.1
251.735	0.04
252.108	0.08
252.482	0.16
252.856	0.01
253.229	0.07
253.603	0.1
253.977	0.1
254.35	0.07
254.724	0.05
255.097	0.1
255.471	0.12
255.844	0.12
256.218	0.01
256.591	0.05
256.964	0.18
257.338	0.06
257.711	0.13
258.084	0.12
258.458	0.1
258.831	0.06
259.204	0.11
259.577	0.02
259.95	0.06
260.323	0.13
260.697	0.16
261.07	0.05
261.443	0.07
261.816	0.14
262.189	0.21
262.562	0.06
262.935	0.06
263.308	0.07
263.68	0.03
264.053	0.13
264.426	0.08
264.799	0.12
265.172	0.18
265.545	0.11
265.917	0.11
266.29	0.09
266.663	0.1
267.035	0.11
267.408	0.06
267.781	0.05
268.153	0.14
268.526	0.1
268.898	0.06
269.271	0.19
269.643	0.09
270.016	0.12
270.388	0.09
270.76	0.07
271.133	0.09
271.505	0.08
271.877	0.06
272.25	0.14
272.622	0.11
272.994	0.16
273.366	0.13
273.739	0.13
274.111	0.1
274.483	0.16
274.855	0.01
275.227	0.12
275.599	0.15
275.971	0.07
276.343	0.09
276.715	0.13
277.087	0.13
277.459	0.11
277.831	0.12
278.203	0.08
278.574	0.06
278.946	0.04
279.318	0.04
279.69	0.12
280.061	0.11
280.433	0.11
280.805	0.13
281.176	0.16
281.548	0.12
281.92	0.1
282.291	0.14
282.663	0.09
283.034	0.08
283.406	0.09
283.777	0.1
284.148	0.12
284.52	0.1
284.891	0.14
285.262	0.07
285.634	0.12
286.005	0.16
286.376	0.12
286.747	0.06
287.119	0.15
287.49	0.1
287.861	0.1
288.232	0.05
288.603	0.17
288.974	0.05
289.345	0.17
289.716	0.09
290.087	0.13
290.458	0.1
290.829	0.17
291.2	0.12
291.571	0.1
291.941	0.05
292.312	0.1
292.683	0.14
293.054	0.09
293.424	0.09
293.795	0.13
294.166	0.09
294.536	0.03
294.907	0.11
295.277	0.12
295.648	0.09
296.018	0.07
296.389	0.13
296.759	0.1
297.13	0.1
297.5	0.04
297.871	0.12
298.241	0.12
298.611	0.13
298.981	0.08
299.352	0.13
299.722	0.09
300.092	0.08
300.462	0.12
300.832	0.1
301.202	0.09
301.573	0.07
301.943	0.06
302.313	0.11
302.683	0.06
303.053	0.06
303.422	0.06
303.792	0.08
304.162	0.07
304.532	0.07
304.902	0.08
305.272	0.08
305.641	0.07
306.011	0.08
306.381	0.07
306.75	0.08
307.12	0.09
307.49	0.08
307.859	0.08
308.229	0.09
308.598	0.08
308.968	0.08
309.337	0.09
309.707	0.09
310.076	0.09
310.445	0.08
310.815	0.09
311.184	0.09
311.553	0.09
311.923	0.09
312.292	0.1
312.661	0.09
313.03	0.1
313.399	0.09
313.768	0.09
314.137	0.09
314.506	0.1
314.875	0.09
315.244	0.09
315.613	0.09
315.982	0.09
316.351	0.09
316.72	0.09
317.089	0.09
317.458	0.09
317.826	0.09
318.195	0.09
318.564	0.09
318.933	0.08
319.301	0.09
319.67	0.08
320.038	0.09
320.407	0.08
320.775	0.09
321.144	0.08
321.512	0.08
321.881	0.07
322.249	0.08
322.618	0.08
322.986	0.08
323.354	0.08
323.723	0.08
324.091	0.07
324.459	0.08
324.827	0.07
325.195	0.08
325.564	0.07
325.932	0.08
326.3	0.07
326.668	0.07
327.036	0.07
327.404	0.07
327.772	0.07
328.14	0.08
328.508	0.07
328.875	0.07
329.243	0.07
329.611	0.07
329.979	0.08
330.346	0.07
330.714	0.07
331.082	0.08
331.449	0.07
331.817	0.08
332.185	0.07
332.552	0.08
332.92	0.08
333.287	0.08
333.655	0.08
334.022	0.08
334.389	0.08
334.757	0.08
335.124	0.08
335.491	0.09
335.859	0.08
336.226	0.08
336.593	0.08
336.96	0.08
337.327	0.09
337.695	0.09
338.062	0.08
338.429	0.08
338.796	0.09
339.163	0.09
339.53	0.09
339.897	0.09
340.263	0.09
340.63	0.1
340.997	0.1
341.364	0.1
341.731	0.1
342.097	0.1
342.464	0.1
342.831	0.1
343.197	0.1
343.564	0.11
343.931	0.11
344.297	0.12
344.664	0.12
345.03	0.11
345.396	0.12
345.763	0.11
346.129	0.12
346.496	0.12
346.862	0.12
347.228	0.12
347.594	0.13
347.961	0.13
348.327	0.13
348.693	0.13
349.059	0.13
349.425	0.13
349.791	0.14
350.157	0.14
350.523	0.15
350.889	0.14
351.255	0.15
351.621	0.15
351.987	0.15
352.353	0.16
352.719	0.16
353.084	0.16
353.45	0.17
353.816	0.17
354.181	0.17
354.547	0.18
354.913	0.18
355.278	0.19
355.644	0.19
356.009	0.19
356.375	0.19
356.74	0.2
357.106	0.2
357.471	0.21
357.836	0.21
358.202	0.22
358.567	0.22
358.932	0.22
359.297	0.24
359.663	0.23
360.028	0.24
360.393	0.24
360.758	0.25
361.123	0.24
361.488	0.26
361.853	0.25
362.218	0.26
362.583	0.26
362.948	0.26
363.312	0.27
363.677	0.27
364.042	0.27
364.407	0.28
364.772	0.29
365.136	0.29
365.501	0.3
365.865	0.3
366.23	0.31
366.595	0.31
366.959	0.32
367.324	0.33
367.688	0.34
368.052	0.34
368.417	0.35
368.781	0.36
369.145	0.36
369.51	0.36
369.874	0.36
370.238	0.36
370.602	0.36
370.967	0.36
371.331	0.35
371.695	0.36
372.059	0.35
372.423	0.36
372.787	0.35
373.151	0.35
373.515	0.35
373.878	0.35
374.242	0.36
374.606	0.35
374.97	0.35
375.334	0.36
375.697	0.36
376.061	0.36
376.425	0.36
376.788	0.36
377.152	0.37
377.515	0.37
377.879	0.37
378.242	0.38
378.606	0.39
378.969	0.39
379.333	0.39
379.696	0.4
380.059	0.41
380.422	0.41
380.786	0.42
381.149	0.42
381.512	0.44
381.875	0.44
382.238	0.45
382.601	0.47
382.964	0.48
383.327	0.49
383.69	0.51
384.053	0.52
384.416	0.54
384.779	0.54
385.142	0.55
385.504	0.56
385.867	0.57
386.23	0.58
386.593	0.59
386.955	0.59
387.318	0.59
387.68	0.59
388.043	0.58
388.405	0.58
388.768	0.58
389.13	0.57
389.493	0.57
389.855	0.56
390.217	0.56
390.58	0.56
390.942	0.56
391.304	0.57
391.666	0.57
392.028	0.59
392.391	0.59
392.753	0.62
393.115	0.63
393.477	0.66
393.839	0.68
394.201	0.71
394.563	0.74
394.924	0.77
395.286	0.81
395.648	0.83
396.01	0.85
396.371	0.88
396.733	0.89
397.095	0.91
397.456	0.92
397.818	0.91
398.18	0.91
398.541	0.9
398.903	0.88
399.264	0.85
399.625	0.82
399.987	0.79
400.348	0.76
400.709	0.71
401.071	0.68
401.432	0.64
401.793	0.6
402.154	0.55
402.515	0.51
402.876	0.48
403.238	0.45
403.599	0.41
403.96	0.38
404.32	0.36
404.681	0.33
405.042	0.31
405.403	0.28
405.764	0.26
406.125	0.25
406.485	0.24
406.846	0.22
407.207	0.21
407.567	0.2
407.928	0.18
408.288	0.18
408.649	0.16
409.009	0.16
409.37	0.14
409.73	0.14
410.091	0.13
410.451	0.12
410.811	0.12
411.171	0.12
411.532	0.11
411.892	0.1
412.252	0.1
412.612	0.1
412.972	0.09
413.332	0.09
413.692	0.09
414.052	0.09
414.412	0.08
414.772	0.08
415.132	0.08
415.492	0.07
415.851	0.07
416.211	0.07
416.571	0.07
416.931	0.07
417.29	0.07
417.65	0.07
418.009	0.07
418.369	0.07
418.728	0.06
419.088	0.06
419.447	0.07
419.807	0.06
420.166	0.06
420.525	0.06
420.884	0.05
421.244	0.05
421.603	0.05
421.962	0.06
422.321	0.05
422.68	0.05
423.039	0.05
423.398	0.05
423.757	0.05
424.116	0.05
424.475	0.04
424.834	0.05
425.193	0.05
425.551	0.04
425.91	0.04
426.269	0.04
426.628	0.04
426.986	0.05
427.345	0.05
427.703	0.05
428.062	0.05
428.42	0.04
428.779	0.04
429.137	0.04
429.496	0.04
429.854	0.04
430.212	0.04
430.57	0.04
430.929	0.04
431.287	0.04
431.645	0.04
432.003	0.03
432.361	0.03
432.719	0.03
433.077	0.03
433.435	0.04
433.793	0.04
434.151	0.03
434.509	0.04
434.866	0.03
435.224	0.04
435.582	0.03
435.94	0.03
436.297	0.03
436.655	0.03
437.012	0.04
437.37	0.04
437.727	0.03
438.085	0.03
438.442	0.03
438.8	0.04
439.157	0.03
439.514	0.04
439.872	0.03
440.229	0.03
440.586	0.02
440.943	0.02
441.3	0.03
441.657	0.04
442.014	0.03
442.371	0.03
442.728	0.03
443.085	0.03
443.442	0.03
443.799	0.02
444.156	0.03
444.513	0.02
444.869	0.03
445.226	0.03
445.583	0.03
445.939	0.02
446.296	0.02
446.652	0.02
447.009	0.02
447.365	0.02
447.722	0.02
448.078	0.02
448.434	0.01
448.791	0.02
449.147	0.02
449.503	0.02
449.859	0.02
450.215	0.02
450.571	0.02
450.928	0.01
451.284	0.01
451.64	0.01
451.995	0.01
452.351	0.02
452.707	0.01
453.063	0.01
453.419	0
453.775	0.01
454.13	0
454.486	0
454.842	0
455.197	0
455.553	0
455.908	0
456.264	0
456.619	-0
456.975	0
457.33	-0
457.685	-0.01
458.04	-0.01
458.396	-0.01
458.751	-0.01
459.106	-0.01
459.461	-0.01
459.816	-0.01
460.171	-0.02
460.526	-0.02
460.881	-0.02
461.236	-0.02
461.591	-0.02
461.946	-0.03
462.301	-0.03
462.655	-0.02
463.01	-0.04
463.365	-0.03
463.719	-0.03
464.074	-0.04
464.428	-0.04
464.783	-0.04
465.137	-0.04
465.492	-0.05
465.846	-0.04
466.201	-0.04
466.555	-0.04
466.909	-0.05
467.263	-0.05
467.618	-0.05
467.972	-0.04
468.326	-0.05
468.68	-0.04
469.034	-0.05
469.388	-0.05
469.742	-0.05
470.096	-0.05
470.45	-0.05
470.804	-0.05
471.157	-0.04
471.511	-0.05
471.865	-0.04
472.218	-0.05
472.572	-0.05
472.926	-0.04
473.279	-0.04
473.633	-0.04
473.986	-0.04
474.34	-0.03
474.693	-0.03
475.046	-0.03
475.4	-0.03
475.753	-0.02
476.106	-0.02
476.459	-0.02
476.812	-0.02
477.165	-0.01
477.519	-0.01
477.872	-0.01
478.224	-0.01
478.577	-0.01
478.93	-0
479.283	-0
479.636	0
479.989	0.01
480.341	0
480.694	0
481.047	0.01
481.399	0.01
481.752	0.02
482.104	0.01
482.457	0.02
482.809	0.02
483.162	0.02
483.514	0.02
483.866	0.02
484.219	0.02
484.571	0.02
484.923	0.02
485.275	0.02
485.627	0.02
485.979	0.02
486.331	0.03
486.683	0.02
487.035	0.03
487.387	0.03
487.739	0.03
488.091	0.03
488.443	0.03
488.794	0.03
489.146	0.03
489.498	0.03
489.849	0.04
490.201	0.03
490.552	0.03
490.904	0.04
491.255	0.03
491.607	0.04
491.958	0.04
492.309	0.04
492.661	0.04
493.012	0.04
493.363	0.04
493.714	0.04
494.065	0.04
494.416	0.04
494.767	0.04
495.118	0.05
495.469	0.04
495.82	0.05
496.171	0.05
496.522	0.05
496.872	0.05
497.223	0.05
497.574	0.05
497.924	0.05
498.275	0.05
498.626	0.05
498.976	0.05
499.327	0.05
499.677	0.05
500.027	0.05
500.378	0.05
500.728	0.06
501.078	0.06
501.428	0.06
501.779	0.06
502.129	0.06
502.479	0.06
502.829	0.06
503.179	0.06
503.529	0.06
503.879	0.06
504.229	0.06
504.578	0.06
504.928	0.06
505.278	0.07
505.628	0.07
505.977	0.07
506.327	0.07
506.676	0.07
507.026	0.07
507.375	0.07
507.725	0.07
508.074	0.07
508.424	0.07
508.773	0.07
509.122	0.07
509.471	0.07
509.82	0.07
510.17	0.08
510.519	0.07
510.868	0.08
511.217	0.08
511.566	0.08
511.915	0.08
512.263	0.08
512.612	0.08
512.961	0.08
513.31	0.08
513.659	0.08
514.007	0.08
514.356	0.09
514.704	0.09
515.053	0.09
515.401	0.09
515.75	0.09
516.098	0.09
516.447	0.09
516.795	0.09
517.143	0.09
517.491	0.09
517.839	0.09
518.188	0.1
518.536	0.09
518.884	0.1
519.232	0.1
519.58	0.1
519.928	0.1
520.275	0.1
520.623	0.1
520.971	0.1
521.319	0.11
521.666	0.1
522.014	0.1
522.362	0.11
522.709	0.1
523.057	0.11
523.404	0.11
523.752	0.1
524.099	0.11
524.446	0.11
524.794	0.11
525.141	0.11
525.488	0.11
525.835	0.11
526.182	0.11
526.529	0.12
526.876	0.11
527.223	0.11
527.57	0.11
527.917	0.11
528.264	0.11
528.611	0.12
528.958	0.12
529.304	0.12
529.651	0.12
529.998	0.13
530.344	0.12
530.691	0.13
531.037	0.13
531.384	0.13
531.73	0.13
532.076	0.13
532.423	0.13
532.769	0.13
533.115	0.13
533.461	0.13
533.807	0.14
534.154	0.13
534.5	0.14
534.846	0.14
535.192	0.14
535.537	0.14
535.883	0.14
536.229	0.14
536.575	0.14
536.921	0.14
537.266	0.14
537.612	0.14
537.957	0.15
538.303	0.15
538.649	0.15
538.994	0.15
539.339	0.15
539.685	0.15
540.03	0.15
540.375	0.16
540.721	0.16
541.066	0.16
541.411	0.15
541.756	0.15
542.101	0.16
542.446	0.16
542.791	0.16
543.136	0.16
543.481	0.17
543.825	0.16
544.17	0.16
544.515	0.16
544.86	0.17
545.204	0.17
545.549	0.17
545.893	0.17
546.238	0.17
546.582	0.17
546.927	0.17
547.271	0.18
547.615	0.18
547.96	0.18
548.304	0.18
548.648	0.18
548.992	0.18
549.336	0.18
549.68	0.19
550.024	0.19
550.368	0.19
550.712	0.19
551.056	0.19
551.4	0.19
551.743	0.19
552.087	0.19
552.431	0.19
552.774	0.19
553.118	0.2
553.462	0.19
553.805	0.19
554.148	0.2
554.492	0.2
554.835	0.19
555.178	0.2
555.522	0.19
555.865	0.2
556.208	0.2
556.551	0.2
556.894	0.2
557.237	0.2
557.58	0.2
557.923	0.21
558.266	0.21
558.609	0.21
558.952	0.2
559.294	0.2
559.637	0.21
559.98	0.21
560.322	0.21
560.665	0.21
561.007	0.21
561.35	0.21
561.692	0.21
562.034	0.21
562.377	0.21
562.719	0.21
563.061	0.21
563.403	0.21
563.745	0.21
564.088	0.21
564.43	0.21
564.772	0.21
565.113	0.21
565.455	0.21
565.797	0.21
566.139	0.22
566.481	0.22
566.822	0.22
567.164	0.22
567.506	0.21
567.847	0.22
568.189	0.22
568.53	0.22
568.872	0.22
569.213	0.22
569.554	0.22
569.895	0.22
570.237	0.22
570.578	0.22
570.919	0.22
571.26	0.22
571.601	0.22
571.942	0.22
572.283	0.22
572.624	0.22
572.965	0.22
573.306	0.22
573.646	0.21
573.987	0.21
574.328	0.22
574.668	0.22
575.009	0.22
575.349	0.22
575.69	0.22
576.03	0.22
576.37	0.21
576.711	0.21
577.051	0.21
577.391	0.21
577.731	0.22
578.072	0.22
578.412	0.22
578.752	0.22
579.092	0.21
579.431	0.21
579.771	0.19
580.111	0.18
580.451	0.19
580.791	0.21
581.13	0.22
581.47	0.22
581.81	0.22
582.149	0.22
582.489	0.22
582.828	0.22
583.167	0.19
583.507	0.16
583.846	0.14
584.185	0.16
584.525	0.19
584.864	0.21
585.203	0.22
585.542	0.23
585.881	0.23
586.22	0.24
586.559	0.23
586.898	0.22
587.236	0.21
587.575	0.21
587.914	0.22
588.252	0.23
588.591	0.23
588.93	0.24
589.268	0.23
589.607	0.23
589.945	0.23
590.283	0.23
590.622	0.24
590.96	0.24
591.298	0.24
591.636	0.24
591.974	0.24
592.313	0.25
592.651	0.25
592.989	0.25
593.326	0.25
593.664	0.25
594.002	0.26
594.34	0.25
594.678	0.25
595.015	0.24
595.353	0.24
595.691	0.24
596.028	0.25
596.366	0.26
596.703	0.26
597.04	0.26
597.378	0.26
597.715	0.26
598.052	0.27
598.389	0.27
598.726	0.27
599.064	0.27
599.401	0.27
599.738	0.27
600.074	0.27
600.411	0.27
600.748	0.27
601.085	0.27
601.422	0.26
601.758	0.26
602.095	0.26
602.432	0.26
602.768	0.26
603.105	0.27
603.441	0.27
603.777	0.27
604.114	0.27
604.45	0.27
604.786	0.28
605.122	0.27
605.459	0.27
605.795	0.27
606.131	0.27
606.467	0.27
606.803	0.27
607.139	0.27
607.474	0.27
607.81	0.27
608.146	0.27
608.482	0.27
608.817	0.27
609.153	0.27
609.488	0.27
609.824	0.27
610.159	0.27
610.495	0.27
610.83	0.27
611.165	0.27
611.5	0.27
611.836	0.27
612.171	0.27
612.506	0.27
612.841	0.27
613.176	0.27
613.511	0.27
613.845	0.27
614.18	0.26
614.515	0.26
614.85	0.26
615.184	0.26
615.519	0.26
615.854	0.26
616.188	0.26
616.523	0.26
616.857	0.26
617.191	0.26
617.526	0.25
617.86	0.25
618.194	0.25
618.528	0.26
618.862	0.26
619.196	0.25
619.53	0.26
619.864	0.26
620.198	0.26
620.532	0.25
620.866	0.25
621.2	0.25
621.533	0.25
621.867	0.25
622.201	0.25
622.534	0.25
622.868	0.25
623.201	0.25
623.534	0.24
623.868	0.24
624.201	0.24
624.534	0.24
624.868	0.24
625.201	0.24
625.534	0.24
625.867	0.24
626.2	0.24
626.533	0.24
626.865	0.24
627.198	0.24
627.531	0.23
627.864	0.23
628.196	0.23
628.529	0.23
628.862	0.23
629.194	0.23
629.527	0.23
629.859	0.23
630.191	0.23
630.524	0.23
630.856	0.23
631.188	0.22
631.52	0.22
631.852	0.22
632.184	0.22
632.516	0.22
632.848	0.21
633.18	0.21
633.512	0.21
633.844	0.21
634.175	0.21
634.507	0.21
634.839	0.2
635.17	0.2
635.502	0.2
635.833	0.2
636.165	0.2
636.496	0.19
636.827	0.19
637.159	0.19
637.49	0.19
637.821	0.19
638.152	0.19
638.483	0.19
638.814	0.18
639.145	0.18
639.476	0.18
639.807	0.18
640.137	0.18
640.468	0.18
640.799	0.18
641.129	0.18
641.46	0.18
641.791	0.17
642.121	0.17
642.451	0.17
642.782	0.17
643.112	0.17
643.442	0.17
643.773	0.17
644.103	0.17
644.433	0.17
644.763	0.17
645.093	0.17
645.423	0.17
645.753	0.16
646.082	0.16
646.412	0.16
646.742	0.16
647.072	0.16
647.401	0.16
647.731	0.16
648.06	0.16
648.39	0.16
648.719	0.16
649.048	0.16
649.378	0.16
649.707	0.16
650.036	0.15
650.365	0.15
650.694	0.15
651.023	0.15
651.352	0.14
651.681	0.14
652.01	0.15
652.339	0.14
652.668	0.15
652.996	0.15
653.325	0.15
653.654	0.15
653.982	0.15
654.311	0.14
654.639	0.15
654.967	0.14
655.296	0.15
655.624	0.15
655.952	0.15
656.28	0.15
656.609	0.15
656.937	0.15
657.265	0.15
657.593	0.08
657.92	0
658.248	0
658.576	-0
658.904	0.01
659.231	0.09
659.559	0.14
659.887	0.14
660.214	0.14
660.542	0.14
660.869	0.14
661.196	0.14
661.524	0.14
661.851	0.14
662.178	0.14
662.505	0.15
662.832	0.14
663.159	0.14
663.486	0.15
663.813	0.15
664.14	0.14
664.467	0.14
664.794	0.15
665.12	0.14
665.447	0.14
665.774	0.14
666.1	0.14
666.427	0.14
666.753	0.14
667.079	0.13
667.406	0.14
667.732	0.14
668.058	0.13
668.384	0.14
668.71	0.14
669.036	0.13
669.362	0.13
669.688	0.13
670.014	0.13
670.34	0.14
670.666	0.13
670.991	0.13
671.317	0.13
671.643	0.13
671.968	0.13
672.294	0.13
672.619	0.13
672.945	0.13
673.27	0.13
673.595	0.13
673.92	0.13
674.246	0.13
674.571	0.13
674.896	0.13
675.221	0.12
675.546	0.12
675.87	0.12
676.195	0.12
676.52	0.12
676.845	0.12
677.169	0.12
677.494	0.12
677.819	0.12
678.143	0.12
678.468	0.11
678.792	0.11
679.116	0.11
679.44	0.11
679.765	0.11
680.089	0.11
680.413	0.11
680.737	0.11
681.061	0.11
681.385	0.11
681.709	0.11
682.033	0.11
682.356	0.11
682.68	0.1
683.004	0.1
683.327	0.1
683.651	0.1
683.974	0.1
684.298	0.1
684.621	0.1
684.944	0.09
685.268	0.1
685.591	0.1
685.914	0.09
686.237	0.09
686.56	0.09
686.883	0.09
687.206	0.09
687.529	0.09
687.852	0.09
688.175	0.09
688.497	0.08
688.82	0.08
689.142	0.08
689.465	0.08
689.787	0.08
690.11	0.08
690.432	0.08
690.755	0.08
691.077	0.08
691.399	0.08
691.721	0.08
692.043	0.07
692.365	0.07
692.687	0.07
693.009	0.07
693.331	0.07
693.653	0.07
693.974	0.07
694.296	0.07
694.618	0.07
694.939	0.07
695.261	0.07
695.582	0.07
695.904	0.06
696.225	0.06
696.546	0.07
696.868	0.06
697.189	0.06
697.51	0.06
697.831	0.06
698.152	0.06
698.473	0.06
698.794	0.06
699.114	0.06
699.435	0.05
699.756	0.05
700.077	0.05
700.397	0.05
700.718	0.05
701.038	0.05
701.359	0.05
701.679	0.05
701.999	0.05
702.32	0.05
702.64	0.05
702.96	0.05
703.28	0.05
703.6	0.05
703.92	0.05
704.24	0.05
704.56	0.05
704.879	0.05
705.199	0.05
705.519	0.05
705.838	0.05
706.158	0.05
706.478	0.05
706.797	0.05
707.116	0.05
707.436	0.05
707.755	0.05
708.074	0.05
708.393	0.04
708.712	0.04
709.031	0.04
709.35	0.04
709.669	0.04
709.988	0.04
710.307	0.04
710.626	0.04
710.944	0.04
711.263	0.04
711.582	0.04
711.9	0.05
712.219	0.05
712.537	0.05
712.855	0.05
713.174	0.05
713.492	0.04
713.81	0.05
714.128	0.05
714.446	0.05
714.764	0.04
715.082	0.04
715.4	0.04
715.718	0.04
716.035	0.04
716.353	0.05
716.671	0.04
716.988	0.04
717.306	0.04
717.623	0.04
717.941	0.05
718.258	0.05
718.575	0.05
718.893	0.05
719.21	0.05
719.527	0.05
719.844	0.05
720.161	0.04
720.478	0.04
720.795	0.05
721.112	0.05
721.428	0.05
721.745	0.05
722.062	0.05
722.378	0.05
722.695	0.05
723.011	0.05
723.328	0.04
723.644	0.04
723.96	0.04
724.276	0.04
724.593	0.04
724.909	0.04
725.225	0.04
725.541	0.04
725.857	0.04
726.173	0.04
726.488	0.04
726.804	0.04
727.12	0.05
727.435	0.05
727.751	0.05
728.067	0.05
728.382	0.05
728.697	0.05
729.013	0.05
729.328	0.05
729.643	0.05
729.958	0.05
730.273	0.05
730.588	0.05
730.903	0.05
731.218	0.05
731.533	0.05
731.848	0.05
732.163	0.05
732.477	0.05
732.792	0.05
733.107	0.05
733.421	0.05
733.736	0.05
734.05	0.05
734.364	0.05
734.678	0.05
734.993	0.05
735.307	0.05
735.621	0.05
735.935	0.05
736.249	0.05
736.563	0.06
736.877	0.06
737.19	0.06
737.504	0.06
737.818	0.06
738.131	0.06
738.445	0.06
738.758	0.06
739.072	0.06
739.385	0.05
739.698	0.06
740.012	0.05
740.325	0.05
740.638	0.05
740.951	0.05
741.264	0.05
741.577	0.05
741.89	0.05
742.203	0.05
742.515	0.05
742.828	0.05
743.141	0.05
743.453	0.05
743.766	0.05
744.078	0.05
744.391	0.05
744.703	0.05
745.015	0.04
745.327	0.04
745.639	0.04
745.952	0.04
746.264	0.04
746.575	0.04
746.887	0.04
747.199	0.04
747.511	0.04
747.823	0.04
748.134	0.04
748.446	0.04
748.757	0.04
749.069	0.04
749.38	0.04
749.692	0.04
750.003	0.04
750.314	0.04
750.625	0.04
750.936	0.04
751.248	0.03
751.559	0.04
751.869	0.04
752.18	0.04
752.491	0.03
752.802	0.03
753.112	0.03
753.423	0.03
753.734	0.03
754.044	0.03
754.355	0.03
754.665	0.02
754.975	0.03
755.285	0.02
755.596	0.02
755.906	0.02
756.216	0.02
756.526	0.02
756.836	0.03
757.146	0.03
757.455	0.02
757.765	0.02
758.075	0.02
758.385	0.02
758.694	0.02
759.004	0.02
759.313	0.02
759.622	0.02
759.932	0.02
760.241	0.02
760.55	0.02
760.859	0.02
761.168	0.02
761.477	0.02
761.786	0.02
762.095	0.02
762.404	0.03
762.713	0.03
763.021	0.03
763.33	0.03
763.639	0.02
763.947	0.02
764.256	0.02
764.564	0.02
764.872	0.03
765.181	0.02
765.489	0.03
765.797	0.02
766.105	0.03
766.413	0.03
766.721	0.02
767.029	0.02
767.337	0.02
767.644	0.02
767.952	0.02
768.26	0.02
768.567	0.02
768.875	0.02
769.182	0.02
769.49	0.02
769.797	0.02
770.104	0.02
770.411	0.02
770.718	0.02
771.026	0.02
771.333	0.02
771.639	0.03
771.946	0.02
772.253	0.02
772.56	0.02
772.867	0.02
773.173	0.02
773.48	0.02
773.786	0.02
774.093	0.02
774.399	0.02
774.705	0.02
775.012	0.02
775.318	0.02
775.624	0.02
775.93	0.02
776.236	0.02
776.542	0.02
776.848	0.02
777.154	0.02
777.459	0.02
777.765	0.02
778.071	0.02
778.376	0.02
778.682	0.02
778.987	0.02
779.292	0.02
779.598	0.01
779.903	0.01
780.208	0.01
780.513	0.01
780.818	0.01
781.123	0.01
781.428	0.01
781.733	0.01
782.038	0.01
782.343	0.01
782.647	0.02
782.952	0.01
783.256	0.02
783.561	0.02
783.865	0.02
784.17	0.02
784.474	0.01
784.778	0.01
785.082	0.01
785.386	0.01
785.69	0.01
785.994	0.01
786.298	0.01
786.602	0.01
786.906	0.01
787.209	0.01
787.513	0.01
787.817	0.02
788.12	0.02
788.424	0.01
788.727	0.01
789.03	0.02
789.333	0.02
789.637	0.02
789.94	0.02
790.243	0.02
790.546	0.02
790.849	0.02
791.152	0.02
791.454	0.02
791.757	0.02
792.06	0.02
792.362	0.02
792.665	0.02
792.967	0.01
793.27	0.01
793.572	0.01
793.874	0.02
794.177	0.01
794.479	0.01
794.781	0.01
795.083	0.01
795.385	0.01
795.687	0.01
795.989	0.01
796.29	0.01
796.592	0.01
796.894	0.01
797.195	0.01
797.497	0.01
797.798	0.01
798.1	0.01
798.401	0.02
798.702	0.02
799.003	0.02
799.304	0.02
799.605	0.01
799.906	0.02
800.207	0.01
800.508	0.01
800.809	0.01
801.11	0.01
801.41	0.01
801.711	0.01
802.011	0.01
802.312	0.01
802.612	0.02
802.913	0.02
803.213	0.02
803.513	0.01
803.813	0.02
804.113	0.01
804.413	0.02
804.713	0.02
805.013	0.01
805.313	0.01
805.613	0.01
805.912	0.01
806.212	0.01
806.511	0
806.811	0.01
807.11	0
807.41	0
807.709	0
808.008	0
808.307	-0
808.606	0
808.905	0.01
809.204	0.01
809.503	0.01
809.802	0.01
810.101	0.01
810.399	0.01
810.698	0.01
810.997	0.01
811.295	0.01
811.593	0.01
811.892	0.02
812.19	0.02
812.488	0.02
812.786	0.02
813.084	0.02
813.383	0.02
813.68	0.01
813.978	0.02
814.276	0.02
814.574	0.02
814.872	0.01
815.169	0.02
815.467	0.02
815.764	0.02
816.062	0.02
816.359	0.02
816.656	0.02
816.954	0.01
817.251	0.01
817.548	0.01
817.845	0
818.142	0.01
818.439	0.01
818.735	0.01
819.032	0.01
819.329	0.01
819.626	0.01
819.922	0
820.219	0
820.515	0
820.811	0.01
821.108	0.01
821.404	0.01
821.7	0.01
821.996	0
822.292	0.01
822.588	0.01
822.884	0.01
823.18	0.02
823.475	0.02
823.771	0.01
824.067	0.01
824.362	0.01
824.658	0.02
824.953	0.02
825.249	0.02
825.544	0.01
825.839	0.01
826.134	0.01
826.429	0.01
826.724	0.01
827.019	0.02
827.314	0.02
827.609	0.01
827.904	0.02
828.198	0.01
828.493	0.01
828.787	0.02
829.082	0.01
829.376	0.01
829.671	0.01
829.965	0.01
830.259	0
830.553	0.01
830.847	0.01
831.141	0.01
831.435	0.01
831.729	0.01
832.023	0
832.317	0.01
832.61	0.01
832.904	0.02
833.197	0.02
833.491	0.02
833.784	0.03
834.077	0.02
834.371	0.02
834.664	0.03
834.957	0.02
835.25	0.02
835.543	0.02
835.836	0.02
836.129	0.02
836.421	0.02
836.714	0.01
837.007	0.01
837.299	0.01
837.592	0.01
837.884	0.01
838.177	0.02
838.469	0.01
838.761	0.01
839.053	0.02
839.345	0.01
839.637	0.01
839.929	-0
840.221	-0
840.513	-0
840.805	0.01
841.096	0.01
841.388	0.02
841.68	0.01
841.971	0.01
842.262	0
842.554	0.01
842.845	0.01
843.136	0.01
843.427	0.01
843.718	0
844.009	0
844.3	0.02
844.591	0.01
844.882	0.01
845.173	0.01
845.463	0.02
845.754	0.01
846.044	0.01
846.335	0
846.625	0.01
846.915	0.01
847.206	0.01
847.496	0.01
847.786	0.03
848.076	0.02
848.366	0.02
848.656	0.02
848.945	0.01
849.235	0.03
849.525	0.02
849.814	0.02
850.104	0.02
850.393	0.01
850.683	0.01
850.972	0.02
851.261	0.01
851.551	0.01
851.84	0
852.129	0
852.418	-0
852.707	0.01
852.995	-0.01
853.284	0.02
853.573	-0.01
853.862	0
854.15	-0
854.439	0.02
854.727	0.01
855.015	0
855.304	-0.01
855.592	0.01
855.88	0.01
856.168	0.01
856.456	0
856.744	0.01
857.032	-0
857.32	-0
857.607	0.01
857.895	-0.01
858.183	0.02
858.47	0.01
858.757	0.01
859.045	-0.01
859.332	0.01
859.619	0
859.907	0.03
860.194	0.02
860.481	0
860.768	0.01
861.054	0.01
861.341	0.01
861.628	0.01
861.915	0.01
862.201	0.02
862.488	0.02
862.774	0.02
863.061	-0
863.347	-0
863.633	0
863.919	0.05
864.205	0.02
864.491	0
864.777	0.01
865.063	0
865.349	0.01
865.635	0.01
865.92	0.01
866.206	0.01
866.492	0.02
866.777	0.02
867.062	-0.01
867.348	0.01
867.633	0.01
867.918	-0.01
868.203	0.02
868.488	0.03
868.773	0.01
869.058	0.04
869.343	-0
869.628	-0.03
869.912	-0.04
870.197	0.05
870.482	-0.01
870.766	-0.04
871.05	-0.01
871.335	0.01
871.619	-0
871.903	0.01
872.187	-0.02
872.471	-0.02
872.755	0.01
873.039	-0
873.323	0.03
873.607	0.03
873.89	0
874.174	-0.06
874.458	-0.08
874.741	-0.06
875.024	-0.03
875.308	-0.07
875.591	0.05
875.874	0.02
876.157	-0.09
876.44	0.01
876.723	0.01
877.006	-0.07
877.289	-0.06
877.572	0.02
877.854	-0
878.137	-0.04
878.42	-0.03
878.702	0.02
878.984	-0.04
879.267	-0.09
879.549	0.05
879.831	-0.07
880.113	-0.04
880.395	-0.06
880.677	-0.06
880.959	-0.14
